Time[s]	Fx[N]	Fy[N]	Fz[N]	Mx[Nm]	My[Nm]	Mz[Nm]	COPx[cm]	COPy[cm]
0.010	4.395635	-2.296646	742.593441	-0.965035	5.228874	0.053944	-0.704137	-0.129955
0.020	4.469791	-2.196985	743.089350	-0.949581	5.139701	0.053959	-0.691667	-0.127788
0.030	4.546980	-2.107640	743.498825	-0.935800	5.049205	0.054058	-0.679114	-0.125864
0.040	4.630179	-2.038300	743.757451	-0.924017	4.956548	0.054902	-0.666420	-0.124236
0.050	4.720553	-1.996417	743.838662	-0.912958	4.861959	0.057441	-0.653631	-0.122736
0.060	4.815633	-1.984688	743.758113	-0.900529	4.766869	0.062497	-0.640917	-0.121078
0.070	4.908546	-1.999054	743.566553	-0.885127	4.673834	0.070259	-0.628570	-0.119038
0.080	4.989435	-2.028862	743.334159	-0.866531	4.586256	0.079972	-0.616984	-0.116574
0.090	5.048721	-2.059725	743.131345	-0.845926	4.507870	0.089969	-0.606605	-0.113833
0.100	5.080518	-2.078070	743.011833	-0.825244	4.442028	0.098041	-0.597841	-0.111067
0.110	5.084568	-2.075556	743.002864	-0.806476	4.391051	0.102027	-0.590987	-0.108543
0.120	5.066037	-2.051713	743.104401	-0.791386	4.355898	0.100474	-0.586176	-0.106497
0.130	5.033611	-2.013813	743.295086	-0.781651	4.336227	0.093144	-0.583379	-0.105160
0.140	4.996983	-1.973987	743.540467	-0.779091	4.330658	0.081200	-0.582437	-0.104781
0.150	4.964883	-1.944675	743.800297	-0.785581	4.337031	0.066977	-0.583091	-0.105617
0.160	4.944171	-1.934312	744.034720	-0.802513	4.352577	0.053395	-0.584997	-0.107860
0.170	4.939624	-1.944921	744.210289	-0.830003	4.374005	0.043173	-0.587738	-0.111528
0.180	4.953592	-1.972308	744.305074	-0.866316	4.397613	0.038074	-0.590835	-0.116393
0.190	4.985102	-2.008323	744.310567	-0.907929	4.419592	0.038397	-0.593783	-0.121983
0.200	5.028830	-2.043802	744.229596	-0.950373	4.436613	0.042911	-0.596135	-0.127699
0.210	5.074894	-2.070881	744.072681	-0.989587	4.446631	0.049288	-0.597607	-0.132996
0.220	5.110237	-2.084236	743.856270	-1.023256	4.449684	0.054932	-0.598191	-0.137561
0.230	5.121515	-2.081671	743.603686	-1.051562	4.448329	0.057907	-0.598212	-0.141414
0.240	5.098583	-2.064395	743.346098	-1.076981	4.447314	0.057600	-0.598283	-0.144883
0.250	5.037444	-2.036722	743.120006	-1.103154	4.452282	0.054842	-0.599134	-0.148449
0.260	4.941693	-2.004779	742.960529	-1.133252	4.467756	0.051459	-0.601345	-0.152532
0.270	4.821927	-1.974564	742.893289	-1.168528	4.495176	0.049460	-0.605090	-0.157294
0.280	4.693179	-1.950465	742.928594	-1.207704	4.531833	0.050261	-0.609996	-0.162560
0.290	4.571412	-1.935061	743.059700	-1.247375	4.571250	0.054251	-0.615193	-0.167870
0.300	4.470569	-1.929891	743.264765	-1.283165	4.604936	0.060852	-0.619555	-0.172639
0.310	4.401102	-1.936132	743.511394	-1.311133	4.624963	0.068956	-0.622043	-0.176343
0.320	4.369775	-1.954459	743.762599	-1.328994	4.626514	0.077456	-0.622042	-0.178685
0.330	4.379830	-1.984252	743.982973	-1.336840	4.609489	0.085616	-0.619569	-0.179687
0.340	4.430708	-2.022949	744.144333	-1.337147	4.578483	0.093119	-0.615268	-0.179689
0.350	4.517187	-2.066173	744.230569	-1.334013	4.541011	0.099876	-0.610162	-0.179247
0.360	4.628604	-2.108761	744.241151	-1.331853	4.504669	0.105782	-0.605270	-0.178954
0.370	4.749344	-2.146307	744.192110	-1.334002	4.474462	0.110630	-0.601251	-0.179255
0.380	4.861399	-2.176535	744.113360	-1.341709	4.451450	0.114210	-0.598222	-0.180310
0.390	4.948663	-2.199867	744.042051	-1.353897	4.433199	0.116477	-0.595826	-0.181965
0.400	5.001412	-2.218780	744.012878	-1.367772	4.415597	0.117580	-0.593484	-0.183837
0.410	5.019063	-2.236105	744.047582	-1.379999	4.394992	0.117697	-0.590687	-0.185472
0.420	5.009977	-2.253086	744.147061	-1.387930	4.369619	0.116801	-0.587198	-0.186513
0.430	4.988352	-2.268275	744.289650	-1.390380	4.339910	0.114576	-0.583094	-0.186806
0.440	4.969384	-2.277981	744.437455	-1.387647	4.307935	0.110582	-0.578683	-0.186402
0.450	4.964371	-2.277973	744.549169	-1.380810	4.276498	0.104577	-0.574374	-0.185456
0.460	4.977458	-2.265424	744.594254	-1.370738	4.248202	0.096772	-0.570539	-0.184092
0.470	5.005219	-2.240052	744.562481	-1.357419	4.224615	0.087852	-0.567396	-0.182311
0.480	5.039315	-2.203971	744.465432	-1.340066	4.205753	0.078728	-0.564936	-0.180004
0.490	5.070931	-2.160603	744.330473	-1.317933	4.190133	0.070166	-0.562940	-0.177063
0.500	5.094615	-2.113442	744.190172	-1.291272	4.175525	0.062465	-0.561083	-0.173514
0.510	5.109533	-2.065389	744.071273	-1.261780	4.160134	0.055354	-0.559104	-0.169578
0.520	5.117913	-2.018807	743.987503	-1.232161	4.143669	0.048166	-0.556954	-0.165616
0.530	5.122181	-1.975878	743.938868	-1.204964	4.127776	0.040260	-0.554854	-0.161971
0.540	5.122705	-1.938745	743.916461	-1.181284	4.115638	0.031514	-0.553239	-0.158793
0.550	5.117257	-1.909329	743.909287	-1.160063	4.110935	0.022655	-0.552612	-0.155941
0.560	5.102285	-1.889120	743.909736	-1.138453	4.116553	0.015147	-0.553367	-0.153036
0.570	5.075239	-1.879114	743.915991	-1.113170	4.133529	0.010594	-0.555645	-0.149636
0.580	5.036777	-1.879713	743.930980	-1.082189	4.160647	0.009920	-0.559279	-0.145469
0.590	4.991542	-1.890407	743.958671	-1.045880	4.194911	0.012794	-0.563863	-0.140583
0.600	4.946886	-1.909297	743.999510	-1.006944	4.232764	0.017694	-0.568920	-0.135342
0.610	4.910018	-1.932804	744.047080	-0.969297	4.271563	0.022577	-0.574098	-0.130274
0.620	4.884980	-1.955928	744.087712	-0.936648	4.310595	0.025750	-0.579313	-0.125879
0.630	4.870856	-1.973210	744.104134	-0.911535	4.351104	0.026436	-0.584744	-0.122501
0.640	4.861908	-1.980149	744.082524	-0.895093	4.395309	0.024822	-0.590702	-0.120295
0.650	4.849431	-1.974506	744.019843	-0.887258	4.445016	0.021718	-0.597432	-0.119252
0.660	4.824532	-1.957050	743.927161	-0.887062	4.500620	0.018141	-0.604981	-0.119240
0.670	4.780729	-1.931500	743.826557	-0.892819	4.560952	0.014985	-0.613174	-0.120031
0.680	4.715430	-1.903625	743.742664	-0.902356	4.623837	0.012857	-0.621699	-0.121326
0.690	4.630060	-1.879636	743.692723	-0.913407	4.686855	0.012035	-0.630214	-0.122820
0.700	4.529345	-1.864279	743.679935	-0.924115	4.747928	0.012567	-0.638437	-0.124262
0.710	4.420335	-1.859173	743.693561	-0.933437	4.805747	0.014402	-0.646200	-0.125514
0.720	4.311317	-1.862003	743.715938	-0.941281	4.860105	0.017466	-0.653489	-0.126565
0.730	4.210446	-1.867211	743.732713	-0.948367	4.912004	0.021648	-0.660453	-0.127514
0.740	4.123963	-1.868426	743.740540	-0.955932	4.963310	0.026760	-0.667344	-0.128530
0.750	4.054451	-1.861783	743.747803	-0.965464	5.015945	0.032570	-0.674415	-0.129811
0.760	4.000034	-1.848244	743.768451	-0.978610	5.071060	0.038869	-0.681806	-0.131575
0.770	3.955226	-1.833395	743.813164	-0.997250	5.128572	0.045478	-0.689497	-0.134073
0.780	3.913136	-1.824747	743.882658	-1.023490	5.187197	0.052184	-0.697314	-0.137588
0.790	3.867880	-1.828157	743.965609	-1.059323	5.244797	0.058661	-0.704978	-0.142389
0.800	3.816100	-1.845472	744.041407	-1.105971	5.298917	0.064474	-0.712180	-0.148644
0.810	3.757297	-1.874670	744.086898	-1.163248	5.347411	0.069155	-0.718654	-0.156332
0.820	3.693268	-1.912124	744.085303	-1.229290	5.389062	0.072318	-0.724253	-0.165208
0.830	3.627144	-1.955236	744.034220	-1.300830	5.423909	0.073763	-0.728986	-0.174835
0.840	3.562506	-2.003593	743.948983	-1.373872	5.453048	0.073540	-0.732987	-0.184673
0.850	3.502889	-2.058124	743.858804	-1.444601	5.477883	0.071931	-0.736414	-0.194204
0.860	3.451689	-2.119193	743.796005	-1.510274	5.499125	0.069331	-0.739332	-0.203050
0.870	3.412128	-2.184968	743.782536	-1.569874	5.516029	0.066040	-0.741619	-0.211066
0.880	3.387020	-2.250933	743.820373	-1.624249	5.526270	0.062104	-0.742958	-0.218366
0.890	3.378571	-2.310806	743.891271	-1.675585	5.526575	0.057381	-0.742928	-0.225246
0.900	3.388516	-2.358577	743.966453	-1.726297	5.513878	0.051837	-0.741146	-0.232040
0.910	3.418328	-2.390883	744.021087	-1.777831	5.486494	0.045870	-0.737411	-0.238949
0.920	3.468759	-2.408562	744.045591	-1.830082	5.444814	0.040340	-0.731785	-0.245964
0.930	3.538522	-2.416558	744.048075	-1.881813	5.391168	0.036224	-0.724573	-0.252916
0.940	3.622988	-2.422211	744.047785	-1.931857	5.328918	0.034081	-0.716206	-0.259641
0.950	3.714219	-2.432844	744.064361	-1.980266	5.261188	0.033710	-0.707088	-0.266142
0.960	3.802895	-2.453746	744.108837	-2.028670	5.189820	0.034189	-0.697454	-0.272631
0.970	3.881556	-2.487190	744.179693	-2.079642	5.115040	0.034255	-0.687339	-0.279454
0.980	3.947734	-2.532532	744.263543	-2.135580	5.035925	0.032832	-0.676632	-0.286939
0.990	4.005345	-2.587017	744.338143	-2.197746	4.951372	0.029447	-0.665205	-0.295262
1.000	4.063410	-2.646947	744.376239	-2.265865	4.861038	0.024408	-0.653035	-0.304398
1.010	4.132414	-2.708835	744.350453	-2.338238	4.765765	0.018701	-0.640258	-0.314131
1.020	4.219782	-2.770195	744.240033	-2.412174	4.667345	0.013682	-0.627129	-0.324112
1.030	4.326303	-2.829748	744.039114	-2.484433	4.567896	0.010651	-0.613932	-0.333912
1.040	4.444885	-2.887087	743.763709	-2.551521	4.469421	0.010443	-0.600920	-0.343055
1.050	4.562136	-2.941983	743.453090	-2.609897	4.373880	0.013172	-0.588320	-0.351051
1.060	4.662340	-2.993602	743.162664	-2.656304	4.283564	0.018238	-0.576396	-0.357432
1.070	4.732587	-3.039977	742.950051	-2.688352	4.201210	0.024583	-0.565477	-0.361848
1.080	4.767319	-3.078090	742.859945	-2.705176	4.129507	0.031084	-0.555893	-0.364157
1.090	4.770590	-3.104677	742.913185	-2.707779	4.070060	0.036957	-0.547851	-0.364481
1.100	4.755023	-3.117422	743.102366	-2.698836	4.022287	0.041972	-0.541283	-0.363185
1.110	4.737573	-3.115905	743.393657	-2.681995	3.982870	0.046433	-0.535769	-0.360777
1.120	4.733511	-3.101829	743.733604	-2.660962	3.946273	0.050984	-0.530603	-0.357784
1.130	4.751085	-3.078460	744.059695	-2.638615	3.906331	0.056417	-0.525002	-0.354624
1.140	4.789313	-3.049655	744.313208	-2.616380	3.858339	0.063568	-0.518376	-0.351516
1.150	4.839934	-3.019027	744.452354	-2.594051	3.800720	0.073222	-0.510539	-0.348451
1.160	4.892284	-2.989556	744.462729	-2.570140	3.735566	0.085945	-0.501780	-0.345234
1.170	4.938391	-2.963432	744.361410	-2.542551	3.667831	0.101815	-0.492749	-0.341575
1.180	4.975885	-2.941755	744.191920	-2.509228	3.603582	0.120193	-0.484227	-0.337175
1.190	5.007883	-2.923984	744.010326	-2.468536	3.548059	0.139711	-0.476883	-0.331788
1.200	5.040608	-2.907571	743.867066	-2.419396	3.504323	0.158557	-0.471095	-0.325246
1.210	5.080171	-2.888346	743.792313	-2.361309	3.472917	0.174965	-0.466920	-0.317469
1.220	5.129729	-2.861796	743.791548	-2.294323	3.452495	0.187692	-0.464175	-0.308463
1.230	5.187698	-2.824764	743.851634	-2.218917	3.440964	0.196280	-0.462587	-0.298301
1.240	5.247343	-2.776747	743.950981	-2.135822	3.436555	0.201070	-0.461933	-0.287092
1.250	5.297959	-2.720048	744.066489	-2.045887	3.438328	0.203088	-0.462100	-0.274960
1.260	5.327455	-2.658642	744.175193	-1.950068	3.446041	0.203852	-0.463068	-0.262044
1.270	5.325594	-2.596293	744.254187	-1.849518	3.459641	0.205087	-0.464847	-0.248506
1.280	5.286738	-2.534903	744.283262	-1.745637	3.478790	0.208321	-0.467401	-0.234539
1.290	5.211175	-2.473894	744.250925	-1.639973	3.502673	0.214432	-0.470631	-0.220352
1.300	5.104762	-2.410852	744.160077	-1.533959	3.530109	0.223359	-0.474375	-0.206133
1.310	4.977312	-2.343103	744.028647	-1.428594	3.559852	0.234155	-0.478456	-0.192008
1.320	4.840545	-2.269496	743.883762	-1.324279	3.590971	0.245369	-0.482733	-0.178022
1.330	4.706198	-2.191447	743.752293	-1.220991	3.623234	0.255544	-0.487156	-0.164166
1.340	4.584397	-2.112572	743.652339	-1.118753	3.657281	0.263594	-0.491800	-0.150440
1.350	4.482265	-2.037061	743.588993	-1.018099	3.694330	0.268932	-0.496824	-0.136917
1.360	4.403056	-1.967797	743.555387	-0.920106	3.735339	0.271384	-0.502362	-0.123744
1.370	4.346180	-1.905386	743.537904	-0.825810	3.779981	0.271008	-0.508378	-0.111065
1.380	4.308126	-1.848553	743.522953	-0.735303	3.826077	0.267929	-0.514588	-0.098894
1.390	4.283967	-1.795443	743.502331	-0.647111	3.870045	0.262258	-0.520516	-0.087036
1.400	4.269140	-1.744866	743.475137	-0.558393	3.908307	0.254131	-0.525681	-0.075106
1.410	4.261033	-1.696646	743.446064	-0.466103	3.938932	0.243802	-0.529821	-0.062695
1.420	4.259518	-1.650846	743.421740	-0.368679	3.962564	0.231712	-0.533017	-0.049592
1.430	4.265724	-1.606546	743.407459	-0.267425	3.982127	0.218464	-0.535659	-0.035973
1.440	4.279578	-1.561252	743.405819	-0.166763	4.001543	0.204740	-0.538272	-0.022432
1.450	4.297836	-1.511610	743.417342	-0.073020	4.024217	0.191247	-0.541313	-0.009822
1.460	4.314135	-1.455183	743.441917	0.007836	4.051985	0.178746	-0.545030	0.001054
1.470	4.321154	-1.392268	743.479616	0.072557	4.084762	0.168051	-0.549411	0.009759
1.480	4.313449	-1.326561	743.529950	0.121935	4.120798	0.159906	-0.554221	0.016399
1.490	4.289235	-1.264121	743.589940	0.160383	4.157270	0.154674	-0.559081	0.021569
1.500	4.250334	-1.211104	743.652571	0.193933	4.191039	0.152010	-0.563575	0.026078
1.510	4.200814	-1.171454	743.707578	0.227559	4.219412	0.150739	-0.567348	0.030598
1.520	4.145555	-1.145775	743.745415	0.263094	4.240777	0.149072	-0.570192	0.035374
1.530	4.089654	-1.131953	743.762768	0.298650	4.254971	0.145089	-0.572087	0.040154
1.540	4.038667	-1.127053	743.765701	0.329635	4.263193	0.137282	-0.573190	0.044320
1.550	3.998856	-1.129154	743.767055	0.350678	4.267415	0.124941	-0.573757	0.047149
1.560	3.976581	-1.137970	743.778963	0.357565	4.269414	0.108246	-0.574017	0.048074
1.570	3.976720	-1.154032	743.805691	0.348623	4.269802	0.088090	-0.574048	0.046870
1.580	4.001040	-1.177247	743.841803	0.325276	4.267553	0.065708	-0.573718	0.043729
1.590	4.047655	-1.205871	743.876165	0.291603	4.260322	0.042337	-0.572719	0.039200
1.600	4.111832	-1.236539	743.898221	0.252975	4.245405	0.019040	-0.570697	0.034007
1.610	4.187216	-1.265376	743.902658	0.214239	4.220897	-0.003230	-0.567399	0.028799
1.620	4.266592	-1.289639	743.890977	0.178255	4.186616	-0.023480	-0.562800	0.023963
1.630	4.342191	-1.309024	743.870583	0.145359	4.144545	-0.040639	-0.557159	0.019541
1.640	4.406283	-1.325863	743.852291	0.113776	4.098670	-0.053762	-0.551006	0.015296
1.650	4.452452	-1.344046	743.847003	0.080628	4.054137	-0.062415	-0.545023	0.010839
1.660	4.477219	-1.367325	743.862658	0.043096	4.015843	-0.067031	-0.539863	0.005794
1.670	4.481325	-1.398006	743.902494	-0.000558	3.986865	-0.069020	-0.535939	-0.000075
1.680	4.470260	-1.436582	743.964558	-0.050339	3.967251	-0.070517	-0.533258	-0.006766
1.690	4.453793	-1.482086	744.041732	-0.104441	3.953705	-0.073796	-0.531382	-0.014037
1.700	4.444194	-1.532561	744.122029	-0.159841	3.940374	-0.080510	-0.529533	-0.021480
1.710	4.452960	-1.585417	744.189881	-0.213464	3.920478	-0.091042	-0.526812	-0.028684
1.720	4.486823	-1.637829	744.229382	-0.263425	3.888092	-0.104269	-0.522432	-0.035396
1.730	4.544860	-1.687385	744.229550	-0.309776	3.839427	-0.117893	-0.515893	-0.041624
1.740	4.618646	-1.732932	744.189955	-0.354421	3.773315	-0.129252	-0.507037	-0.047625
1.750	4.695899	-1.775320	744.123461	-0.400400	3.690981	-0.136264	-0.496017	-0.053808
1.760	4.766012	-1.817673	744.052962	-0.450908	3.595384	-0.138105	-0.483216	-0.060602
1.770	4.824702	-1.865064	744.001968	-0.508409	3.490391	-0.135361	-0.469137	-0.068334
1.780	4.875439	-1.923663	743.983242	-0.574058	3.380019	-0.129666	-0.454314	-0.077160
1.790	4.927108	-1.999426	743.991607	-0.647579	3.267879	-0.123081	-0.439236	-0.087041
1.800	4.989207	-2.096205	744.004607	-0.727637	3.156867	-0.117454	-0.424308	-0.097800
1.810	5.066996	-2.213490	743.990437	-0.812380	3.049033	-0.113980	-0.409822	-0.109192
1.820	5.158852	-2.344803	743.919836	-0.899773	2.945553	-0.113028	-0.395950	-0.120950
1.830	5.256827	-2.478256	743.777996	-0.987588	2.846794	-0.114235	-0.382748	-0.132780
1.840	5.349742	-2.599963	743.572912	-1.073388	2.752476	-0.116774	-0.370169	-0.144355
1.850	5.427152	-2.699116	743.337433	-1.154836	2.661906	-0.119661	-0.358102	-0.155358
1.860	5.482515	-2.772198	743.123398	-1.230333	2.574254	-0.121962	-0.346410	-0.165562
1.870	5.514656	-2.824036	742.988212	-1.299517	2.488892	-0.122802	-0.334984	-0.174904
1.880	5.527430	-2.865136	742.977313	-1.363177	2.405781	-0.121254	-0.323803	-0.183475
1.890	5.528069	-2.906665	743.108712	-1.422465	2.325807	-0.116219	-0.312983	-0.191421
1.900	5.525016	-2.955397	743.365956	-1.477748	2.250818	-0.106497	-0.302787	-0.198792
1.910	5.525923	-3.010883	743.702705	-1.527678	2.183156	-0.091093	-0.293552	-0.205415
1.920	5.536295	-3.066049	744.056754	-1.569028	2.124806	-0.069669	-0.285570	-0.210875
1.930	5.558979	-3.111020	744.366872	-1.597508	2.076528	-0.042888	-0.278966	-0.214613
1.940	5.594392	-3.138297	744.585517	-1.609317	2.037464	-0.012424	-0.273637	-0.216136
1.950	5.641096	-3.146625	744.684498	-1.602821	2.005498	0.019396	-0.269308	-0.215235
1.960	5.696238	-3.141468	744.655665	-1.579581	1.978230	0.050136	-0.265657	-0.212122
1.970	5.755669	-3.131999	744.510332	-1.544107	1.954052	0.077762	-0.262461	-0.207399
1.980	5.814062	-3.126425	744.278572	-1.502222	1.932854	0.100991	-0.259695	-0.201836
1.990	5.865527	-3.128107	744.005873	-1.458753	1.916159	0.119470	-0.257546	-0.196067
2.000	5.904857	-3.134156	743.744158	-1.415791	1.906726	0.133792	-0.256369	-0.190360
2.010	5.928814	-3.136807	743.538061	-1.372514	1.907659	0.145310	-0.256565	-0.184592
2.020	5.936636	-3.126700	743.412174	-1.326537	1.921192	0.155733	-0.258429	-0.178439
2.030	5.929516	-3.096612	743.366067	-1.275827	1.947548	0.166569	-0.261990	-0.171628
2.040	5.909599	-3.044184	743.379793	-1.219981	1.984497	0.178616	-0.266956	-0.164113
2.050	5.879271	-2.972704	743.426398	-1.160287	2.027985	0.191721	-0.272789	-0.156073
2.060	5.841014	-2.889813	743.484340	-1.098815	2.073667	0.204964	-0.278912	-0.147793
2.070	5.797605	-2.804771	743.543975	-1.037227	2.118674	0.217187	-0.284943	-0.139498
2.080	5.752151	-2.725431	743.606779	-0.975990	2.162756	0.227611	-0.290847	-0.131251
2.090	5.707649	-2.655996	743.679793	-0.914322	2.208206	0.236232	-0.296930	-0.122946
2.100	5.666260	-2.596279	743.768910	-0.850798	2.258530	0.243781	-0.303660	-0.114390
2.110	5.628865	-2.542602	743.873579	-0.784204	2.316515	0.251265	-0.311412	-0.105422
2.120	5.595408	-2.489854	743.984119	-0.714136	2.382682	0.259305	-0.320260	-0.095988
2.130	5.565786	-2.433782	744.081945	-0.641086	2.454913	0.267625	-0.329925	-0.086158
2.140	5.540479	-2.372622	744.142855	-0.566048	2.529374	0.275017	-0.339904	-0.076067
2.150	5.520236	-2.307632	744.143366	-0.489896	2.602212	0.279851	-0.349692	-0.065834
2.160	5.504964	-2.242464	744.069241	-0.412800	2.671161	0.280889	-0.358994	-0.055479
2.170	5.492773	-2.181522	743.923722	-0.333945	2.736357	0.277922	-0.367828	-0.044890
2.180	5.480098	-2.127754	743.731492	-0.251718	2.800076	0.271914	-0.376490	-0.033845
2.190	5.462948	-2.080822	743.534783	-0.164292	2.865683	0.264608	-0.385413	-0.022096
2.200	5.438350	-2.036675	743.381322	-0.070297	2.936376	0.257861	-0.395003	-0.009456
2.210	5.404862	-1.989042	743.308563	0.030760	3.014340	0.253047	-0.405530	0.004138
2.220	5.361890	-1.932251	743.331189	0.138435	3.100558	0.250761	-0.417117	0.018624
2.230	5.308668	-1.863917	743.436919	0.251510	3.195050	0.250852	-0.429768	0.033831
2.240	5.244272	-1.785889	743.591325	0.368284	3.297099	0.252633	-0.443402	0.049528
2.250	5.169192	-1.702772	743.749020	0.486939	3.405187	0.255084	-0.457841	0.065471
2.260	5.087551	-1.618848	743.867430	0.605910	3.516819	0.257001	-0.472775	0.081454
2.270	5.008036	-1.535494	743.919121	0.724116	3.628663	0.257122	-0.487777	0.097338
2.280	4.942054	-1.450975	743.898657	0.840972	3.737297	0.254298	-0.502393	0.113049
2.290	4.899398	-1.362783	743.821341	0.956138	3.840317	0.247700	-0.516296	0.128544
2.300	4.883605	-1.270804	743.714526	1.068924	3.937173	0.237035	-0.529393	0.143728
2.310	4.889704	-1.179091	743.606016	1.177501	4.029197	0.222665	-0.541846	0.158350
2.320	4.905790	-1.095171	743.515341	1.278489	4.118793	0.205567	-0.553962	0.171952
2.330	4.917679	-1.027469	743.451300	1.367530	4.208248	0.187097	-0.566042	0.183943
2.340	4.914404	-0.982304	743.415209	1.440763	4.298704	0.168639	-0.578237	0.193803
2.350	4.892198	-0.961735	743.406719	1.496272	4.389670	0.151247	-0.590480	0.201272
2.360	4.855613	-0.962900	743.428670	1.534551	4.479181	0.135451	-0.602503	0.206415
2.370	4.815660	-0.978801	743.488541	1.557812	4.564496	0.121293	-0.613930	0.209527
