Time[s]	Fx[N]	Fy[N]	Fz[N]	Mx[Nm]	My[Nm]	Mz[Nm]	COPx[cm]	COPy[cm]
0.010	0.450195	-2.056927	654.633874	5.683598	-3.662741	0.407680	0.559510	0.868210
0.020	0.602633	-2.083791	652.697935	5.587960	-4.024631	0.423629	0.616615	0.856133
0.030	0.795267	-2.116755	650.851264	5.498109	-4.390610	0.438713	0.674595	0.844757
0.040	1.054739	-2.161801	649.157170	5.419593	-4.761373	0.452635	0.733470	0.834866
0.050	1.385985	-2.223146	647.646831	5.357100	-5.133375	0.465915	0.792619	0.827164
0.060	1.769590	-2.302849	646.317334	5.314535	-5.498766	0.479373	0.850784	0.822279
0.070	2.166147	-2.400024	645.143322	5.295227	-5.846866	0.493325	0.906289	0.820783
0.080	2.526566	-2.509681	644.099856	5.301823	-6.166703	0.507047	0.957414	0.823137
0.090	2.805665	-2.621950	643.188170	5.335819	-6.449789	0.518847	1.002784	0.829589
0.100	2.975173	-2.722554	642.452470	5.397003	-6.692148	0.526796	1.041656	0.840063
0.110	3.031834	-2.794699	641.977733	5.483226	-6.894890	0.529742	1.074008	0.854115
0.120	2.997589	-2.821853	641.865624	5.590756	-7.063203	0.528124	1.100418	0.871017
0.130	2.911613	-2.790812	642.195331	5.715211	-7.204162	0.524195	1.121802	0.889949
0.140	2.817104	-2.694847	642.983993	5.852810	-7.324128	0.521500	1.139084	0.910258
0.150	2.747468	-2.536590	644.163783	6.001468	-7.426506	0.523754	1.152891	0.931668
0.160	2.716507	-2.329479	645.587884	6.161302	-7.510586	0.533475	1.163372	0.954371
0.170	2.715624	-2.096130	647.066861	6.334353	-7.571998	0.550907	1.170203	0.978933
0.180	2.718628	-1.863101	648.423738	6.523674	-7.604843	0.573719	1.172820	1.006082
0.190	2.692249	-1.653537	649.546394	6.732103	-7.604908	0.597635	1.170803	1.036431
0.200	2.608787	-1.480567	650.416021	6.961066	-7.572775	0.617743	1.164297	1.070248
0.210	2.456699	-1.344021	651.101201	7.209669	-7.515498	0.629979	1.154275	1.107304
0.220	2.245526	-1.231452	651.721921	7.474359	-7.446000	0.632322	1.142512	1.146863
0.230	2.003469	-1.122874	652.398677	7.749430	-7.380313	0.625318	1.131258	1.187837
0.240	1.768607	-0.997633	653.205414	8.028375	-7.333675	0.611780	1.122721	1.229073
0.250	1.577019	-0.841284	654.142429	8.305649	-7.317017	0.595716	1.118566	1.269700
0.260	1.451907	-0.650234	655.137553	8.578143	-7.335070	0.580881	1.119623	1.309365
0.270	1.397142	-0.432622	656.072820	8.845715	-7.386537	0.569518	1.125872	1.348283
0.280	1.397194	-0.205350	656.823614	9.110488	-7.465936	0.561771	1.136673	1.387052
0.290	1.423490	0.011403	657.293598	9.375088	-7.566149	0.555923	1.151106	1.426317
0.300	1.445213	0.200202	657.433841	9.640556	-7.680730	0.549248	1.168289	1.466392
0.310	1.440879	0.351099	657.244757	9.904952	-7.805308	0.539074	1.187580	1.507042
0.320	1.406511	0.463912	656.766999	10.163421	-7.937923	0.523723	1.208636	1.547493
0.330	1.357316	0.547485	656.067886	10.409610	-8.078530	0.503060	1.231356	1.586667
0.340	1.322252	0.616019	655.226078	10.637509	-8.228032	0.478519	1.255755	1.623487
0.350	1.333676	0.683496	654.314915	10.842665	-8.387157	0.452610	1.281823	1.657102
0.360	1.416060	0.758092	653.386906	11.022294	-8.555431	0.428118	1.309397	1.686947
0.370	1.577757	0.838769	652.464803	11.174649	-8.730461	0.407304	1.338074	1.712682
0.380	1.808324	0.915528	651.543430	11.298380	-8.907624	0.391404	1.367157	1.734095
0.390	2.081792	0.973321	650.600970	11.392542	-9.080180	0.380549	1.395660	1.751080
0.400	2.364113	0.998100	649.614241	11.457346	-9.239834	0.373998	1.422357	1.763715
0.410	2.621728	0.982555	648.573277	11.495223	-9.377811	0.370513	1.445914	1.772386
0.420	2.828310	0.929273	647.493602	11.511561	-9.486431	0.368755	1.465100	1.777865
0.430	2.968248	0.850176	646.425372	11.514685	-9.560905	0.367654	1.479042	1.781286
0.440	3.037298	0.762572	645.456532	11.514934	-9.600787	0.366717	1.487441	1.783998
0.450	3.041533	0.683479	644.705667	11.523060	-9.610414	0.366177	1.490667	1.787337
0.460	2.995190	0.624399	644.302216	11.548349	-9.598002	0.366895	1.489674	1.792381
0.470	2.917222	0.588466	644.356985	11.596953	-9.573600	0.370026	1.485760	1.799771
0.480	2.826477	0.570788	644.931407	11.670804	-9.546691	0.376534	1.480265	1.809619
0.490	2.736365	0.561566	646.016154	11.767363	-9.524356	0.386717	1.474322	1.821528
0.500	2.650865	0.550668	647.527008	11.880364	-9.510539	0.399912	1.468748	1.834729
0.510	2.563864	0.532122	649.319842	12.001611	-9.506349	0.414529	1.464047	1.848336
0.520	2.462822	0.507031	651.219675	12.123527	-9.510900	0.428459	1.460475	1.861665
0.530	2.335895	0.483847	653.054168	12.241740	-9.522230	0.439758	1.458107	1.874537
0.540	2.179835	0.475639	654.681826	12.356766	-9.538106	0.447315	1.456907	1.887446
0.550	2.005275	0.495320	656.009104	12.474127	-9.556721	0.451263	1.456797	1.901517
0.560	1.836712	0.550876	656.995483	12.602806	-9.577311	0.452962	1.457744	1.918249
0.570	1.706654	0.642715	657.648188	12.752502	-9.600573	0.454582	1.459834	1.939107
0.580	1.645912	0.763927	658.008316	12.930533	-9.628663	0.458442	1.463304	1.965102
0.590	1.673673	0.902747	658.130169	13.139321	-9.664567	0.466234	1.468489	1.996462
0.600	1.791163	1.046018	658.057270	13.375246	-9.710937	0.478358	1.475698	2.032535
0.610	1.981262	1.182795	657.801550	13.629248	-9.768783	0.493597	1.485065	2.071939
0.620	2.214094	1.307412	657.333516	13.888886	-9.836476	0.509328	1.496421	2.112913
0.630	2.456110	1.421105	656.588319	14.141046	-9.909384	0.522285	1.509223	2.153716
0.640	2.678647	1.531263	655.486752	14.374369	-9.980110	0.529622	1.522550	2.192930
0.650	2.862433	1.648087	653.965247	14.580875	-10.039117	0.529883	1.535115	2.229610
0.660	2.996851	1.779706	652.007289	14.756786	-10.075639	0.523521	1.545326	2.263285
0.670	3.075668	1.927855	649.668881	14.902808	-10.079041	0.512776	1.551412	2.293908
0.680	3.092695	2.086230	647.091229	15.024067	-10.040772	0.500939	1.551678	2.321785
0.690	3.040449	2.242386	644.495171	15.129577	-9.956661	0.491246	1.544877	2.347508
0.700	2.912728	2.382173	642.155163	15.230901	-9.828806	0.485709	1.530597	2.371841
0.710	2.709443	2.494633	640.355535	15.339782	-9.666133	0.484318	1.509495	2.395510
0.720	2.440529	2.575487	639.337207	15.465156	-9.483051	0.484959	1.483263	2.418936
0.730	2.126132	2.628303	639.247951	15.610558	-9.296386	0.484206	1.454269	2.442019
0.740	1.792141	2.663215	640.111271	15.773028	-9.121567	0.478760	1.424997	2.464107
0.750	1.462497	2.693589	641.824905	15.943969	-8.969432	0.466995	1.397489	2.484162
0.760	1.151561	2.731629	644.189509	16.111544	-8.844756	0.449980	1.373005	2.501057
0.770	0.860337	2.784433	646.956446	16.263670	-8.746799	0.431500	1.351992	2.513874
0.780	0.579044	2.851909	649.877598	16.390713	-8.671329	0.417004	1.334302	2.522123
0.790	0.295641	2.926977	652.742231	16.487286	-8.613176	0.411821	1.319537	2.525849
0.800	0.006817	2.997532	655.393746	16.552794	-8.568491	0.419312	1.307381	2.525626
0.810	-0.273705	3.049290	657.727602	16.590646	-8.536238	0.439702	1.297838	2.522419
0.820	-0.513875	3.068803	659.676854	16.606457	-8.518711	0.470005	1.291346	2.517362
0.830	-0.670379	3.046137	661.193155	16.605986	-8.520923	0.504983	1.288719	2.511518
0.840	-0.701941	2.976909	662.230659	16.593752	-8.548923	0.538724	1.290928	2.505736
0.850	-0.584228	2.863609	662.739084	16.572803	-8.607456	0.566257	1.298770	2.500653
0.860	-0.320970	2.716193	662.669417	16.545414	-8.697785	0.584738	1.312538	2.496782
0.870	0.053216	2.551593	661.991105	16.513925	-8.816598	0.593860	1.331830	2.494584
0.880	0.480241	2.391440	660.714410	16.481040	-8.956529	0.595425	1.355582	2.494427
0.890	0.894526	2.257846	658.907863	16.449413	-9.108148	0.592259	1.382310	2.496466
0.900	1.242419	2.168294	656.701329	16.420880	-9.262632	0.586930	1.410479	2.500510
0.910	1.497975	2.131573	654.271109	16.395887	-9.414008	0.580801	1.438854	2.505977
0.920	1.668880	2.146306	651.811589	16.373499	-9.560055	0.573874	1.466690	2.511999
0.930	1.789962	2.202245	649.503338	16.351983	-9.701505	0.565459	1.493681	2.517613
0.940	1.906764	2.283344	647.487800	16.329512	-9.840004	0.555234	1.519720	2.521980
0.950	2.055732	2.371216	645.854815	16.304513	-9.975860	0.544007	1.544598	2.524486
0.960	2.248893	2.448017	644.643253	16.275459	-10.106638	0.533651	1.567788	2.524723
0.970	2.468874	2.498637	643.850001	16.240512	-10.227039	0.526249	1.588420	2.522406
0.980	2.675779	2.512373	643.441238	16.197647	-10.329918	0.522996	1.605417	2.517347
0.990	2.822733	2.484010	643.363062	16.145503	-10.407922	0.523524	1.617737	2.509548
1.000	2.873929	2.413900	643.552690	16.084557	-10.455278	0.526039	1.624619	2.499338
1.010	2.818347	2.306783	643.952178	16.017773	-10.469246	0.528088	1.625780	2.487417
1.020	2.674030	2.169894	644.523044	15.950191	-10.450844	0.527516	1.621485	2.474728
1.030	2.481307	2.011541	645.255810	15.887540	-10.404642	0.523157	1.612483	2.462208
1.040	2.287733	1.841193	646.168138	15.834562	-10.337688	0.515042	1.599845	2.450533
1.050	2.130889	1.670780	647.289977	15.793866	-10.257920	0.504176	1.584749	2.439999
1.060	2.025989	1.515573	648.640643	15.765816	-10.172630	0.492048	1.568300	2.430593
1.070	1.962904	1.392978	650.206868	15.749400	-10.087519	0.480077	1.551432	2.422214
1.080	1.912976	1.319001	651.931303	15.743506	-10.006578	0.469203	1.534913	2.414903
1.090	1.841836	1.303688	653.717244	15.747722	-9.932575	0.459724	1.519399	2.408950
1.100	1.722423	1.347459	655.448021	15.762046	-9.867706	0.451365	1.505490	2.404774
1.110	1.543413	1.439849	657.011972	15.785630	-9.814071	0.443506	1.493743	2.402640
1.120	1.311461	1.561296	658.321361	15.815486	-9.773916	0.435507	1.484673	2.402396
1.130	1.048770	1.687455	659.318063	15.846159	-9.749736	0.427009	1.478761	2.403416
1.140	0.788710	1.794698	659.966902	15.870681	-9.744277	0.418089	1.476480	2.404769
1.150	0.571151	1.865177	660.244230	15.882309	-9.760332	0.409161	1.478291	2.405520
1.160	0.437203	1.890135	660.131218	15.876184	-9.800179	0.400658	1.484580	2.405004
1.170	0.422058	1.870703	659.617675	15.850341	-9.864751	0.392698	1.495526	2.402959
1.180	0.545604	1.816136	658.714563	15.805925	-9.952858	0.384963	1.510952	2.399511
1.190	0.803047	1.740278	657.466376	15.746719	-10.060795	0.376893	1.530237	2.395061
1.200	1.160085	1.657501	655.953393	15.678173	-10.182552	0.368153	1.552329	2.390135
1.210	1.557106	1.579295	654.279782	15.606221	-10.310620	0.359142	1.575873	2.385252
1.220	1.923595	1.512221	652.552320	15.536125	-10.437240	0.351198	1.599449	2.380824
1.230	2.198830	1.457463	650.859675	15.471596	-10.555806	0.346269	1.621825	2.377102
1.240	2.351024	1.411944	649.261258	15.414364	-10.662056	0.346122	1.642183	2.374139
1.250	2.386871	1.370620	647.789668	15.364269	-10.754647	0.351495	1.660207	2.371799
1.260	2.347277	1.329238	646.464746	15.319811	-10.834770	0.361671	1.676003	2.369783
1.270	2.290947	1.286603	645.311965	15.278862	-10.904800	0.374695	1.689849	2.367671
1.280	2.272488	1.245499	644.375370	15.239160	-10.966504	0.388078	1.701881	2.364951
1.290	2.323743	1.211776	643.717700	15.198345	-11.019677	0.399644	1.711880	2.361026
1.300	2.445365	1.191663	643.407224	15.153658	-11.061879	0.408188	1.719266	2.355220
1.310	2.611084	1.188036	643.497871	15.101686	-11.089357	0.413741	1.723293	2.346812
1.320	2.781622	1.197081	644.011376	15.038560	-11.098572	0.417391	1.723350	2.335139
1.330	2.921354	1.207036	644.927105	14.960688	-11.087550	0.420767	1.719194	2.319749
1.340	3.010273	1.200132	646.180987	14.865788	-11.056511	0.425392	1.711055	2.300561
1.350	3.046819	1.157445	647.672814	14.753778	-11.007686	0.432130	1.699575	2.277968
1.360	3.042043	1.064899	649.281063	14.627191	-10.944569	0.440910	1.685644	2.252829
1.370	3.009611	0.918138	650.883706	14.490984	-10.870989	0.450788	1.670189	2.226355
1.380	2.957401	0.724623	652.380591	14.351733	-10.790385	0.460294	1.654002	2.199902
1.390	2.884724	0.502577	653.709622	14.216298	-10.705559	0.467907	1.637663	2.174711
1.400	2.785903	0.277290	654.849251	14.090182	-10.618931	0.472487	1.621584	2.151668
1.410	2.657704	0.075912	655.805311	13.976162	-10.533019	0.473516	1.606120	2.131145
1.420	2.506323	-0.077928	656.588346	13.873841	-10.450793	0.471107	1.591681	2.113020
1.430	2.349863	-0.168374	657.193108	13.780453	-10.375600	0.465857	1.578775	2.096865
1.440	2.214453	-0.189771	657.590506	13.692529	-10.310597	0.458659	1.567936	2.082227
1.450	2.125327	-0.147033	657.734807	13.607527	-10.257911	0.450537	1.559582	2.068847
1.460	2.096800	-0.054108	657.580644	13.524689	-10.217919	0.442472	1.553866	2.056735
1.470	2.126129	0.069021	657.100793	13.444949	-10.188964	0.435177	1.550594	2.046101
1.480	2.194706	0.199925	656.297518	13.370182	-10.167520	0.428888	1.549224	2.037214
1.490	2.276400	0.317051	655.204933	13.302159	-10.148709	0.423279	1.548937	2.030229
1.500	2.348991	0.402430	653.884350	13.241553	-10.127089	0.417662	1.548758	2.025060
1.510	2.402975	0.443823	652.416862	13.187347	-10.097656	0.411443	1.547731	2.021307
1.520	2.443636	0.436346	650.896360	13.136916	-10.056853	0.404651	1.545077	2.018281
1.530	2.486022	0.383277	649.422968	13.086851	-10.003137	0.398205	1.540312	2.015151
1.540	2.545927	0.295637	648.094411	13.034206	-9.936770	0.393679	1.533229	2.011159
1.550	2.631314	0.190277	646.993746	12.977674	-9.858785	0.392597	1.523784	2.005842
1.560	2.737468	0.086562	646.175712	12.918166	-9.769551	0.395598	1.511903	1.999172
1.570	2.847027	0.002269	645.657636	12.858543	-9.667598	0.401911	1.497326	1.991542
1.580	2.934202	-0.050341	645.421171	12.802587	-9.549417	0.409466	1.479564	1.983602
1.590	2.971440	-0.067221	645.426845	12.753666	-9.410633	0.415680	1.458048	1.976005
1.600	2.936609	-0.053204	645.636827	12.713790	-9.248302	0.418610	1.432431	1.969186
1.610	2.818902	-0.020278	646.036483	12.683631	-9.063273	0.417939	1.402904	1.963300
1.620	2.622013	0.016296	646.644839	12.663493	-8.861320	0.415251	1.370353	1.958338
1.630	2.363467	0.042966	647.507773	12.654512	-8.652235	0.413428	1.336236	1.954341
1.640	2.069788	0.052478	648.674164	12.659180	-8.447222	0.415447	1.302229	1.951547
1.650	1.768740	0.046554	650.162806	12.680726	-8.255802	0.423170	1.269805	1.950392
1.660	1.481595	0.035737	651.933697	12.721713	-8.083593	0.436646	1.239941	1.951381
1.670	1.219080	0.036164	653.876941	12.782720	-7.931716	0.454149	1.213029	1.954912
1.680	0.983061	0.064133	655.824906	12.861876	-7.797771	0.472808	1.189002	1.961175
1.690	0.772797	0.130430	657.583361	12.955457	-7.677786	0.489505	1.167576	1.970162
1.700	0.591732	0.236809	658.971031	13.059190	-7.568334	0.501742	1.148508	1.981755
1.710	0.450604	0.376218	659.856388	13.169506	-7.468105	0.508259	1.131777	1.995814
1.720	0.365124	0.536553	660.182943	13.284051	-7.378466	0.509287	1.117640	2.012177
1.730	0.349842	0.706004	659.976739	13.401206	-7.302960	0.506331	1.106548	2.030557
1.740	0.411771	0.877329	659.332390	13.519020	-7.245991	0.501518	1.098989	2.050410
1.750	0.546836	1.049043	658.379871	13.634300	-7.211194	0.496746	1.095294	2.070887
1.760	0.740159	1.222938	657.242907	13.742442	-7.199933	0.492984	1.095475	2.090923
1.770	0.969244	1.399083	656.005248	13.838109	-7.210293	0.490070	1.099121	2.109451
1.780	1.208514	1.570886	654.698265	13.916422	-7.236780	0.487059	1.105361	2.125624
1.790	1.434046	1.723409	653.313453	13.974051	-7.270819	0.482922	1.112914	2.138950
1.800	1.627756	1.836926	651.832484	14.009734	-7.302009	0.477220	1.120228	2.149284
1.810	1.780329	1.894883	650.260577	14.024182	-7.319957	0.470458	1.125696	2.156702
1.820	1.892145	1.892552	648.648755	14.019629	-7.316352	0.463939	1.127937	2.161359
1.830	1.971693	1.841644	647.096374	13.999383	-7.286681	0.459146	1.126058	2.163415
1.840	2.031458	1.767888	645.734194	13.967428	-7.230916	0.456921	1.119798	2.163030
1.850	2.082264	1.702109	644.695597	13.927894	-7.152813	0.456871	1.109487	2.160383
1.860	2.127910	1.668605	644.086766	13.884270	-7.058101	0.457340	1.095831	2.155652
1.870	2.162337	1.675973	643.965637	13.838510	-6.952302	0.456052	1.079608	2.148952
1.880	2.170797	1.714360	644.335397	13.790516	-6.839027	0.451165	1.061408	2.140270
1.890	2.135020	1.760092	645.152284	13.738391	-6.719367	0.442259	1.041516	2.129480
1.900	2.040590	1.785355	646.341681	13.679428	-6.592621	0.430781	1.019990	2.116439
1.910	1.883775	1.768677	647.813979	13.611305	-6.458000	0.419632	0.996891	2.101113
1.920	1.675193	1.702137	649.474106	13.532844	-6.316362	0.412039	0.972535	2.083662
1.930	1.439017	1.592934	651.224040	13.444055	-6.170981	0.410176	0.947597	2.064429
1.940	1.208055	1.459363	652.962198	13.345609	-6.026883	0.414183	0.923006	2.043856
1.950	1.016363	1.323315	654.584701	13.238094	-5.889178	0.422035	0.899682	2.022365
1.960	0.891763	1.202477	655.990597	13.121344	-5.761361	0.430308	0.878269	2.000234
1.970	0.850336	1.104896	657.089209	12.994014	-5.644479	0.435504	0.859013	1.977511
1.980	0.893837	1.027036	657.806578	12.853471	-5.537329	0.435340	0.841787	1.953989
1.990	1.009697	0.954949	658.090562	12.695998	-5.437185	0.429452	0.826206	1.929217
2.000	1.172783	0.867561	657.917089	12.517300	-5.340468	0.419275	0.811724	1.902565
2.010	1.348920	0.741449	657.299159	12.313303	-5.243231	0.407270	0.797693	1.873318
2.020	1.500914	0.556972	656.295315	12.081237	-5.141674	0.395958	0.783439	1.840823
2.030	1.597033	0.305101	655.009987	11.820895	-5.032907	0.387216	0.768371	1.804689
2.040	1.619790	-0.006944	653.579447	11.535743	-4.915732	0.382015	0.752125	1.765010
2.050	1.571227	-0.354144	652.144608	11.233341	-4.790939	0.380512	0.734644	1.722523
2.060	1.471638	-0.698244	650.820651	10.924622	-4.660715	0.382280	0.716129	1.678592
2.070	1.351469	-0.998002	649.676881	10.621924	-4.527316	0.386591	0.696857	1.634955
2.080	1.239384	-1.221828	648.735158	10.336270	-4.391665	0.392720	0.676958	1.593296
2.090	1.151233	-1.358043	647.984796	10.074726	-4.252480	0.400253	0.656262	1.554778
2.100	1.084043	-1.418582	647.403497	9.838871	-4.106190	0.409260	0.634255	1.519743
2.110	1.017140	-1.434432	646.973801	9.625151	-3.947513	0.420167	0.610150	1.487719
2.120	0.920153	-1.444348	646.691010	9.427176	-3.770609	0.433292	0.583062	1.457756
2.130	0.765689	-1.481071	646.564855	9.239138	-3.570687	0.448200	0.552255	1.428958
2.140	0.542789	-1.560313	646.618624	9.058819	-3.345830	0.463281	0.517435	1.400952
2.150	0.266286	-1.676583	646.887009	8.888754	-3.098530	0.475870	0.478991	1.374081
2.160	-0.022475	-1.807117	647.411139	8.734982	-2.836307	0.482969	0.438100	1.349217
2.170	-0.265662	-1.921803	648.228358	8.604102	-2.570918	0.482312	0.396607	1.327326
2.180	-0.407552	-1.994708	649.356474	8.500224	-2.316125	0.473339	0.356680	1.309023
2.190	-0.415298	-2.012550	650.776429	8.423425	-2.084632	0.457626	0.320330	1.294365
2.200	-0.293366	-1.977363	652.420460	8.370235	-1.885138	0.438584	0.288945	1.282951
2.210	-0.084943	-1.903537	654.171596	8.335410	-1.720453	0.420501	0.262997	1.274193
2.220	0.141133	-1.811632	655.875943	8.313787	-1.587204	0.407273	0.241998	1.267585
2.230	0.313085	-1.721918	657.365071	8.301391	-1.477200	0.401319	0.224715	1.262828
2.240	0.379608	-1.649640	658.483626	8.295760	-1.379980	0.403039	0.209569	1.259828
2.250	0.325088	-1.602599	659.115909	8.295685	-1.285731	0.410935	0.195069	1.258608
2.260	0.171538	-1.580822	659.204817	8.300611	-1.187614	0.422278	0.180159	1.259185
2.270	-0.032306	-1.577951	658.758187	8.309910	-1.082755	0.434048	0.164363	1.261451
2.280	-0.229496	-1.583993	657.841507	8.322382	-0.971660	0.443835	0.147704	1.265104
2.290	-0.373757	-1.588721	656.560536	8.336280	-0.856540	0.450427	0.130459	1.269689
2.300	-0.442520	-1.584471	655.040015	8.349938	-0.739425	0.453912	0.112882	1.274722
2.310	-0.440827	-1.567153	653.403957	8.362779	-0.620912	0.455285	0.095027	1.279879
2.320	-0.396314	-1.535299	651.760488	8.376269	-0.499808	0.455798	0.076686	1.285176
2.330	-0.348217	-1.488188	650.192668	8.394217	-0.373485	0.456345	0.057442	1.291035
2.340	-0.334731	-1.424652	648.756746	8.421942	-0.238610	0.457207	0.036780	1.298166
2.350	-0.382679	-1.343531	647.488886	8.464424	-0.092042	0.458226	0.014215	1.307269
2.360	-0.501732	-1.245538	646.419076	8.524353	0.068208	0.459220	-0.010552	1.318704
2.370	-0.683342	-1.135265	645.587543	8.601235	0.242063	0.460303	-0.037495	1.332311
2.380	-0.903406	-1.021799	645.056252	8.692152	0.426717	0.461898	-0.066152	1.347503
2.390	-1.127792	-0.917030	644.907931	8.793709	0.616551	0.464451	-0.095603	1.363560
2.400	-1.320444	-0.831976	645.229309	8.903898	0.803830	0.468113	-0.124580	1.379959
2.410	-1.453495	-0.772720	646.083451	9.022705	0.980073	0.472648	-0.151695	1.396523
