Time[s]	Fx[N]	Fy[N]	Fz[N]	Mx[Nm]	My[Nm]	Mz[Nm]	COPx[cm]	COPy[cm]
0.010	6.678328	3.805724	579.633039	-5.210296	-4.663448	-0.159115	0.804552	-0.898896
0.020	6.661676	3.565967	580.360090	-5.502775	-4.663632	-0.098736	0.803576	-0.948166
0.030	6.664588	3.327554	580.869041	-5.790520	-4.651810	-0.044275	0.800836	-0.996872
0.040	6.697322	3.091939	580.987855	-6.071744	-4.618080	-0.000021	0.794867	-1.045072
0.050	6.751939	2.857720	580.614599	-6.351340	-4.555167	0.032351	0.784542	-1.093899
0.060	6.804860	2.620461	579.732775	-6.641258	-4.459160	0.053783	0.769175	-1.145572
0.070	6.826620	2.373760	578.407764	-6.958281	-4.329188	0.067250	0.748467	-1.203006
0.080	6.793320	2.111228	576.763375	-7.319701	-4.165970	0.077045	0.722301	-1.269099
0.090	6.693607	1.827888	574.946986	-7.738252	-3.969799	0.088125	0.690464	-1.345907
0.100	6.528025	1.519743	573.099585	-8.218085	-3.739140	0.105324	0.652442	-1.433972
0.110	6.302434	1.181721	571.345425	-8.753223	-3.470880	0.132281	0.607492	-1.532037
0.120	6.020742	0.805669	569.804491	-9.328775	-3.162523	0.170243	0.555019	-1.637189
0.130	5.682316	0.380404	568.616389	-9.923931	-2.815422	0.217212	0.495135	-1.745277
0.140	5.286035	-0.105012	567.955613	-10.515326	-2.437467	0.267956	0.429165	-1.851435
0.150	4.838173	-0.655005	568.020358	-11.079959	-2.043678	0.315103	0.359790	-1.950627
0.160	4.358244	-1.260092	568.989456	-11.597638	-1.653994	0.351074	0.290690	-2.038287
0.170	3.877880	-1.891605	570.959024	-12.053211	-1.288852	0.370159	0.225735	-2.111047
0.180	3.432415	-2.502225	573.883948	-12.438413	-0.964274	0.369994	0.168026	-2.167409
0.190	3.049997	-3.034309	577.551530	-12.752728	-0.688526	0.351939	0.119215	-2.208068
0.200	2.744879	-3.434325	581.602763	-13.002655	-0.461618	0.320363	0.079370	-2.235659
0.210	2.518621	-3.668088	585.596363	-13.199255	-0.277482	0.281232	0.047384	-2.253985
0.220	2.367395	-3.730529	589.092649	-13.354707	-0.127370	0.240562	0.021621	-2.266996
0.230	2.289619	-3.646118	591.728130	-13.479121	-0.002762	0.203224	0.000467	-2.277925
0.240	2.288360	-3.460375	593.260103	-13.578845	0.103309	0.172356	-0.017414	-2.288852
0.250	2.366891	-3.226687	593.577402	-13.656768	0.196553	0.149312	-0.033113	-2.300756
0.260	2.520517	-2.993694	592.687663	-13.714108	0.282664	0.133929	-0.047692	-2.313885
0.270	2.730151	-2.796911	590.695511	-13.752485	0.368571	0.124897	-0.062396	-2.328185
0.280	2.961765	-2.655550	587.780973	-13.775068	0.462978	0.120151	-0.078767	-2.343572
0.290	3.172143	-2.573534	584.180180	-13.786256	0.575871	0.117221	-0.098578	-2.359932
0.300	3.317960	-2.542981	580.167532	-13.790238	0.717145	0.113467	-0.123610	-2.376941
0.310	3.364473	-2.548609	576.040619	-13.789391	0.894645	0.106154	-0.155309	-2.393823
0.320	3.291662	-2.571982	572.110370	-13.783686	1.111967	0.092527	-0.194362	-2.409270
0.330	3.097735	-2.595138	568.694277	-13.771757	1.366461	0.070087	-0.240280	-2.421645
0.340	2.800455	-2.603718	566.103392	-13.753374	1.648216	0.037201	-0.291151	-2.429481
0.350	2.435736	-2.589784	564.613032	-13.731976	1.940959	-0.006121	-0.343768	-2.432104
0.360	2.052085	-2.553799	564.416575	-13.715595	2.225254	-0.057653	-0.394257	-2.430048
0.370	1.700330	-2.504436	565.575918	-13.715194	2.483174	-0.112968	-0.439052	-2.424996
0.380	1.420670	-2.455175	567.990695	-13.740836	2.702630	-0.166265	-0.475823	-2.419201
0.390	1.231597	-2.418438	571.404213	-13.797382	2.879488	-0.211776	-0.503932	-2.414645
0.400	1.125781	-2.399966	575.448851	-13.881785	3.016635	-0.245241	-0.524223	-2.412340
0.410	1.075730	-2.396386	579.715997	-13.983405	3.120531	-0.264873	-0.538286	-2.412113
0.420	1.047897	-2.397147	583.825335	-14.087349	3.196798	-0.271481	-0.547561	-2.412939
0.430	1.019785	-2.389612	587.470714	-14.179371	3.246778	-0.267796	-0.552671	-2.413630
0.440	0.992674	-2.364688	590.433168	-14.250133	3.266543	-0.257264	-0.553245	-2.413505
0.450	0.993902	-2.320529	592.568048	-14.297133	3.248813	-0.242801	-0.548260	-2.412741
0.460	1.066757	-2.263013	593.782981	-14.323914	3.186892	-0.225955	-0.536710	-2.412315
0.470	1.251424	-2.203256	594.022105	-14.337290	3.078843	-0.206811	-0.518304	-2.413595
0.480	1.564896	-2.153601	593.263424	-14.343910	2.930113	-0.184621	-0.493898	-2.417798
0.490	1.988788	-2.123869	591.527476	-14.347430	2.753678	-0.158843	-0.465520	-2.425488
0.500	2.470623	-2.119076	588.891116	-14.347301	2.567873	-0.130103	-0.436052	-2.436325
0.510	2.937913	-2.138921	585.499558	-14.339702	2.392849	-0.100660	-0.408685	-2.449140
0.520	3.318812	-2.178665	581.570825	-14.320354	2.246771	-0.074106	-0.386328	-2.462358
0.530	3.561351	-2.230824	577.388603	-14.287998	2.142590	-0.054326	-0.371083	-2.474590
0.540	3.645142	-2.287148	573.281932	-14.246814	2.085948	-0.044096	-0.363861	-2.485132
0.550	3.583205	-2.340563	569.592976	-14.206572	2.074520	-0.043897	-0.364211	-2.494162
0.560	3.415082	-2.386715	566.637722	-14.180408	2.098970	-0.051536	-0.370425	-2.502553
0.570	3.194806	-2.424634	564.667665	-14.181160	2.145338	-0.062713	-0.379929	-2.511417
0.580	2.977901	-2.455945	563.841138	-14.217636	2.198230	-0.072322	-0.389867	-2.521568
0.590	2.810586	-2.482702	564.210041	-14.291957	2.243863	-0.075978	-0.397700	-2.533092
0.600	2.722733	-2.504945	565.723037	-14.398589	2.272057	-0.071271	-0.401620	-2.545166
0.610	2.725051	-2.519584	568.241592	-14.525024	2.276758	-0.058415	-0.400667	-2.556135
0.620	2.810623	-2.521397	571.561458	-14.653697	2.255267	-0.040030	-0.394580	-2.563801
0.630	2.960532	-2.505407	575.431394	-14.764740	2.206857	-0.020062	-0.383513	-2.565856
0.640	3.152166	-2.468927	579.564807	-14.839142	2.131618	-0.002194	-0.367796	-2.560394
0.650	3.367224	-2.411840	583.646518	-14.861748	2.030237	0.011546	-0.347854	-2.546361
0.660	3.595786	-2.334851	587.341549	-14.823331	1.904897	0.021313	-0.324325	-2.523801
0.670	3.834409	-2.236735	590.313655	-14.721285	1.760774	0.028962	-0.298278	-2.493807
0.680	4.079846	-2.112339	592.258442	-14.559047	1.607028	0.036934	-0.271339	-2.458225
0.690	4.323170	-1.952877	592.949527	-14.344782	1.456231	0.047157	-0.245591	-2.419225
0.700	4.549195	-1.749065	592.287049	-14.089771	1.321952	0.060385	-0.223194	-2.378875
0.710	4.742462	-1.496107	590.330464	-13.806794	1.215332	0.076048	-0.205873	-2.338825
0.720	4.895968	-1.198234	587.298737	-13.508732	1.142188	0.092476	-0.194482	-2.300147
0.730	5.016124	-0.870374	583.532762	-13.207644	1.102117	0.107351	-0.188870	-2.263394
0.740	5.119561	-0.535903	579.430331	-12.914464	1.090151	0.118314	-0.188142	-2.228821
0.750	5.222913	-0.221489	575.373822	-12.639162	1.100306	0.123601	-0.191233	-2.196687
0.760	5.331166	0.048660	571.670922	-12.390916	1.129538	0.122487	-0.197585	-2.167491
0.770	5.430623	0.257045	568.521560	-12.177785	1.180517	0.115369	-0.207647	-2.142009
0.780	5.489650	0.394859	566.014385	-12.005717	1.262254	0.103433	-0.223007	-2.121097
0.790	5.466678	0.462279	564.148257	-11.877209	1.388474	0.088078	-0.246119	-2.105335
0.800	5.322468	0.468183	562.870193	-11.790222	1.574371	0.070315	-0.279704	-2.094661
0.810	5.032560	0.429750	562.119817	-11.738054	1.832714	0.050406	-0.326036	-2.088177
0.820	4.596088	0.371155	561.869606	-11.710745	2.170260	0.027887	-0.386257	-2.084246
0.830	4.038263	0.319872	562.150074	-11.698183	2.585162	0.001958	-0.459870	-2.080972
0.840	3.405698	0.300048	563.051569	-11.694285	3.065832	-0.027919	-0.544503	-2.076947
0.850	2.755959	0.324614	564.700226	-11.700764	3.591481	-0.061415	-0.635998	-2.072031
0.860	2.144723	0.389531	567.213322	-11.728502	4.134357	-0.096983	-0.728889	-2.067741
0.870	1.614815	0.473247	570.645832	-11.795129	4.663362	-0.131910	-0.817208	-2.066979
0.880	1.190564	0.542349	574.942689	-11.918951	5.148479	-0.162773	-0.895477	-2.073068
0.890	0.878708	0.561838	579.909848	-12.111172	5.565142	-0.186120	-0.959656	-2.088458
0.900	0.674217	0.506663	585.213733	-12.369464	5.897577	-0.199160	-1.007765	-2.113666
0.910	0.567460	0.370645	590.413531	-12.675613	6.140234	-0.200312	-1.039989	-2.146904
0.920	0.549229	0.169691	595.022812	-12.998312	6.296978	-0.189564	-1.058275	-2.184507
0.930	0.612220	-0.061792	598.586689	-13.300053	6.378483	-0.168590	-1.065590	-2.221909
0.940	0.749956	-0.280074	600.753588	-13.545594	6.398975	-0.140565	-1.065158	-2.254767
0.950	0.954739	-0.443919	601.322196	-13.709246	6.373617	-0.109684	-1.059934	-2.279850
0.960	1.215159	-0.525314	600.254928	-13.779113	6.317290	-0.080476	-1.052434	-2.295544
0.970	1.512929	-0.515754	597.663640	-13.757806	6.244540	-0.057047	-1.044825	-2.301931
0.980	1.820025	-0.426326	593.782485	-13.660247	6.169598	-0.042332	-1.039033	-2.300547
0.990	2.098918	-0.282186	588.940890	-13.509672	6.105513	-0.037535	-1.036694	-2.293893
1.000	2.308475	-0.113977	583.539379	-13.332894	6.062321	-0.041928	-1.038888	-2.284832
1.010	2.414776	0.050577	578.021564	-13.155804	6.045230	-0.053114	-1.045848	-2.276006
1.020	2.402357	0.192206	572.834517	-12.999855	6.054038	-0.067696	-1.056856	-2.269391
1.030	2.280191	0.301547	568.377312	-12.879949	6.084469	-0.082137	-1.070498	-2.266091
1.040	2.078966	0.377041	564.947935	-12.803756	6.131105	-0.093599	-1.085251	-2.266360
1.050	1.840240	0.421192	562.705030	-12.772276	6.190815	-0.100600	-1.100188	-2.269800
1.060	1.601581	0.437271	561.659064	-12.781302	6.265254	-0.103397	-1.115491	-2.275634
1.070	1.383563	0.427785	561.698073	-12.823376	6.361338	-0.104059	-1.132519	-2.282966
1.080	1.183787	0.394964	562.640023	-12.889806	6.489305	-0.106108	-1.153367	-2.290951
1.090	0.980297	0.342602	564.293310	-12.972494	6.658790	-0.113709	-1.180023	-2.298892
1.100	0.742887	0.278057	566.504806	-13.065565	6.873988	-0.130448	-1.213403	-2.306347
1.110	0.447724	0.212897	569.182015	-13.166674	7.129384	-0.158075	-1.252567	-2.313263
1.120	0.089951	0.161171	572.287049	-13.277568	7.407516	-0.195635	-1.294371	-2.320089
1.130	-0.309641	0.135644	575.808341	-13.403237	7.679866	-0.239390	-1.333754	-2.327725
1.140	-0.705273	0.143716	579.719288	-13.549460	7.911073	-0.283542	-1.364639	-2.337245
1.150	-1.033593	0.185012	583.934346	-13.719352	8.065565	-0.321538	-1.381245	-2.349468
1.160	-1.226233	0.251644	588.275232	-13.910317	8.114834	-0.347510	-1.379428	-2.364593
1.170	-1.225255	0.330877	592.460137	-14.112809	8.043405	-0.357540	-1.357628	-2.382069
1.180	-0.998207	0.408895	596.123351	-14.311607	7.852050	-0.350506	-1.317185	-2.400779
1.190	-0.548558	0.473940	598.862688	-14.489162	7.557686	-0.328408	-1.262007	-2.419446
1.200	0.082307	0.517564	600.303671	-14.629827	7.190151	-0.296116	-1.197752	-2.437071
1.210	0.822794	0.534121	600.166747	-14.723611	6.786575	-0.260541	-1.130782	-2.453253
1.220	1.586373	0.519801	598.325217	-14.768508	6.384490	-0.229348	-1.067060	-2.468308
1.230	2.289996	0.472467	594.843192	-14.771002	6.015126	-0.209354	-1.011212	-2.483176
1.240	2.870840	0.392626	589.983896	-14.744827	5.698524	-0.204918	-0.965878	-2.499191
1.250	3.296963	0.284932	584.181632	-14.708331	5.441759	-0.216768	-0.931518	-2.517767
1.260	3.568502	0.159078	577.978650	-14.680999	5.240785	-0.241764	-0.906744	-2.540059
1.270	3.708723	0.028994	571.940143	-14.680031	5.085186	-0.273858	-0.889112	-2.566708
1.280	3.748498	-0.090113	566.570296	-14.718053	4.964066	-0.305957	-0.876161	-2.597745
1.290	3.711236	-0.186261	562.252614	-14.802669	4.870792	-0.331969	-0.866300	-2.632744
1.300	3.605187	-0.255198	559.227069	-14.937730	4.804746	-0.348255	-0.859176	-2.671139
1.310	3.426328	-0.303047	557.601447	-15.125323	4.769617	-0.354066	-0.855381	-2.712569
1.320	3.169750	-0.345536	557.382597	-15.367132	4.769331	-0.350979	-0.855666	-2.757017
1.330	2.843183	-0.403563	558.509144	-15.664155	4.803830	-0.341708	-0.860117	-2.804637
1.340	2.474882	-0.496564	560.871113	-16.014876	4.866683	-0.328830	-0.867701	-2.855358
1.350	2.110759	-0.636485	564.311813	-16.413210	4.945446	-0.313899	-0.876368	-2.908536
1.360	1.801204	-0.824907	568.618535	-16.847867	5.024188	-0.297238	-0.883578	-2.962947
1.370	1.583769	-1.054059	573.515591	-17.303887	5.086775	-0.278265	-0.886946	-3.017161
1.380	1.470372	-1.310380	578.672290	-17.765659	5.119467	-0.256047	-0.884692	-3.070073
1.390	1.445686	-1.578340	583.730122	-18.219919	5.112044	-0.229740	-0.875755	-3.121292
1.400	1.477958	-1.842786	588.342280	-18.657361	5.057625	-0.198820	-0.859640	-3.171175
1.410	1.537259	-2.089524	592.211463	-19.072332	4.951970	-0.163147	-0.836183	-3.220527
1.420	1.612403	-2.305120	595.113272	-19.461117	4.793140	-0.123013	-0.805416	-3.270153
1.430	1.718306	-2.477353	596.901269	-19.820054	4.581897	-0.079208	-0.767614	-3.320491
1.440	1.890099	-2.597232	597.499839	-20.144755	4.322543	-0.033041	-0.723438	-3.371508
1.450	2.166464	-2.662427	596.895423	-20.430966	4.023434	0.013806	-0.674060	-3.422872
1.460	2.569788	-2.680811	595.133673	-20.676553	3.696649	0.059630	-0.621146	-3.474270
1.470	3.092330	-2.672175	592.322951	-20.883496	3.356795	0.103151	-0.566717	-3.525694
1.480	3.694620	-2.666302	588.638826	-21.058694	3.019394	0.143839	-0.512945	-3.577524
1.490	4.316086	-2.696881	584.322630	-21.213006	2.699311	0.181966	-0.461956	-3.630358
1.500	4.892053	-2.792573	579.669109	-21.358781	2.409466	0.218306	-0.415662	-3.684651
1.510	5.369327	-2.968049	575.002103	-21.506966	2.160007	0.253659	-0.375652	-3.740328
1.520	5.714987	-3.218265	570.641675	-21.665120	1.958016	0.288431	-0.343125	-3.796624
1.530	5.917513	-3.518598	566.869820	-21.837297	1.807735	0.322458	-0.318898	-3.852260
1.540	5.982557	-3.831712	563.903130	-22.025777	1.711097	0.355092	-0.303438	-3.905951
1.550	5.926701	-4.119383	561.878830	-22.233675	1.668250	0.385472	-0.296906	-3.957023
1.560	5.771863	-4.355092	560.856418	-22.466897	1.677801	0.412854	-0.299150	-4.005820
1.570	5.541785	-4.532494	560.832343	-22.734202	1.736621	0.436863	-0.309651	-4.053654
1.580	5.260831	-4.666575	561.761139	-23.045078	1.839220	0.457513	-0.327402	-4.102291
1.590	4.954210	-4.787475	563.573953	-23.406269	1.977041	0.474885	-0.350804	-4.153185
1.600	4.648330	-4.929914	566.185958	-23.818411	2.138323	0.488626	-0.377672	-4.206818
1.610	4.370194	-5.122307	569.489480	-24.274114	2.308993	0.497610	-0.405450	-4.262434
1.620	4.145128	-5.378875	573.337912	-24.758279	2.474536	0.500150	-0.431602	-4.318270
1.630	3.992817	-5.696457	577.531622	-25.250690	2.622153	0.494817	-0.454028	-4.372174
1.640	3.922645	-6.056299	581.816915	-25.730210	2.742328	0.481498	-0.471339	-4.422390
1.650	3.930512	-6.430108	585.902914	-26.179258	2.829382	0.462083	-0.482910	-4.468190
1.660	3.999367	-6.788721	589.493012	-26.586863	2.881208	0.440309	-0.488760	-4.510123
1.670	4.104137	-7.110782	592.322000	-26.949044	2.898733	0.420721	-0.489385	-4.549729
1.680	4.219292	-7.388262	594.189633	-27.266365	2.885513	0.407133	-0.485621	-4.588832
1.690	4.325611	-7.626288	594.984246	-27.539864	2.847461	0.401245	-0.478578	-4.628671
1.700	4.413195	-7.836886	594.693331	-27.767299	2.792479	0.402011	-0.469566	-4.669179
1.710	4.480035	-8.029163	593.400541	-27.941526	2.729646	0.406006	-0.460001	-4.708713
1.720	4.527794	-8.200682	591.270601	-28.051907	2.667850	0.408567	-0.451206	-4.744343
1.730	4.557411	-8.334743	588.524982	-28.088335	2.614067	0.405215	-0.444173	-4.772666
1.740	4.566398	-8.405594	585.411810	-28.046306	2.571919	0.392889	-0.439335	-4.790868
1.750	4.548520	-8.389405	582.174595	-27.930951	2.541193	0.370655	-0.436500	-4.797693
1.760	4.495537	-8.275752	579.026402	-27.758218	2.518580	0.339755	-0.434968	-4.793947
1.770	4.400243	-8.074283	576.136783	-27.552480	2.499274	0.303032	-0.433799	-4.782281
1.780	4.260119	-7.813872	573.634633	-27.341163	2.478610	0.263963	-0.432089	-4.766303
1.790	4.081056	-7.534914	571.621509	-27.148179	2.453096	0.225656	-0.429147	-4.749328
1.800	3.880044	-7.277698	570.182965	-26.988354	2.420738	0.190207	-0.424555	-4.733280
1.810	3.684834	-7.070855	569.387074	-26.864526	2.381161	0.158616	-0.418197	-4.718148
1.820	3.528668	-6.923898	569.269434	-26.767940	2.335962	0.131123	-0.410344	-4.702157
1.830	3.440369	-6.826385	569.814849	-26.681570	2.289166	0.107682	-0.401739	-4.682498
1.840	3.433376	-6.753658	570.949420	-26.585279	2.247039	0.088259	-0.393562	-4.656328
1.850	3.499223	-6.676536	572.550796	-26.461307	2.216600	0.072904	-0.387145	-4.621652
1.860	3.609670	-6.571224	574.473373	-26.298442	2.202887	0.061628	-0.383462	-4.577835
1.870	3.727492	-6.426270	576.576907	-26.093615	2.206092	0.054243	-0.382619	-4.525609
1.880	3.821505	-6.244747	578.745829	-25.850513	2.220037	0.050257	-0.383595	-4.466644
1.890	3.879583	-6.041308	580.891712	-25.575947	2.232998	0.048883	-0.384409	-4.402877
1.900	3.914379	-5.834966	582.939159	-25.275590	2.230719	0.049237	-0.382668	-4.335888
1.910	3.959123	-5.639857	584.803160	-24.951126	2.200548	0.050671	-0.376289	-4.266585
1.920	4.054188	-5.457666	586.371086	-24.600226	2.135304	0.053115	-0.364156	-4.195334
1.930	4.229027	-5.275578	587.502211	-24.219365	2.035678	0.057219	-0.346497	-4.122430
1.940	4.487265	-5.071531	588.050789	-23.807903	1.910296	0.064116	-0.324852	-4.048613
1.950	4.802627	-4.824911	587.907424	-23.371117	1.773206	0.074816	-0.301613	-3.975306
1.960	5.128528	-4.527732	587.042876	-22.920517	1.639460	0.089429	-0.279274	-3.904402
1.970	5.416867	-4.190857	585.534371	-22.471339	1.520432	0.106639	-0.259666	-3.837749
1.980	5.636521	-3.842043	583.560247	-22.038527	1.420762	0.123763	-0.243465	-3.776564
1.990	5.782729	-3.516496	581.362023	-21.633032	1.338170	0.137483	-0.230178	-3.721095
2.000	5.874239	-3.244368	579.186635	-21.259963	1.266084	0.144927	-0.218597	-3.670658
2.010	5.941408	-3.041053	577.228520	-20.919153	1.197871	0.144604	-0.207521	-3.624068
2.020	6.011657	-2.904372	575.590060	-20.607643	1.130949	0.136801	-0.196485	-3.580264
2.030	6.097949	-2.818885	574.272283	-20.322703	1.069204	0.123408	-0.186184	-3.538862
2.040	6.193587	-2.764152	573.198449	-20.063859	1.022817	0.107364	-0.178440	-3.500334
2.050	6.274370	-2.722598	572.262761	-19.833060	1.005528	0.091970	-0.175711	-3.465726
2.060	6.307343	-2.683756	571.387206	-19.633129	1.030377	0.080232	-0.180329	-3.436046
2.070	6.263489	-2.644106	570.565107	-19.465457	1.105654	0.074372	-0.193782	-3.411610
2.080	6.129866	-2.604127	569.873438	-19.328042	1.232731	0.075541	-0.216317	-3.391638
2.090	5.916179	-2.565364	569.447601	-19.214768	1.406569	0.083730	-0.247006	-3.374282
2.100	5.652510	-2.529634	569.427910	-19.116272	1.618492	0.097859	-0.284231	-3.357101
2.110	5.378449	-2.500392	569.899622	-19.022216	1.859840	0.116003	-0.326345	-3.337819
2.120	5.127680	-2.484401	570.852152	-18.924148	2.124885	0.135698	-0.372230	-3.315070
2.130	4.914644	-2.491457	572.175672	-18.817765	2.411812	0.154265	-0.421516	-3.288809
2.140	4.729613	-2.531139	573.697051	-18.703554	2.721429	0.169161	-0.474367	-3.260180
2.150	4.545057	-2.607635	575.239169	-18.585555	3.054310	0.178424	-0.530963	-3.230927
2.160	4.330773	-2.715349	576.677202	-18.468926	3.407768	0.181090	-0.590932	-3.202645
2.170	4.070789	-2.838268	577.968151	-18.357602	3.774066	0.177424	-0.652989	-3.176231
2.180	3.774283	-2.954457	579.143332	-18.253159	4.140713	0.168835	-0.714972	-3.151752
2.190	3.475831	-3.044242	580.270368	-18.155102	4.492860	0.157552	-0.774270	-3.128732
2.200	3.225171	-3.098201	581.403678	-18.061894	4.816976	0.146168	-0.828508	-3.106601
2.210	3.070631	-3.120593	582.545414	-17.971658	5.104503	0.137086	-0.876241	-3.085023
2.220	3.042177	-3.125848	583.631925	-17.881877	5.354161	0.131909	-0.917387	-3.063896
2.230	3.139594	-3.129549	584.548355	-17.788333	5.572114	0.130853	-0.953234	-3.043090
2.240	3.329282	-3.138591	585.162750	-17.684298	5.769980	0.132363	-0.986047	-3.022116
2.250	3.550572	-3.146071	585.365340	-17.561063	5.961489	0.133204	-1.018422	-3.000018
2.260	3.730205	-3.134150	585.098989	-17.410035	6.159013	0.129202	-1.052645	-2.975571
2.270	3.801477	-3.083774	584.371882	-17.225483	6.371045	0.116568	-1.090238	-2.947692
2.280	3.722323	-2.986076	583.251188	-17.006467	6.601148	0.093357	-1.131785	-2.915805
2.290	3.485899	-2.849142	581.843771	-16.756858	6.848311	0.060346	-1.177002	-2.879958
2.300	3.119753	-2.696350	580.273559	-16.483458	7.108344	0.020858	-1.224999	-2.840636
2.310	2.674575	-2.557031	578.663507	-16.193191	7.375727	-0.020415	-1.274614	-2.798378
2.320	2.207859	-2.454060	577.125487	-15.890744	7.645214	-0.059015	-1.324706	-2.753430
2.330	1.769109	-2.394148	575.757646	-15.577686	7.912685	-0.091980	-1.374308	-2.705598
2.340	1.391376	-2.364982	574.646793	-15.253186	8.175102	-0.118293	-1.422631	-2.654358
