Time[s]	Fx[N]	Fy[N]	Fz[N]	Mx[Nm]	My[Nm]	Mz[Nm]	COPx[cm]	COPy[cm]
0.010	2.393159	1.774297	507.463902	6.124356	1.598916	-0.794572	-0.315080	1.206856
0.020	2.459617	1.690000	507.734613	6.118861	1.542088	-0.804069	-0.303719	1.205130
0.030	2.535584	1.623473	508.004611	6.111922	1.477969	-0.811490	-0.290936	1.203123
0.040	2.628248	1.586763	508.263524	6.102044	1.401378	-0.815747	-0.275719	1.200567
0.050	2.740026	1.583441	508.490695	6.087586	1.310707	-0.817172	-0.257764	1.197187
0.060	2.867777	1.607890	508.657696	6.067209	1.207987	-0.817320	-0.237485	1.192788
0.070	3.003630	1.646989	508.735526	6.040452	1.098025	-0.818254	-0.215834	1.187346
0.080	3.137187	1.683610	508.704407	6.008032	0.987111	-0.821669	-0.194044	1.181046
0.090	3.258369	1.701187	508.562970	5.971672	0.881724	-0.828213	-0.173376	1.174225
0.100	3.359879	1.688375	508.333301	5.933617	0.787547	-0.837266	-0.154927	1.167269
0.110	3.438413	1.642569	508.059165	5.896202	0.708998	-0.847200	-0.139550	1.160535
0.120	3.494355	1.571079	507.796550	5.861713	0.649268	-0.855966	-0.127860	1.154343
0.130	3.530437	1.489133	507.598683	5.832410	0.610529	-0.861752	-0.120278	1.149020
0.140	3.550335	1.414861	507.500830	5.810402	0.593897	-0.863508	-0.117024	1.144905
0.150	3.558007	1.362865	507.511180	5.797293	0.598881	-0.861184	-0.118004	1.142298
0.160	3.557972	1.339218	507.611670	5.793801	0.622550	-0.855617	-0.122643	1.141385
0.170	3.556031	1.340405	507.768145	5.799641	0.658916	-0.848161	-0.129767	1.142183
0.180	3.559607	1.356637	507.944769	5.813691	0.699159	-0.840239	-0.137645	1.144552
0.190	3.577047	1.377334	508.115627	5.834278	0.733018	-0.833029	-0.144262	1.148219
0.200	3.615621	1.395560	508.268767	5.859367	0.751142	-0.827366	-0.147784	1.152809
0.210	3.678636	1.409506	508.403211	5.886565	0.747657	-0.823765	-0.147060	1.157854
0.220	3.762668	1.421323	508.522933	5.913074	0.722045	-0.822473	-0.141989	1.162794
0.230	3.856313	1.434905	508.631160	5.935842	0.679717	-0.823507	-0.133637	1.167023
0.240	3.941460	1.453968	508.726096	5.952080	0.631113	-0.826665	-0.124057	1.169997
0.250	3.997093	1.480940	508.798542	5.960041	0.589529	-0.831553	-0.115867	1.171395
0.260	4.004484	1.516632	508.832419	5.959630	0.568151	-0.837641	-0.111658	1.171236
0.270	3.952052	1.560295	508.808815	5.952428	0.577022	-0.844355	-0.113407	1.169875
0.280	3.838209	1.609466	508.712941	5.941014	0.620841	-0.851156	-0.122042	1.167852
0.290	3.671374	1.659340	508.542380	5.927866	0.698322	-0.857527	-0.137318	1.165658
0.300	3.467423	1.702362	508.313995	5.914380	0.803261	-0.862867	-0.158025	1.163529
0.310	3.245807	1.729236	508.065849	5.900446	0.926759	-0.866416	-0.182409	1.161355
0.320	3.025828	1.731800	507.850891	5.884768	1.059595	-0.867415	-0.208643	1.158759
0.330	2.824022	1.706664	507.722355	5.865709	1.193838	-0.865528	-0.235136	1.155299
0.340	2.652806	1.657550	507.715742	5.842222	1.323309	-0.861312	-0.260640	1.150688
0.350	2.519961	1.594801	507.835440	5.814411	1.443133	-0.856389	-0.284173	1.144940
0.360	2.428607	1.532064	508.052742	5.783595	1.549001	-0.853077	-0.304890	1.138385
0.370	2.377637	1.481721	508.316295	5.752003	1.636792	-0.853540	-0.322003	1.131579
0.380	2.362767	1.451262	508.569933	5.722300	1.702821	-0.858851	-0.334825	1.125175
0.390	2.378076	1.441981	508.770041	5.697013	1.744522	-0.868460	-0.342890	1.119762
0.400	2.417464	1.449879	508.895803	5.677878	1.761068	-0.880400	-0.346057	1.115725
0.410	2.475269	1.467699	508.949441	5.665312	1.753697	-0.892109	-0.344572	1.113139
0.420	2.545759	1.487125	508.948046	5.658264	1.725857	-0.901413	-0.339103	1.111757
0.430	2.622077	1.500605	508.912164	5.654561	1.683360	-0.907153	-0.330776	1.111107
0.440	2.695680	1.502478	508.856959	5.651593	1.634380	-0.909236	-0.321186	1.110645
0.450	2.756959	1.489286	508.789337	5.647094	1.588714	-0.908262	-0.312254	1.109908
0.460	2.796978	1.459606	508.710376	5.639825	1.555980	-0.905104	-0.305868	1.108651
0.470	2.809826	1.414058	508.619524	5.630071	1.543086	-0.900669	-0.303387	1.106932
0.480	2.794882	1.355770	508.517085	5.619808	1.551993	-0.895841	-0.305200	1.105137
0.490	2.758086	1.290862	508.404012	5.612454	1.578800	-0.891413	-0.310540	1.103936
0.500	2.711284	1.228152	508.280595	5.612185	1.614573	-0.887916	-0.317654	1.104151
0.510	2.669482	1.177695	508.146083	5.622960	1.647668	-0.885424	-0.324251	1.106564
0.520	2.646886	1.148462	507.999921	5.647545	1.666849	-0.883500	-0.328120	1.111722
0.530	2.653177	1.145943	507.843977	5.686774	1.664360	-0.881339	-0.327731	1.119788
0.540	2.691211	1.170480	507.684917	5.739283	1.638051	-0.878041	-0.322651	1.130481
0.550	2.756642	1.216860	507.535897	5.801845	1.591869	-0.872924	-0.313647	1.143140
0.560	2.839423	1.275462	507.416601	5.870317	1.534443	-0.865755	-0.302403	1.156903
0.570	2.926677	1.334887	507.350672	5.940907	1.476203	-0.856838	-0.290963	1.170967
0.580	3.006153	1.385541	507.360485	6.011176	1.426053	-0.846949	-0.281073	1.184794
0.590	3.069294	1.423066	507.460366	6.080291	1.388840	-0.837132	-0.273684	1.198181
0.600	3.112994	1.450222	507.650288	6.148498	1.364557	-0.828438	-0.268799	1.211168
0.610	3.139578	1.476124	507.912495	6.216299	1.349470	-0.821611	-0.265689	1.223892
0.620	3.155072	1.512780	508.213147	6.283897	1.338563	-0.816793	-0.263386	1.236469
0.630	3.166302	1.570211	508.509298	6.351201	1.328127	-0.813393	-0.261180	1.248984
0.640	3.177789	1.652234	508.758705	6.418233	1.317256	-0.810232	-0.258916	1.261547
0.650	3.189666	1.754606	508.928427	6.485473	1.307649	-0.805985	-0.256942	1.274339
0.660	3.197516	1.866227	508.999634	6.553797	1.302001	-0.799724	-0.255796	1.287584
0.670	3.194241	1.972910	508.969056	6.623960	1.301971	-0.791318	-0.255805	1.301447
0.680	3.173262	2.062295	508.849201	6.695971	1.306733	-0.781517	-0.256802	1.315905
0.690	3.131893	2.128007	508.667912	6.768812	1.312790	-0.771728	-0.258084	1.330694
0.700	3.073607	2.171488	508.465041	6.840784	1.315093	-0.763563	-0.258640	1.345379
0.710	3.008137	2.200969	508.283829	6.910319	1.309020	-0.758333	-0.257537	1.359539
0.720	2.949145	2.228187	508.158581	6.976788	1.292348	-0.756639	-0.254320	1.372955
0.730	2.910157	2.264218	508.104381	7.040858	1.266384	-0.758222	-0.249237	1.385711
0.740	2.900283	2.315938	508.114324	7.104266	1.235785	-0.762142	-0.243210	1.398163
0.750	2.921334	2.384228	508.165337	7.169147	1.207146	-0.767211	-0.237550	1.410790
0.760	2.967422	2.464317	508.228948	7.237129	1.186866	-0.772438	-0.233530	1.423990
0.770	3.027154	2.548019	508.282006	7.308448	1.179055	-0.777308	-0.231969	1.437873
0.780	3.087406	2.627022	508.313818	7.381494	1.184195	-0.781843	-0.232965	1.452153
0.790	3.137080	2.695984	508.328030	7.453057	1.199044	-0.786479	-0.235880	1.466190
0.800	3.169515	2.754302	508.338776	7.519245	1.217837	-0.791820	-0.239572	1.479180
0.810	3.183156	2.805947	508.362356	7.576690	1.234331	-0.798345	-0.242805	1.490411
0.820	3.180872	2.857571	508.408009	7.623609	1.243881	-0.806160	-0.244662	1.499506
0.830	3.168486	2.915664	508.472387	7.660352	1.244727	-0.814867	-0.244797	1.506542
0.840	3.152961	2.983716	508.540735	7.689331	1.238105	-0.823592	-0.243462	1.512038
0.850	3.140609	3.060438	508.594157	7.714350	1.227290	-0.831172	-0.241310	1.516799
0.860	3.135814	3.139891	508.618759	7.739504	1.216056	-0.836504	-0.239090	1.521671
0.870	3.140670	3.213695	508.611505	7.767894	1.207063	-0.838967	-0.237325	1.527275
0.880	3.155533	3.274264	508.580277	7.800519	1.200729	-0.838770	-0.236094	1.533783
0.890	3.179857	3.317293	508.539547	7.835765	1.195020	-0.837017	-0.234991	1.540837
0.900	3.212429	3.342264	508.504891	7.869800	1.186403	-0.835401	-0.233312	1.547635
0.910	3.250610	3.351103	508.488620	7.897702	1.171671	-0.835592	-0.230422	1.553172
0.920	3.289280	3.346128	508.497200	7.914800	1.149788	-0.838622	-0.226115	1.556508
0.930	3.320864	3.328581	508.530238	7.917677	1.122806	-0.844588	-0.220794	1.556973
0.940	3.337232	3.298473	508.580822	7.904594	1.095329	-0.852771	-0.215370	1.554245
0.950	3.332808	3.255576	508.637028	7.875508	1.072767	-0.862045	-0.210910	1.548355
0.960	3.307223	3.200760	508.683999	7.831901	1.059214	-0.871307	-0.208226	1.539640
0.970	3.266037	3.136672	508.706252	7.776458	1.055955	-0.879754	-0.207577	1.528674
0.980	3.219058	3.067287	508.690883	7.712421	1.061285	-0.886995	-0.208631	1.516131
0.990	3.176908	2.996600	508.632312	7.642587	1.071611	-0.893030	-0.210685	1.502576
1.000	3.147115	2.927266	508.536811	7.568339	1.083290	-0.898148	-0.213021	1.488258
1.010	3.131311	2.859921	508.423070	7.489283	1.094396	-0.902741	-0.215253	1.473042
1.020	3.124817	2.793285	508.316820	7.403754	1.105719	-0.907119	-0.217526	1.456523
1.030	3.118944	2.724705	508.242087	7.309804	1.120538	-0.911410	-0.220473	1.438252
1.040	3.105027	2.650746	508.214315	7.206114	1.143161	-0.915611	-0.224937	1.417928
1.050	3.078368	2.567777	508.238695	7.092440	1.176759	-0.919740	-0.231537	1.395494
1.060	3.040348	2.472859	508.312779	6.969612	1.221386	-0.923972	-0.240282	1.371127
1.070	2.997866	2.365072	508.429921	6.839267	1.273021	-0.928635	-0.250383	1.345174
1.080	2.960641	2.246752	508.580665	6.703483	1.324063	-0.934009	-0.260345	1.318077
1.090	2.937872	2.123505	508.751324	6.564416	1.365186	-0.940003	-0.268340	1.290300
1.100	2.935799	2.002245	508.921386	6.424023	1.387932	-0.945898	-0.272720	1.262282
1.110	2.956926	1.887953	509.062974	6.283965	1.387063	-0.950376	-0.272474	1.234418
1.120	3.000798	1.781181	509.145232	6.145737	1.361651	-0.951918	-0.267439	1.207069
1.130	3.065554	1.678068	509.143633	6.010954	1.314494	-0.949427	-0.258177	1.180601
1.140	3.149368	1.572985	509.050542	5.881560	1.250258	-0.942761	-0.245606	1.155398
1.150	3.251108	1.462273	508.881829	5.759791	1.173376	-0.932917	-0.230579	1.131852
1.160	3.369883	1.347164	508.675493	5.647898	1.086771	-0.921743	-0.213647	1.110314
1.170	3.503568	1.234572	508.480961	5.547759	0.991876	-0.911318	-0.195067	1.091046
1.180	3.646836	1.135461	508.341470	5.460596	0.889694	-0.903279	-0.175019	1.074198
1.190	3.789797	1.061391	508.276335	5.386870	0.782093	-0.898366	-0.153872	1.059831
1.200	3.918523	1.020596	508.272083	5.326374	0.672576	-0.896325	-0.132326	1.047938
1.210	4.018144	1.015201	508.288626	5.278467	0.566095	-0.896092	-0.111373	1.038478
1.220	4.077710	1.040756	508.279283	5.242337	0.467994	-0.896065	-0.092074	1.031389
1.230	4.094664	1.088291	508.215488	5.217193	0.382561	-0.894370	-0.075275	1.026571
1.240	4.076532	1.147847	508.103189	5.202258	0.311805	-0.889147	-0.061367	1.023859
1.250	4.038647	1.211678	507.981206	5.196510	0.255023	-0.878935	-0.050203	1.022973
1.260	3.998646	1.275702	507.901458	5.198323	0.209390	-0.863123	-0.041226	1.023491
1.270	3.970143	1.338922	507.901735	5.205233	0.171393	-0.842295	-0.033745	1.024850
1.280	3.958444	1.401644	507.986319	5.214033	0.138465	-0.818269	-0.027258	1.026412
1.290	3.960217	1.463689	508.124858	5.221205	0.109948	-0.793701	-0.021638	1.027544
1.300	3.967043	1.523520	508.268936	5.223558	0.086895	-0.771379	-0.017096	1.027715
1.310	3.970783	1.578402	508.376329	5.218867	0.070934	-0.753457	-0.013953	1.026575
1.320	3.967764	1.625035	508.429872	5.206335	0.063056	-0.740959	-0.012402	1.024003
1.330	3.959380	1.660003	508.441855	5.186674	0.063267	-0.733690	-0.012443	1.020112
1.340	3.948795	1.679916	508.443069	5.161770	0.071463	-0.730548	-0.014055	1.015211
1.350	3.935924	1.681716	508.463597	5.134058	0.089044	-0.730016	-0.017512	1.009720
1.360	3.914104	1.663627	508.515650	5.105836	0.120209	-0.730630	-0.023639	1.004067
1.370	3.870873	1.626616	508.586534	5.078685	0.171975	-0.731317	-0.033814	0.998588
1.380	3.792702	1.575406	508.644452	5.053135	0.252551	-0.731555	-0.049652	0.993451
1.390	3.671200	1.517986	508.653673	5.028655	0.368620	-0.731335	-0.072470	0.988621
1.400	3.507511	1.463357	508.591000	5.004024	0.522665	-0.730965	-0.102767	0.983899
1.410	3.312668	1.418452	508.455143	4.977906	0.711437	-0.730814	-0.139921	0.979026
1.420	3.103899	1.385822	508.265661	4.949474	0.926226	-0.731167	-0.182233	0.973797
1.430	2.899062	1.363234	508.054735	4.918954	1.154853	-0.732270	-0.227309	0.968194
1.440	2.712049	1.345160	507.857923	4.887941	1.384596	-0.734443	-0.272635	0.962462
1.450	2.550868	1.325051	507.707771	4.859235	1.604915	-0.738123	-0.316110	0.957093
1.460	2.418304	1.297191	507.630090	4.836045	1.808916	-0.743783	-0.356345	0.952671
1.470	2.314067	1.257750	507.640712	4.820743	1.993223	-0.751790	-0.392644	0.949637
1.480	2.237147	1.205465	507.741484	4.813629	2.156737	-0.762263	-0.424771	0.948047
1.490	2.187276	1.142348	507.917078	4.812325	2.299229	-0.774957	-0.452678	0.947463
1.500	2.164828	1.074131	508.136296	4.812226	2.420596	-0.789195	-0.476367	0.947035
1.510	2.169353	1.009786	508.360161	4.808107	2.521059	-0.803869	-0.495920	0.945807
1.520	2.197728	0.959865	508.554457	4.796345	2.601904	-0.817595	-0.511627	0.943133
1.530	2.243049	0.934174	508.700679	4.776817	2.666042	-0.829032	-0.524088	0.939023
1.540	2.294925	0.939634	508.799939	4.753466	2.717833	-0.837251	-0.534165	0.934251
1.550	2.341329	0.978839	508.868338	4.733131	2.762223	-0.841993	-0.542817	0.930129
1.560	2.371559	1.049512	508.926479	4.723112	2.803575	-0.843694	-0.550880	0.928054
1.570	2.379255	1.144811	508.988028	4.728585	2.844684	-0.843324	-0.558890	0.929017
1.580	2.364222	1.254409	509.052224	4.750872	2.886215	-0.842132	-0.566978	0.933278
1.590	2.332142	1.366174	509.103458	4.786976	2.926620	-0.841384	-0.574858	0.940276
1.600	2.292231	1.468178	509.118026	4.830298	2.962508	-0.842124	-0.581890	0.948758
1.610	2.253935	1.550773	509.074960	4.872261	2.989386	-0.844938	-0.587219	0.957081
1.620	2.224189	1.608442	508.965974	4.904413	3.002693	-0.849795	-0.589959	0.963603
1.630	2.206366	1.640862	508.800104	4.920489	2.998932	-0.856083	-0.589413	0.967077
1.640	2.200925	1.652544	508.601439	4.917870	2.976556	-0.862881	-0.585243	0.966940
1.650	2.206844	1.650903	508.401676	4.898003	2.936349	-0.869374	-0.577565	0.963412
1.660	2.222769	1.643447	508.231134	4.865639	2.881278	-0.875188	-0.566923	0.957367
1.670	2.247349	1.635302	508.111472	4.827113	2.816024	-0.880464	-0.554214	0.950011
1.680	2.278778	1.628029	508.051566	4.788296	2.746460	-0.885667	-0.540587	0.942482
1.690	2.313802	1.620045	508.046669	4.753020	2.679159	-0.891207	-0.527345	0.935548
1.700	2.346628	1.608186	508.080866	4.722620	2.620880	-0.897061	-0.515839	0.929502
1.710	2.368506	1.589442	508.132829	4.696581	2.577865	-0.902598	-0.507321	0.924282
1.720	2.368864	1.561995	508.183727	4.673710	2.554842	-0.906727	-0.502740	0.919689
1.730	2.338362	1.525328	508.224389	4.653114	2.553802	-0.908310	-0.502495	0.915563
1.740	2.273100	1.479910	508.258093	4.634649	2.572890	-0.906658	-0.506217	0.911869
1.750	2.178157	1.427047	508.297093	4.618948	2.605934	-0.901878	-0.512679	0.908710
1.760	2.068296	1.369047	508.354457	4.607213	2.643170	-0.894916	-0.519946	0.906299
1.770	1.964656	1.309492	508.435214	4.600779	2.673295	-0.887235	-0.525789	0.904890
1.780	1.888202	1.253239	508.530600	4.600388	2.686402	-0.880290	-0.528268	0.904643
1.790	1.852619	1.205751	508.617609	4.605374	2.676817	-0.875054	-0.526293	0.905469
1.800	1.859775	1.171747	508.664948	4.613272	2.644734	-0.871775	-0.519936	0.906937
1.810	1.899732	1.153620	508.644790	4.620290	2.595944	-0.869997	-0.510365	0.908353
1.820	1.955283	1.150413	508.546421	4.622655	2.539698	-0.868706	-0.499403	0.908994
1.830	2.009112	1.157850	508.385087	4.618307	2.485480	-0.866578	-0.488897	0.908427
1.840	2.050452	1.169435	508.200526	4.608053	2.439909	-0.862300	-0.480107	0.906739
1.850	2.078300	1.178196	508.044833	4.595481	2.404904	-0.854972	-0.473365	0.904542
1.860	2.099898	1.178457	507.964615	4.585533	2.377723	-0.844510	-0.468088	0.902727
1.870	2.125702	1.167009	507.984603	4.582335	2.352644	-0.831841	-0.463133	0.902062
1.880	2.163766	1.143454	508.098719	4.587254	2.323481	-0.818739	-0.457289	0.902827
1.890	2.216375	1.109834	508.271766	4.598081	2.285854	-0.807313	-0.449731	0.904650
1.900	2.280101	1.069821	508.451190	4.609821	2.238354	-0.799378	-0.440230	0.906640
1.910	2.348549	1.027702	508.584609	4.616753	2.182307	-0.796001	-0.429094	0.907765
1.920	2.415982	0.987400	508.636540	4.614766	2.120403	-0.797321	-0.416880	0.907282
1.930	2.480074	0.951671	508.598358	4.602826	2.054897	-0.802614	-0.404031	0.905002
1.940	2.542805	0.921584	508.488678	4.582902	1.986115	-0.810510	-0.390592	0.901279
1.950	2.609428	0.896445	508.345381	4.558539	1.911827	-0.819291	-0.376088	0.896741
1.960	2.686133	0.874371	508.213032	4.532956	1.827782	-0.827229	-0.359649	0.891940
1.970	2.777537	0.853537	508.129660	4.507770	1.729194	-0.832953	-0.340306	0.887130
1.980	2.885189	0.833526	508.116197	4.483055	1.612564	-0.835765	-0.317361	0.882289
1.990	3.007553	0.815847	508.171448	4.458684	1.477062	-0.835846	-0.290662	0.877398
2.000	3.141040	0.803055	508.274542	4.436122	1.324941	-0.834189	-0.260674	0.872781
2.010	3.281292	0.796902	508.393889	4.419459	1.160996	-0.832196	-0.228365	0.869298
2.020	3.424151	0.796762	508.498382	4.414853	0.991428	-0.831050	-0.194972	0.868214
2.030	3.566038	0.799500	508.565888	4.428389	0.822590	-0.831179	-0.161747	0.870760
2.040	3.703736	0.801091	508.586735	4.463377	0.659973	-0.832171	-0.129766	0.877604
2.050	3.833909	0.799239	508.563114	4.518521	0.507588	-0.833208	-0.099808	0.888488
2.060	3.952909	0.795534	508.506673	4.587962	0.367716	-0.833695	-0.072313	0.902242
2.070	4.057258	0.795765	508.435585	4.663280	0.240941	-0.833644	-0.047389	0.917182
2.080	4.144593	0.808037	508.370509	4.736571	0.126382	-0.833526	-0.024860	0.931716
2.090	4.214385	0.839559	508.328431	4.803312	0.022155	-0.833741	-0.004358	0.944923
2.100	4.267866	0.893755	508.315575	4.863847	-0.073867	-0.834080	0.014532	0.956856
2.110	4.307109	0.969065	508.323363	4.922919	-0.163086	-0.833544	0.032083	0.968462
2.120	4.333702	1.059877	508.331350	4.987619	-0.245274	-0.830640	0.048251	0.981175
2.130	4.347705	1.159071	508.317474	5.064762	-0.318160	-0.823995	0.062591	0.996378
2.140	4.347554	1.260976	508.270981	5.158838	-0.377926	-0.812975	0.074355	1.014978
2.150	4.331015	1.363318	508.200451	5.271117	-0.420648	-0.798058	0.082772	1.037212
2.160	4.296676	1.467166	508.131410	5.399835	-0.444156	-0.780838	0.087410	1.062685
2.170	4.245215	1.575164	508.094341	5.540961	-0.449295	-0.763654	0.088427	1.090538
2.180	4.179734	1.689440	508.109787	5.689137	-0.439710	-0.748874	0.086538	1.119667
2.190	4.104784	1.810492	508.178415	5.838636	-0.420109	-0.738087	0.082670	1.148934
2.200	4.024263	1.937317	508.280736	5.984363	-0.393875	-0.731538	0.077492	1.177374
2.210	3.939225	2.068086	508.386170	6.122866	-0.361319	-0.728092	0.071072	1.204373
2.220	3.847134	2.200609	508.466650	6.253104	-0.319488	-0.725751	0.062834	1.229796
2.230	3.743599	2.332241	508.508037	6.376552	-0.263670	-0.722451	0.051852	1.253973
2.240	3.626156	2.459486	508.514450	6.496371	-0.189927	-0.716791	0.037349	1.277519
2.250	3.498176	2.577910	508.504619	6.615901	-0.097551	-0.708460	0.019184	1.301050
2.260	3.370422	2.682847	508.502531	6.737062	0.009662	-0.698284	-0.001900	1.324883
2.270	3.258739	2.770723	508.525907	6.859341	0.123980	-0.687908	-0.024380	1.348868
2.280	3.178450	2.840110	508.576327	6.979769	0.236006	-0.679229	-0.046405	1.372413
2.290	3.138132	2.891651	508.634914	7.093931	0.337803	-0.673801	-0.066414	1.394700
2.300	3.135967	2.926817	508.666343	7.197562	0.425587	-0.672439	-0.083667	1.414987
2.310	3.160377	2.946364	508.631183	7.288003	0.500871	-0.675190	-0.098474	1.432866
2.320	3.194277	2.949655	508.503026	7.364859	0.569539	-0.681598	-0.112003	1.448341
2.330	3.220796	2.935371	508.283981	7.429649	0.639190	-0.691058	-0.125754	1.461712
2.340	3.228266	2.903114	508.011114	7.484764	0.715742	-0.703017	-0.140891	1.473346
2.350	3.213154	2.854699	507.748902	7.532365	0.800596	-0.716998	-0.157676	1.483482
2.360	3.180425	2.794407	507.569010	7.573827	0.889428	-0.732544	-0.175233	1.492177
2.370	3.141530	2.728468	507.525415	7.609961	0.973151	-0.749200	-0.191744	1.499425
2.380	3.110737	2.664572	507.635725	7.641678	1.040859	-0.766514	-0.205041	1.505347
2.390	3.100855	2.611736	507.876262	7.670439	1.083739	-0.783987	-0.213386	1.510297
2.400	3.119197	2.580006	508.191557	7.698082	1.098474	-0.800966	-0.216154	1.514799
2.410	3.164499	2.579142	508.512846	7.726166	1.088853	-0.816606	-0.214125	1.519365
2.420	3.225876	2.616044	508.778087	7.755304	1.065023	-0.829976	-0.209330	1.524300
2.430	3.284960	2.691759	508.947239	7.784865	1.040774	-0.840300	-0.204495	1.529602
