Time[s]	Fx[N]	Fy[N]	Fz[N]	Mx[Nm]	My[Nm]	Mz[Nm]	COPx[cm]	COPy[cm]
0.010	0.938409	-7.247935	442.602390	-17.226280	11.286973	0.310078	-2.550138	-3.892044
0.020	0.878523	-6.996230	440.890290	-16.886011	11.440497	0.315802	-2.594863	-3.829980
0.030	0.822579	-6.767553	439.354444	-16.555285	11.585096	0.317455	-2.636845	-3.768093
0.040	0.774721	-6.578500	438.156537	-16.241685	11.712431	0.311797	-2.673116	-3.706823
0.050	0.739277	-6.435497	437.424537	-15.949684	11.815971	0.297166	-2.701259	-3.646271
0.060	0.719327	-6.333345	437.228373	-15.680939	11.891742	0.273980	-2.719801	-3.586441
0.070	0.715002	-6.257464	437.556895	-15.435372	11.938895	0.244767	-2.728535	-3.527626
0.080	0.722617	-6.189408	438.308387	-15.212190	11.959887	0.213609	-2.728647	-3.470659
0.090	0.735375	-6.113655	439.304673	-15.010438	11.959986	0.185085	-2.722481	-3.416863
0.100	0.745724	-6.023001	440.328408	-14.829207	11.945994	0.163018	-2.712974	-3.367761
0.110	0.748550	-5.920635	441.171334	-14.667741	11.924495	0.149415	-2.702917	-3.324727
0.120	0.743747	-5.818511	441.676617	-14.525335	11.900186	0.143920	-2.694321	-3.288681
0.130	0.736809	-5.732888	441.763293	-14.400811	11.874804	0.144040	-2.688047	-3.259848
0.140	0.736934	-5.678465	441.430293	-14.291723	11.846906	0.146086	-2.683755	-3.237595
0.150	0.753333	-5.662923	440.744635	-14.193926	11.812477	0.146541	-2.680118	-3.220442
0.160	0.791278	-5.683853	439.820517	-14.102110	11.766212	0.143268	-2.675230	-3.206333
0.170	0.849678	-5.729488	438.795005	-14.011377	11.703188	0.136106	-2.667120	-3.193149
0.180	0.921522	-5.783079	437.804862	-13.919252	11.620468	0.126709	-2.654257	-3.179328
0.190	0.997453	-5.828991	436.967702	-13.827130	11.518064	0.117840	-2.635907	-3.164337
0.200	1.071074	-5.857878	436.368172	-13.740340	11.398850	0.112457	-2.612209	-3.148795
0.210	1.143358	-5.869121	436.048057	-13.666620	11.267499	0.112849	-2.584004	-3.134200
0.220	1.223653	-5.870180	436.000228	-13.613588	11.129103	0.119992	-2.552545	-3.122381
0.230	1.326433	-5.873559	436.169018	-13.586284	10.988255	0.133276	-2.519265	-3.114913
0.240	1.465094	-5.892438	436.460299	-13.585641	10.848946	0.150713	-2.485666	-3.112686
0.250	1.645436	-5.936172	436.761860	-13.608113	10.715024	0.169591	-2.453288	-3.115683
0.260	1.861433	-6.006965	436.970232	-13.646218	10.590688	0.187330	-2.423663	-3.122917
0.270	2.094937	-6.098819	437.016097	-13.689640	10.480525	0.202175	-2.398201	-3.132525
0.280	2.319567	-6.199116	436.879354	-13.726781	10.389010	0.213472	-2.378004	-3.142007
0.290	2.507526	-6.292126	436.588599	-13.746720	10.319658	0.221448	-2.363703	-3.148667
0.300	2.637194	-6.363127	436.206918	-13.741347	10.274201	0.226698	-2.355350	-3.150190
0.310	2.699068	-6.401811	435.811753	-13.707086	10.252158	0.229679	-2.352428	-3.145185
0.320	2.698211	-6.404255	435.476942	-13.645424	10.251024	0.230489	-2.353976	-3.133443
0.330	2.652404	-6.373194	435.260979	-13.561858	10.267067	0.229018	-2.358830	-3.115799
0.340	2.586638	-6.316730	435.200972	-13.463676	10.296465	0.225337	-2.365910	-3.093669
0.350	2.525795	-6.246014	435.310155	-13.357668	10.336338	0.220036	-2.374477	-3.068540
0.360	2.487812	-6.172895	435.577692	-13.248779	10.385338	0.214295	-2.384268	-3.041657
0.370	2.479167	-6.108420	435.970539	-13.139967	10.443665	0.209585	-2.395498	-3.013958
0.380	2.493689	-6.062252	436.437011	-13.032746	10.512696	0.207089	-2.408755	-2.986169
0.390	2.514839	-6.042194	436.912026	-12.927685	10.594476	0.207059	-2.424853	-2.958876
0.400	2.520756	-6.052985	437.325728	-12.824579	10.691104	0.208469	-2.444655	-2.932501
0.410	2.490589	-6.094353	437.617746	-12.722577	10.803925	0.209262	-2.468804	-2.907235
0.420	2.410289	-6.159306	437.755617	-12.620708	10.932565	0.207177	-2.497413	-2.883049
0.430	2.276467	-6.233950	437.750003	-12.518825	11.074152	0.200803	-2.529789	-2.859811
0.440	2.097752	-6.299524	437.657403	-12.418419	11.223187	0.190277	-2.564377	-2.837475
0.450	1.893643	-6.336342	437.566351	-12.322621	11.372256	0.177282	-2.598979	-2.816172
0.460	1.691009	-6.328595	437.571425	-12.235117	11.513351	0.164398	-2.631194	-2.796142
0.470	1.518569	-6.268767	437.744431	-12.158467	11.639319	0.154173	-2.658930	-2.777526
0.480	1.400617	-6.160566	438.111837	-12.092785	11.745011	0.148329	-2.680825	-2.760205
0.490	1.351987	-6.019468	438.644580	-12.035566	11.827842	0.147346	-2.696452	-2.743808
0.500	1.375901	-5.870302	439.262596	-11.982760	11.887765	0.150504	-2.706300	-2.727926
0.510	1.464919	-5.741792	439.852275	-11.930448	11.926835	0.156288	-2.711555	-2.712376
0.520	1.604020	-5.658856	440.291494	-11.876216	11.948710	0.162956	-2.713818	-2.697353
0.530	1.774494	-5.634751	440.475529	-11.819560	11.958314	0.169024	-2.714865	-2.683364
0.540	1.957398	-5.666112	440.338143	-11.761337	11.961667	0.173491	-2.716473	-2.670978
0.550	2.135539	-5.733476	439.864427	-11.702893	11.965654	0.175845	-2.720305	-2.660568
0.560	2.293646	-5.807664	439.094143	-11.645577	11.977412	0.175932	-2.727755	-2.652182
0.570	2.417532	-5.859707	438.115760	-11.590800	12.003241	0.173845	-2.739742	-2.645602
0.580	2.493845	-5.870358	437.052251	-11.540244	12.047341	0.169872	-2.756499	-2.640472
0.590	2.511547	-5.835639	436.040953	-11.495752	12.110959	0.164510	-2.777482	-2.636393
0.600	2.464985	-5.766829	435.211337	-11.458902	12.192333	0.158449	-2.801474	-2.632951
0.610	2.357244	-5.685627	434.665095	-11.430684	12.287416	0.152473	-2.826870	-2.629768
0.620	2.201994	-5.616856	434.461687	-11.411580	12.391033	0.147323	-2.852043	-2.626602
0.630	2.022558	-5.581430	434.610112	-11.401852	12.498162	0.143614	-2.875718	-2.623467
0.640	1.847869	-5.591585	435.066276	-11.401697	12.605046	0.141797	-2.897270	-2.620681
0.650	1.706170	-5.649046	435.736246	-11.411176	12.709803	0.142069	-2.916857	-2.618826
0.660	1.618115	-5.745768	436.488061	-11.430065	12.812383	0.144209	-2.935334	-2.618643
0.670	1.591299	-5.866551	437.174716	-11.457794	12.913999	0.147481	-2.953967	-2.620873
0.680	1.617893	-5.992860	437.665780	-11.493548	13.016534	0.150778	-2.974081	-2.626102
0.690	1.676263	-6.107200	437.877966	-11.536658	13.122389	0.153000	-2.996814	-2.634674
0.700	1.736347	-6.197174	437.792578	-11.587318	13.234781	0.153432	-3.023071	-2.646760
0.710	1.767331	-6.258381	437.453567	-11.647312	13.358078	0.151910	-3.053599	-2.662525
0.720	1.745170	-6.295524	436.949413	-11.720187	13.497530	0.148683	-3.089037	-2.682275
0.730	1.657517	-6.321337	436.388013	-11.810490	13.658159	0.144163	-3.129820	-2.706420
0.740	1.504861	-6.353356	435.873200	-11.922281	13.843075	0.138746	-3.175941	-2.735264
0.750	1.298669	-6.409126	435.487506	-12.057473	14.051941	0.132829	-3.226715	-2.768730
0.760	1.058301	-6.501239	435.282674	-12.214660	14.280258	0.126904	-3.280686	-2.806144
0.770	0.807946	-6.633801	435.278096	-12.388864	14.519847	0.121540	-3.335763	-2.846195
0.780	0.573429	-6.801313	435.466502	-12.572407	14.760499	0.117167	-3.389583	-2.887112
0.790	0.378311	-6.989931	435.824351	-12.756608	14.992370	0.113726	-3.440003	-2.927007
0.800	0.239412	-7.180524	436.322283	-12.933597	15.208403	0.110421	-3.485589	-2.964230
0.810	0.162890	-7.352895	436.930795	-13.097550	15.405916	0.105782	-3.525940	-2.997626
0.820	0.142272	-7.490502	437.619446	-13.245156	15.586770	0.098091	-3.561718	-3.026638
0.830	0.159395	-7.584751	438.352024	-13.375584	15.756171	0.086038	-3.594410	-3.051334
0.840	0.188349	-7.637756	439.082154	-13.490285	15.920659	0.069309	-3.625895	-3.072383
0.850	0.201566	-7.662528	439.753004	-13.592611	16.085977	0.048852	-3.657957	-3.090965
0.860	0.176464	-7.680165	440.302583	-13.687068	16.255311	0.026731	-3.691850	-3.108559
0.870	0.100942	-7.714544	440.674179	-13.778200	16.428283	0.005623	-3.727989	-3.126618
0.880	-0.023755	-7.785978	440.829857	-13.869548	16.600927	-0.011887	-3.765835	-3.146236
0.890	-0.183681	-7.905907	440.763176	-13.963243	16.766693	-0.023993	-3.804014	-3.167970
0.900	-0.356191	-8.074407	440.505987	-14.060425	16.918223	-0.030153	-3.840634	-3.191881
0.910	-0.515916	-8.281240	440.125080	-14.162120	17.049333	-0.031177	-3.873747	-3.217749
0.920	-0.640610	-8.509659	439.708016	-14.269952	17.156447	-0.028886	-3.901782	-3.245325
0.930	-0.715166	-8.741264	439.342052	-14.386245	17.238941	-0.025471	-3.923809	-3.274498
0.940	-0.733123	-8.960179	439.093512	-14.513412	17.298303	-0.022789	-3.939549	-3.305312
0.950	-0.696105	-9.155451	438.995088	-14.652807	17.336608	-0.021905	-3.949158	-3.337807
0.960	-0.612110	-9.321445	439.044711	-14.803350	17.355156	-0.022967	-3.952936	-3.371718
0.970	-0.493256	-9.456699	439.213744	-14.960390	17.353875	-0.025381	-3.951123	-3.406175
0.980	-0.353156	-9.561977	439.458266	-15.115380	17.331702	-0.028127	-3.943879	-3.439548
0.990	-0.204121	-9.638350	439.727360	-15.256814	17.287711	-0.030069	-3.931461	-3.469608
1.000	-0.055006	-9.686045	439.966163	-15.372458	17.222453	-0.030176	-3.914495	-3.494009
1.010	0.089250	-9.704677	440.116009	-15.452383	17.138941	-0.027620	-3.894187	-3.510980
1.020	0.226147	-9.695057	440.116500	-15.491797	17.042864	-0.021761	-3.872353	-3.519931
1.030	0.353351	-9.661967	439.913265	-15.492491	16.942004	-0.012114	-3.851215	-3.521715
1.040	0.467351	-9.616288	439.471268	-15.462200	16.845059	0.001577	-3.833028	-3.518364
1.050	0.563878	-9.574577	438.789413	-15.412156	16.760268	0.019108	-3.819661	-3.512427
1.060	0.639400	-9.555313	437.910243	-15.353986	16.694243	0.039563	-3.812252	-3.506195
1.070	0.692272	-9.573076	436.919732	-15.297233	16.651308	0.061272	-3.811068	-3.501154
1.080	0.722676	-9.633425	435.935627	-15.248133	16.633351	0.082132	-3.815552	-3.497795
1.090	0.731719	-9.730996	435.087032	-15.209622	16.639882	0.100195	-3.824495	-3.495766
1.100	0.720646	-9.851548	434.490896	-15.182206	16.668117	0.114265	-3.836241	-3.494252
1.110	0.690788	-9.976583	434.231277	-15.165146	16.713180	0.124251	-3.848912	-3.492412
1.120	0.643983	-10.088203	434.345350	-15.157371	16.768777	0.131103	-3.860701	-3.489705
1.130	0.582799	-10.172458	434.818313	-15.157598	16.828473	0.136350	-3.870231	-3.485961
1.140	0.510195	-10.220918	435.588264	-15.163663	16.887196	0.141437	-3.876871	-3.481192
1.150	0.428888	-10.231011	436.560461	-15.171622	16.942225	0.147153	-3.880843	-3.475263
1.160	0.341083	-10.205628	437.627709	-15.175344	16.993072	0.153412	-3.882997	-3.467638
1.170	0.249222	-10.152089	438.691235	-15.166863	17.040233	0.159468	-3.884334	-3.457298
1.180	0.157792	-10.080296	439.675782	-15.137267	17.083403	0.164435	-3.885455	-3.442825
1.190	0.075358	-10.000055	440.535113	-15.077702	17.120012	0.167842	-3.886186	-3.422588
1.200	0.015464	-9.918037	441.248283	-14.980347	17.144738	0.169911	-3.885508	-3.394993
1.210	-0.004746	-9.835331	441.810212	-14.839416	17.150299	0.171450	-3.881825	-3.358776
1.220	0.031716	-9.746574	442.220333	-14.652241	17.129262	0.173452	-3.873468	-3.313335
1.230	0.136688	-9.641255	442.472120	-14.420217	17.076196	0.176651	-3.859270	-3.259011
1.240	0.312418	-9.507243	442.546228	-14.149217	16.989330	0.181243	-3.838995	-3.197229
1.250	0.549239	-9.335865	442.410560	-13.849133	16.871146	0.186842	-3.813459	-3.130380
1.260	0.826154	-9.126945	442.029252	-13.532425	16.727851	0.192673	-3.784331	-3.061432
1.270	1.114424	-8.891681	441.378712	-13.211894	16.568190	0.197916	-3.753736	-2.993324
1.280	1.383324	-8.651664	440.464615	-12.898228	16.402139	0.202072	-3.723827	-2.928323
1.290	1.606406	-8.433692	439.332455	-12.598056	16.239810	0.205224	-3.696474	-2.867545
1.300	1.766263	-8.261918	438.066829	-12.313132	16.090599	0.208043	-3.673092	-2.810788
1.310	1.856539	-8.150148	436.779249	-12.040838	15.962454	0.211482	-3.654582	-2.756733
1.320	1.881219	-8.097081	435.588742	-11.775690	15.861168	0.216279	-3.641317	-2.703396
1.330	1.852125	-8.086039	434.602036	-11.511166	15.789725	0.222514	-3.633146	-2.648668
1.340	1.785716	-8.089006	433.899376	-11.241166	15.747934	0.229480	-3.629398	-2.590731
1.350	1.699922	-8.073612	433.528541	-10.960770	15.732589	0.235852	-3.628963	-2.528270
1.360	1.611338	-8.011230	433.505496	-10.666431	15.738272	0.239982	-3.630467	-2.460507
1.370	1.533090	-7.884214	433.817559	-10.356003	15.758573	0.240168	-3.632535	-2.387179
1.380	1.473750	-7.690229	434.424864	-10.028848	15.787368	0.234876	-3.634085	-2.308535
1.390	1.437513	-7.442049	435.258845	-9.685999	15.819793	0.222933	-3.634571	-2.225342
1.400	1.425194	-7.162641	436.221179	-9.330188	15.852710	0.203685	-3.634099	-2.138866
1.410	1.435074	-6.877345	437.189664	-8.965664	15.884601	0.177068	-3.633343	-2.050749
1.420	1.462898	-6.606288	438.035443	-8.597927	15.915034	0.143598	-3.633275	-1.962838
1.430	1.501314	-6.359993	438.649502	-8.233569	15.944028	0.104339	-3.634799	-1.877027
1.440	1.539861	-6.139430	438.969519	-7.880257	15.971645	0.060901	-3.638441	-1.795172
1.450	1.566374	-5.939539	438.996000	-7.546652	15.997888	0.015423	-3.644199	-1.719071
1.460	1.569647	-5.753868	438.790563	-7.241906	16.022726	-0.029533	-3.651566	-1.650424
1.470	1.542428	-5.578146	438.456682	-6.974594	16.046026	-0.071257	-3.659661	-1.590715
1.480	1.483568	-5.411945	438.109716	-6.751153	16.067305	-0.107296	-3.667416	-1.540973
1.490	1.398590	-5.258762	437.846256	-6.574172	16.085535	-0.135862	-3.673786	-1.501480
1.500	1.298505	-5.125123	437.722567	-6.441172	16.099215	-0.156099	-3.677950	-1.471519
1.510	1.197285	-5.018907	437.748321	-6.344566	16.106752	-0.168115	-3.679455	-1.449364
1.520	1.108704	-4.947056	437.895649	-6.273111	16.106834	-0.172872	-3.678236	-1.432558
1.530	1.043555	-4.913070	438.117269	-6.214378	16.098458	-0.172038	-3.674463	-1.418428
1.540	1.008285	-4.914925	438.364600	-6.157256	16.080539	-0.167862	-3.668302	-1.404597
1.550	1.005464	-4.944013	438.598760	-6.093468	16.051495	-0.162973	-3.659722	-1.389304
1.560	1.035471	-4.985770	438.792752	-6.017758	16.009268	-0.159996	-3.648481	-1.371435
1.570	1.097991	-5.022367	438.928044	-5.927144	15.951946	-0.160967	-3.634296	-1.350368
1.580	1.192051	-5.036975	438.989996	-5.820090	15.878710	-0.166756	-3.617101	-1.325791
1.590	1.314360	-5.018035	438.965241	-5.696257	15.790604	-0.176751	-3.597233	-1.297656
1.600	1.457139	-4.961817	438.842982	-5.556980	15.690641	-0.188996	-3.575457	-1.266280
1.610	1.607400	-4.872494	438.621121	-5.406109	15.583063	-0.200759	-3.552739	-1.232524
1.620	1.749188	-4.760314	438.315256	-5.250681	15.472004	-0.209294	-3.529880	-1.197923
1.630	1.868628	-4.639199	437.964974	-5.100984	15.360138	-0.212523	-3.507161	-1.164701
1.640	1.959577	-4.524771	437.631118	-4.969658	15.247925	-0.209444	-3.484196	-1.135582
1.650	2.026830	-4.432820	437.381611	-4.869742	15.133772	-0.200176	-3.460084	-1.113385
1.660	2.084868	-4.377586	437.269850	-4.811878	15.014991	-0.185677	-3.433804	-1.100437
1.670	2.152565	-4.369330	437.314622	-4.801470	14.889103	-0.167276	-3.404666	-1.097944
1.680	2.246241	-4.411502	437.490498	-4.836886	14.755016	-0.146304	-3.372648	-1.105598
1.690	2.373960	-4.498653	437.733003	-4.909496	14.613792	-0.124033	-3.338517	-1.121573
1.700	2.533118	-4.616449	437.956812	-5.005553	14.468984	-0.101830	-3.303747	-1.142933
1.710	2.711773	-4.744364	438.080397	-5.109178	14.326453	-0.081251	-3.270280	-1.166265
1.720	2.892657	-4.860342	438.047960	-5.205481	14.193532	-0.063822	-3.240178	-1.188336
1.730	3.058050	-4.945808	437.840323	-5.283071	14.077516	-0.050536	-3.215217	-1.206621
1.740	3.193846	-4.989421	437.471868	-5.335491	13.983990	-0.041357	-3.196546	-1.219619
1.750	3.291976	-4.988748	436.978053	-5.361430	13.915694	-0.035071	-3.184529	-1.226933
1.760	3.351026	-4.949973	436.402114	-5.363945	13.872441	-0.029711	-3.178821	-1.229129
1.770	3.375254	-4.886261	435.787331	-5.349115	13.852037	-0.023472	-3.178623	-1.227460
1.780	3.372243	-4.815286	435.175099	-5.324625	13.851855	-0.015638	-3.183053	-1.223559
1.790	3.349521	-4.756122	434.604135	-5.298581	13.870534	-0.006938	-3.191533	-1.219174
1.800	3.310793	-4.725616	434.105789	-5.278577	13.909332	0.000945	-3.204134	-1.215966
1.810	3.253086	-4.734679	433.695145	-5.270877	13.972702	0.006423	-3.221780	-1.215341
1.820	3.166346	-4.785314	433.363810	-5.279596	14.067841	0.008909	-3.246197	-1.218283
1.830	3.036353	-4.869384	433.082050	-5.306076	14.203248	0.009046	-3.279574	-1.225189
1.840	2.850190	-4.969977	432.812665	-5.348779	14.386636	0.008170	-3.323987	-1.235819
1.850	2.601896	-5.065501	432.531504	-5.404023	14.622738	0.007410	-3.380734	-1.249394
1.860	2.295575	-5.135645	432.246186	-5.467595	14.911640	0.006956	-3.449803	-1.264926
1.870	1.944594	-5.167531	432.006497	-5.536945	15.248160	0.005875	-3.529614	-1.281681
1.880	1.567785	-5.160161	431.903203	-5.613218	15.622429	0.002602	-3.617114	-1.299647
1.890	1.185151	-5.125775	432.054144	-5.702059	16.021283	-0.004123	-3.708166	-1.319756
1.900	0.815189	-5.087586	432.578714	-5.812460	16.429817	-0.014331	-3.798110	-1.343677
1.910	0.474323	-5.074370	433.565693	-5.953792	16.832729	-0.026374	-3.882394	-1.373216
1.920	0.177424	-5.113258	435.043048	-6.132213	17.215476	-0.037257	-3.957189	-1.409565
1.930	-0.061854	-5.222654	436.958905	-6.347901	17.565412	-0.043710	-4.019923	-1.452745
1.940	-0.231677	-5.407107	439.179706	-6.594082	17.872805	-0.043578	-4.069588	-1.501454
1.950	-0.323502	-5.655428	441.506502	-6.858049	18.131398	-0.036875	-4.106711	-1.553329
1.960	-0.333776	-5.942468	443.705473	-7.123778	18.338341	-0.025981	-4.132999	-1.605520
1.970	-0.265182	-6.234254	445.545322	-7.375354	18.493614	-0.014861	-4.150782	-1.655354
1.980	-0.127062	-6.495390	446.833076	-7.600222	18.599300	-0.007675	-4.162472	-1.700909
1.990	0.064864	-6.696924	447.440866	-7.791402	18.659049	-0.007368	-4.170171	-1.741326
2.000	0.289200	-6.822568	447.318886	-7.948183	18.677911	-0.014759	-4.175525	-1.776849
2.010	0.520180	-6.871489	446.493715	-8.075365	18.662496	-0.028374	-4.179789	-1.808618
2.020	0.730136	-6.856970	445.055578	-8.181448	18.621217	-0.044951	-4.184021	-1.838298
2.030	0.893418	-6.801671	443.140640	-8.276364	18.564216	-0.060424	-4.189238	-1.867661
2.040	0.991050	-6.731407	440.913922	-8.369248	18.502730	-0.071118	-4.196450	-1.898159
2.050	1.014473	-6.669569	438.555642	-8.466660	18.447989	-0.074821	-4.206533	-1.930578
2.060	0.966537	-6.633444	436.250288	-8.571569	18.410041	-0.071389	-4.220064	-1.964828
2.070	0.858798	-6.632553	434.175576	-8.683364	18.396875	-0.062649	-4.237197	-1.999966
2.080	0.705950	-6.668503	432.489143	-8.798952	18.413976	-0.051696	-4.257674	-2.034491
2.090	0.519933	-6.735912	431.314070	-8.914643	18.464213	-0.041915	-4.280921	-2.066856
2.100	0.306613	-6.824267	430.726994	-9.028122	18.547854	-0.036109	-4.306174	-2.096020
2.110	0.066610	-6.920683	430.752086	-9.139718	18.662565	-0.035948	-4.332554	-2.121805
2.120	-0.200300	-7.013095	431.361362	-9.252451	18.803469	-0.041721	-4.359099	-2.144942
2.130	-0.489521	-7.092991	432.479725	-9.370931	18.963368	-0.052361	-4.384799	-2.166791
2.140	-0.787668	-7.156852	433.993359	-9.499625	19.133222	-0.065739	-4.408644	-2.188887
2.150	-1.072288	-7.206062	435.761122	-9.641235	19.302811	-0.079208	-4.429677	-2.212505
2.160	-1.315451	-7.245685	437.628581	-9.795674	19.461547	-0.090260	-4.447047	-2.238353
2.170	-1.489830	-7.282751	439.443093	-9.959879	19.599374	-0.097100	-4.460048	-2.266477
2.180	-1.575388	-7.324622	441.067900	-10.128405	19.707673	-0.098987	-4.468172	-2.296337
2.190	-1.564828	-7.377641	442.394223	-10.294643	19.780031	-0.096253	-4.471132	-2.327029
2.200	-1.466150	-7.445905	443.350957	-10.452320	19.812661	-0.090013	-4.468844	-2.357572
2.210	-1.301102	-7.530100	443.910373	-10.596831	19.804436	-0.081667	-4.461359	-2.387156
2.220	-1.099527	-7.626741	444.086516	-10.725971	19.756640	-0.072371	-4.448827	-2.415289
2.230	-0.891313	-7.728334	443.924352	-10.839835	19.672555	-0.062765	-4.431511	-2.441820
2.240	-0.698962	-7.824714	443.482782	-10.940065	19.556995	-0.053071	-4.409866	-2.466852
2.250	-0.533737	-7.905271	442.819335	-11.028935	19.415894	-0.043494	-4.384608	-2.490617
2.260	-0.396573	-7.961363	441.983545	-11.108845	19.256012	-0.034591	-4.356726	-2.513407
2.270	-0.282518	-7.988224	441.020125	-11.182386	19.084675	-0.027289	-4.327393	-2.535573
2.280	-0.185962	-7.986047	439.977307	-11.252676	18.909295	-0.022513	-4.297789	-2.557558
2.290	-0.104124	-7.960069	438.914139	-11.323430	18.736497	-0.020644	-4.268830	-2.579874
2.300	-0.037755	-7.919572	437.902442	-11.398572	18.571062	-0.021130	-4.240913	-2.602993
2.310	0.010493	-7.875988	437.021951	-11.481550	18.415106	-0.022440	-4.213771	-2.627225
