Time[s]	Fx[N]	Fy[N]	Fz[N]	Mx[Nm]	My[Nm]	Mz[Nm]	COPx[cm]	COPy[cm]
0.010	3.108273	-6.534481	564.500949	5.788606	6.875527	-1.384067	-1.217983	1.025438
0.020	3.245600	-6.647560	563.557029	5.390692	6.268843	-1.435041	-1.112371	0.956548
0.030	3.399788	-6.736997	562.738728	5.032071	5.676766	-1.486681	-1.008775	0.894211
0.040	3.582361	-6.782692	562.156678	4.744271	5.111095	-1.538656	-0.909194	0.843941
0.050	3.797223	-6.770413	561.894270	4.545211	4.578530	-1.589017	-0.814838	0.808909
0.060	4.042109	-6.694580	561.994948	4.437462	4.080263	-1.634444	-0.726032	0.789591
0.070	4.313070	-6.560883	562.452232	4.410513	3.613158	-1.671058	-0.642394	0.784158
0.080	4.608599	-6.387611	563.206181	4.445683	3.172049	-1.695385	-0.563213	0.789353
0.090	4.930075	-6.204015	564.150111	4.521714	2.752364	-1.705089	-0.487878	0.801509
0.100	5.278098	-6.044593	565.148809	4.619458	2.352231	-1.699260	-0.416214	0.817388
0.110	5.647507	-5.940205	566.064679	4.724825	1.973468	-1.678307	-0.348629	0.834679
0.120	6.024668	-5.909085	566.784254	4.829920	1.621301	-1.643640	-0.286053	0.852162
0.130	6.388769	-5.951737	567.237051	4.932715	1.302986	-1.597295	-0.229707	0.869604
0.140	6.716339	-6.052167	567.402137	5.035708	1.025746	-1.541606	-0.180779	0.887503
0.150	6.986696	-6.184701	567.302425	5.143978	0.794601	-1.479004	-0.140067	0.906743
0.160	7.186094	-6.322690	566.990324	5.263049	0.610726	-1.411980	-0.107714	0.928243
0.170	7.309432	-6.444926	566.530387	5.396934	0.470965	-1.343119	-0.083131	0.952629
0.180	7.359832	-6.537743	565.985026	5.546647	0.368614	-1.275070	-0.065128	0.979999
0.190	7.347082	-6.593733	565.407438	5.709473	0.295085	-1.210362	-0.052190	1.009798
0.200	7.285324	-6.609440	564.841968	5.879295	0.241756	-1.151110	-0.042801	1.040874
0.210	7.189537	-6.583582	564.328827	6.048142	0.201455	-1.098738	-0.035698	1.071741
0.220	7.070773	-6.515795	563.909153	6.208832	0.169293	-1.053786	-0.030021	1.101034
0.230	6.931922	-6.405408	563.627437	6.358116	0.142814	-1.015879	-0.025338	1.128071
0.240	6.766912	-6.250361	563.529830	6.499327	0.121485	-0.983888	-0.021558	1.153324
0.250	6.565076	-6.046895	563.658426	6.643354	0.105657	-0.956329	-0.018745	1.178613
0.260	6.319326	-5.790318	564.042515	6.807059	0.095399	-0.931945	-0.016913	1.206834
0.270	6.034013	-5.476545	564.687955	7.009113	0.089840	-0.910297	-0.015910	1.241237
0.280	5.727827	-5.103921	565.566570	7.264352	0.087461	-0.892042	-0.015464	1.284438
0.290	5.429245	-4.675096	566.609449	7.578564	0.087249	-0.878613	-0.015398	1.337529
0.300	5.166014	-4.198718	567.709274	7.945595	0.090146	-0.871335	-0.015879	1.399589
0.310	4.953861	-3.690174	568.734997	8.347797	0.099908	-0.870360	-0.017567	1.467783
0.320	4.790821	-3.170433	569.557403	8.759685	0.122695	-0.874017	-0.021542	1.537981
0.330	4.660888	-2.662982	570.078553	9.153637	0.165270	-0.878990	-0.028991	1.605680
0.340	4.545240	-2.190405	570.255183	9.505996	0.232494	-0.881309	-0.040770	1.666972
0.350	4.434539	-1.772666	570.107661	9.801886	0.325299	-0.877716	-0.057059	1.719304
0.360	4.335113	-1.427842	569.711320	10.037336	0.440146	-0.866811	-0.077258	1.761828
0.370	4.265789	-1.174009	569.173323	10.218080	0.570294	-0.849450	-0.100197	1.795249
0.380	4.247747	-1.030091	568.602918	10.355531	0.708383	-0.828267	-0.124583	1.821224
0.390	4.293247	-1.014008	568.084258	10.461554	0.849236	-0.806570	-0.149491	1.841550
0.400	4.398571	-1.137952	567.659593	10.544125	0.991780	-0.787210	-0.174714	1.857473
0.410	4.543486	-1.402178	567.327669	10.605454	1.139413	-0.771959	-0.200839	1.869370
0.420	4.696416	-1.789703	567.058100	10.643055	1.298811	-0.761549	-0.229044	1.876890
0.430	4.822952	-2.264423	566.817239	10.653076	1.477594	-0.756163	-0.260683	1.879455
0.440	4.895326	-2.774238	566.596020	10.634299	1.681494	-0.756026	-0.296771	1.876875
0.450	4.900841	-3.259326	566.427857	10.590910	1.911646	-0.761835	-0.337492	1.869772
0.460	4.847087	-3.663856	566.387374	10.532661	2.162689	-0.774832	-0.381839	1.859621
0.470	4.761397	-3.947789	566.568438	10.472281	2.422526	-0.796413	-0.427579	1.848370
0.480	4.682847	-4.094730	567.049226	10.421440	2.674434	-0.827345	-0.471641	1.837837
0.490	4.647999	-4.112765	567.857491	10.387312	2.901435	-0.866984	-0.510944	1.829211
0.500	4.675185	-4.028019	568.948691	10.371314	3.091564	-0.912977	-0.543382	1.822891
0.510	4.754285	-3.873893	570.204876	10.370280	3.241770	-0.961683	-0.568527	1.818694
0.520	4.847728	-3.680749	571.455594	10.379137	3.358585	-1.009095	-0.587724	1.816263
0.530	4.903694	-3.469906	572.514847	10.393644	3.455193	-1.051777	-0.603511	1.815436
0.540	4.876113	-3.253031	573.222194	10.412139	3.546352	-1.087453	-0.618670	1.816423
0.550	4.742132	-3.035425	573.474640	10.435961	3.643589	-1.115146	-0.635353	1.819777
0.560	4.508985	-2.820482	573.240392	10.468775	3.752773	-1.134984	-0.654659	1.826245
0.570	4.207823	-2.612915	572.553087	10.515351	3.874769	-1.147800	-0.676753	1.836572
0.580	3.878475	-2.419528	571.491343	10.580345	4.008400	-1.154759	-0.701393	1.851357
0.590	3.552754	-2.247735	570.151693	10.667442	4.154034	-1.157174	-0.728584	1.870983
0.600	3.243554	-2.102921	568.624349	10.778935	4.316187	-1.156575	-0.759058	1.895616
0.610	2.943314	-1.985928	566.980749	10.915569	4.504060	-1.154810	-0.794394	1.925210
0.620	2.631127	-1.891642	565.277712	11.076549	4.729788	-1.153889	-0.836719	1.959488
0.630	2.284860	-1.809275	563.575370	11.259689	5.004988	-1.155420	-0.888078	1.997903
0.640	1.893628	-1.724477	561.958378	11.461752	5.336820	-1.159891	-0.949682	2.039609
0.650	1.466268	-1.622645	560.547025	11.678938	5.724983	-1.166228	-1.021321	2.083489
0.660	1.032551	-1.492258	559.489242	11.907502	6.160773	-1.171989	-1.101142	2.128281
0.670	0.635934	-1.327175	558.933765	12.144384	6.628681	-1.174255	-1.185951	2.172777
0.680	0.319469	-1.127567	558.993971	12.387632	7.110209	-1.170897	-1.271965	2.216058
0.690	0.109567	-0.899844	559.716089	12.636279	7.588810	-1.161582	-1.355832	2.257623
0.700	0.003993	-0.656229	561.062820	12.889434	8.054361	-1.147891	-1.435554	2.297325
0.710	-0.030749	-0.414117	562.916504	13.144850	8.505668	-1.132367	-1.511000	2.335133
0.720	-0.051445	-0.194621	565.099514	13.397689	8.950143	-1.117036	-1.583817	2.370855
0.730	-0.122937	-0.019489	567.405887	13.640316	9.400804	-1.102305	-1.656804	2.403979
0.740	-0.301428	0.093651	569.636604	13.863544	9.871681	-1.086956	-1.732979	2.433752
0.750	-0.621650	0.136542	571.630276	14.059230	10.373198	-1.069168	-1.814669	2.459497
0.760	-1.090739	0.113951	573.282076	14.223454	10.908909	-1.047921	-1.902887	2.481057
0.770	-1.688737	0.043632	574.547831	14.358953	11.474270	-1.023948	-1.997096	2.499174
0.780	-2.373687	-0.048329	575.436125	14.475442	12.057231	-0.999762	-2.095320	2.515560
0.790	-3.088709	-0.135601	575.995162	14.587274	12.639932	-0.978794	-2.194451	2.532534
0.800	-3.769243	-0.199927	576.299765	14.709246	13.200778	-0.964078	-2.290610	2.552360
0.810	-4.350010	-0.235969	576.438402	14.852369	13.716592	-0.957100	-2.379542	2.576575
0.820	-4.772621	-0.250507	576.496082	15.021307	14.165016	-0.957270	-2.457088	2.605622
0.830	-4.995197	-0.256566	576.531630	15.214229	14.527418	-0.962169	-2.519796	2.638924
0.840	-5.003937	-0.265448	576.555779	15.424598	14.792157	-0.968356	-2.565607	2.675300
0.850	-4.823196	-0.280273	576.522006	15.643913	14.957317	-0.972365	-2.594405	2.713498
0.860	-4.517702	-0.293466	576.338601	15.864497	15.031633	-0.971571	-2.608125	2.752635
0.870	-4.181386	-0.288558	575.899596	16.081699	15.032739	-0.964756	-2.610306	2.792448
0.880	-3.913303	-0.244939	575.121754	16.294906	14.982958	-0.952284	-2.605180	2.833297
0.890	-3.788867	-0.143542	573.972133	16.506870	14.903940	-0.935898	-2.596631	2.875901
0.900	-3.838205	0.028059	572.477083	16.721455	14.812035	-0.918158	-2.587359	2.920895
0.910	-4.040035	0.271823	570.713891	16.940740	14.716009	-0.901715	-2.578526	2.968342
0.920	-4.331701	0.577161	568.793611	17.162792	14.617660	-0.888657	-2.569941	3.017402
0.930	-4.629516	0.921195	566.844138	17.381126	14.514573	-0.880128	-2.560593	3.066297
0.940	-4.851407	1.271795	564.997976	17.585992	14.403413	-0.876249	-2.549286	3.112576
0.950	-4.935398	1.593133	563.383573	17.766832	14.282325	-0.876290	-2.535098	3.153594
0.960	-4.850334	1.852554	562.116382	17.914783	14.151801	-0.879072	-2.517593	3.187024
0.970	-4.598013	2.026878	561.286962	18.024304	14.014290	-0.883483	-2.496814	3.211246
0.980	-4.208009	2.106270	560.947311	18.093675	13.873221	-0.888927	-2.473177	3.225557
0.990	-3.727796	2.094623	561.100375	18.124793	13.732019	-0.895481	-2.447337	3.230223
1.000	-3.211004	2.006861	561.698459	18.122853	13.593384	-0.903757	-2.420050	3.226438
1.010	-2.706260	1.864624	562.653272	18.096031	13.458862	-0.914576	-2.392035	3.216196
1.020	-2.248725	1.692021	563.855264	18.054731	13.328620	-0.928559	-2.363837	3.202015
1.030	-1.856183	1.512340	565.195611	18.009957	13.201398	-0.945735	-2.335722	3.186500
1.040	-1.530683	1.345658	566.582765	17.970861	13.074643	-0.965300	-2.307632	3.171798
1.050	-1.264718	1.206835	567.947776	17.942190	12.944893	-0.985697	-2.279240	3.159127
1.060	-1.048829	1.103815	569.237951	17.922667	12.808425	-1.005089	-2.250100	3.148537
1.070	-0.876874	1.036800	570.404378	17.905067	12.662170	-1.022072	-2.219859	3.139013
1.080	-0.746886	0.999030	571.391970	17.878176	12.504766	-1.036281	-2.188474	3.128881
1.090	-0.658137	0.979312	572.138751	17.830150	12.337448	-1.048552	-2.156373	3.116403
1.100	-0.606896	0.965564	572.584882	17.752187	12.164318	-1.060565	-2.124457	3.100359
1.110	-0.583639	0.948024	572.685851	17.641199	11.991639	-1.074180	-2.093930	3.080432
1.120	-0.573452	0.921008	572.422722	17.500537	11.826331	-1.090819	-2.066014	3.057275
1.130	-0.559711	0.882967	571.805766	17.338717	11.674414	-1.111119	-2.041675	3.032274
1.140	-0.529280	0.835450	570.872647	17.166908	11.540184	-1.134879	-2.021499	3.007134
1.150	-0.476356	0.781816	569.684626	16.996193	11.426365	-1.161197	-2.005735	2.983439
1.160	-0.402770	0.726153	568.322949	16.835388	11.334843	-1.188668	-1.994437	2.962293
1.170	-0.314748	0.672337	566.884727	16.689781	11.267305	-1.215581	-1.987583	2.944122
1.180	-0.218229	0.623036	565.476227	16.560908	11.225326	-1.240117	-1.985110	2.928666
1.190	-0.115262	0.578883	564.202593	16.447249	11.209938	-1.260547	-1.986864	2.915132
1.200	-0.003212	0.538370	563.155282	16.345591	11.221150	-1.275418	-1.992550	2.902502
1.210	0.122680	0.498933	562.400136	16.252635	11.257979	-1.283709	-2.001774	2.889870
1.220	0.263957	0.458961	561.968680	16.166322	11.319266	-1.284950	-2.014216	2.876730
1.230	0.412808	0.419575	561.853818	16.086475	11.405003	-1.279333	-2.029888	2.863107
1.240	0.548373	0.384739	562.010651	16.014630	11.517539	-1.267764	-2.049345	2.849524
1.250	0.638439	0.358995	562.364184	15.953135	11.661893	-1.251744	-2.073726	2.836798
1.260	0.647062	0.343690	562.826039	15.903824	11.844791	-1.233056	-2.104521	2.825709
1.270	0.545509	0.333937	563.319412	15.866760	12.072566	-1.213338	-2.143112	2.816654
1.280	0.322372	0.318566	563.805753	15.839608	12.348540	-1.193722	-2.190212	2.809409
1.290	-0.010444	0.283638	564.302248	15.817895	12.670636	-1.174669	-2.245363	2.803089
1.300	-0.417107	0.217955	564.880386	15.795942	13.029863	-1.156054	-2.306659	2.796334
1.310	-0.842578	0.117928	565.643086	15.768010	13.410165	-1.137455	-2.370782	2.787625
1.320	-1.222295	-0.010467	566.686615	15.729237	13.789975	-1.118531	-2.433439	2.775650
1.330	-1.496214	-0.153534	568.059276	15.676162	14.145579	-1.099287	-2.490159	2.759600
1.340	-1.625002	-0.294755	569.730162	15.606882	14.455803	-1.080131	-2.537307	2.739346
1.350	-1.603829	-0.420665	571.578981	15.521032	14.706737	-1.061721	-2.573002	2.715466
1.360	-1.467783	-0.525197	573.412380	15.419753	14.894705	-1.044754	-2.597555	2.689121
1.370	-1.284512	-0.610715	575.003955	15.305571	15.026114	-1.029748	-2.613219	2.661820
1.380	-1.134420	-0.685507	576.146532	15.181990	15.114190	-1.016899	-2.623324	2.635092
1.390	-1.084923	-0.759294	576.700084	15.052804	15.173995	-1.006058	-2.631176	2.610162
1.400	-1.169073	-0.839123	576.619804	14.921435	15.217796	-0.996835	-2.639139	2.587742
1.410	-1.377416	-0.927451	575.956663	14.790616	15.252445	-0.988751	-2.648193	2.568008
1.420	-1.665699	-1.022583	574.833879	14.662338	15.279307	-0.981339	-2.658039	2.550709
1.430	-1.973640	-1.120488	573.410985	14.537775	15.296130	-0.974162	-2.667568	2.535315
1.440	-2.245807	-1.216828	571.848914	14.416952	15.299592	-0.966818	-2.675460	2.521112
1.450	-2.446400	-1.308617	570.285724	14.298272	15.287374	-0.958949	-2.680652	2.507212
1.460	-2.564043	-1.395474	568.826374	14.178113	15.259162	-0.950237	-2.682569	2.492520
1.470	-2.607440	-1.480783	567.544025	14.050701	15.216583	-0.940352	-2.681128	2.475702
1.480	-2.595968	-1.572945	566.486881	13.908461	15.162459	-0.928875	-2.676577	2.455213
1.490	-2.550028	-1.686220	565.685181	13.743051	15.099923	-0.915237	-2.669316	2.429452
1.500	-2.484766	-1.839882	565.156343	13.547167	15.031843	-0.898741	-2.659767	2.397065
1.510	-2.408381	-2.054370	564.908753	13.316797	14.960657	-0.878720	-2.648332	2.357336
1.520	-2.323769	-2.344419	564.944226	13.053237	14.888401	-0.854871	-2.635375	2.310536
1.530	-2.230862	-2.711180	565.257678	12.764018	14.816582	-0.827727	-2.621209	2.258088
1.540	-2.127486	-3.136795	565.832989	12.462198	14.745789	-0.799089	-2.606032	2.202452
1.550	-2.008437	-3.584676	566.636103	12.164065	14.675231	-0.772141	-2.589886	2.146716
1.560	-1.864421	-4.006613	567.608057	11.885967	14.602662	-0.750988	-2.572666	2.094045
1.570	-1.683221	-4.354835	568.661455	11.641270	14.524963	-0.739611	-2.554237	2.047135
1.580	-1.454391	-4.594612	569.684461	11.438291	14.439303	-0.740546	-2.534614	2.007829
1.590	-1.176272	-4.712619	570.555087	11.279511	14.344364	-0.753823	-2.514107	1.976936
1.600	-0.861782	-4.718308	571.164044	11.161966	14.241108	-0.776662	-2.493348	1.954249
1.610	-0.538972	-4.638777	571.438687	11.078482	14.132714	-0.804089	-2.473181	1.938700
1.620	-0.244787	-4.509895	571.358054	11.019367	14.023739	-0.830259	-2.454457	1.928627
1.630	-0.014336	-4.366919	570.952479	10.974224	13.918947	-0.850018	-2.437847	1.922091
1.640	0.129404	-4.237159	570.288903	10.933713	13.822382	-0.860191	-2.423751	1.917224
1.650	0.180951	-4.136220	569.449760	10.891156	13.737079	-0.860205	-2.412343	1.912575
1.660	0.151115	-4.068063	568.514981	10.843821	13.665319	-0.851920	-2.403687	1.907394
1.670	0.060873	-4.027808	567.552998	10.793497	13.608954	-0.838818	-2.397830	1.901760
1.680	-0.066212	-4.005671	566.620893	10.745943	13.569379	-0.824896	-2.394790	1.896496
1.690	-0.209705	-3.990662	565.769691	10.709054	13.547053	-0.813684	-2.394447	1.892829
1.700	-0.354407	-3.973331	565.049826	10.690200	13.540946	-0.807613	-2.396416	1.891904
1.710	-0.489276	-3.947174	564.512866	10.693756	13.548373	-0.807765	-2.400011	1.894333
1.720	-0.605281	-3.908580	564.207097	10.719872	13.565463	-0.813966	-2.404341	1.899989
1.730	-0.694537	-3.855394	564.166868	10.765048	13.588207	-0.825149	-2.408544	1.908132
1.740	-0.751629	-3.784583	564.399437	10.824175	13.613649	-0.839955	-2.412059	1.917822
1.750	-0.776142	-3.690159	564.876149	10.893041	13.640707	-0.857370	-2.414814	1.928395
1.760	-0.774402	-3.562930	565.533919	10.970095	13.670282	-0.877078	-2.417235	1.939777
1.770	-0.758916	-3.393149	566.288094	11.056715	13.704760	-0.899341	-2.420104	1.952489
1.780	-0.745347	-3.175527	567.052416	11.155985	13.747211	-0.924491	-2.424328	1.967364
1.790	-0.748103	-2.914172	567.759012	11.270760	13.800613	-0.952339	-2.430717	1.985131
1.800	-0.776148	-2.624395	568.371469	11.402054	13.867279	-0.981846	-2.439827	2.006092
1.810	-0.830504	-2.329743	568.886183	11.548533	13.948497	-1.011182	-2.451896	2.030025
1.820	-0.904376	-2.055278	569.321440	11.707075	14.044298	-1.038154	-2.466849	2.056321
1.830	-0.986076	-1.820312	569.699162	11.873729	14.153296	-1.060851	-2.484346	2.084210
1.840	-1.063819	-1.634108	570.027719	12.044275	14.272767	-1.078204	-2.503872	2.112928
1.850	-1.130704	-1.496337	570.292620	12.214088	14.399208	-1.090211	-2.524881	2.141723
1.860	-1.188242	-1.401402	570.456872	12.377606	14.529495	-1.097706	-2.546993	2.169771
1.870	-1.247453	-1.343716	570.468786	12.528019	14.662366	-1.101834	-2.570231	2.196092
1.880	-1.327279	-1.320776	570.274365	12.657710	14.799637	-1.103488	-2.595178	2.219582
1.890	-1.450534	-1.332549	569.832690	12.759512	14.946409	-1.102929	-2.622947	2.239168
1.900	-1.637933	-1.378149	569.132821	12.828474	15.109794	-1.099683	-2.654880	2.254039
1.910	-1.901152	-1.452353	568.208669	12.863487	15.296305	-1.092745	-2.692023	2.263867
1.920	-2.236546	-1.544252	567.146000	12.868214	15.508851	-1.081049	-2.734543	2.268942
1.930	-2.621913	-1.638709	566.076301	12.851045	15.744607	-1.064140	-2.781358	2.270197
1.940	-3.018529	-1.719842	565.156164	12.824250	15.994757	-1.042881	-2.830148	2.269152
1.950	-3.379026	-1.775243	564.536173	12.802595	16.246239	-1.019920	-2.877803	2.267808
1.960	-3.659169	-1.799686	564.327347	12.801528	16.484875	-0.999542	-2.921155	2.268458
1.970	-3.829786	-1.796993	564.574879	12.834868	16.698827	-0.986693	-2.957770	2.273369
1.980	-3.884900	-1.778893	565.247232	12.912144	16.881312	-0.985351	-2.986536	2.284336
1.990	-3.843468	-1.760584	566.243921	13.036336	17.031821	-0.996894	-3.007859	2.302247
2.000	-3.744117	-1.754236	567.419414	13.203089	17.155697	-1.019273	-3.023460	2.326866
2.010	-3.634398	-1.762946	568.615725	13.401984	17.262351	-1.047483	-3.035855	2.356949
2.020	-3.558043	-1.778003	569.694269	13.619445	17.362600	-1.075177	-3.047705	2.390659
2.030	-3.544549	-1.781224	570.559222	13.842049	17.465684	-1.096734	-3.061152	2.426050
2.040	-3.604426	-1.752108	571.168500	14.059077	17.576661	-1.108855	-3.077316	2.461459
2.050	-3.731019	-1.677225	571.531956	14.263791	17.694993	-1.111071	-3.096064	2.495712
2.060	-3.907174	-1.557768	571.698489	14.453531	17.814849	-1.105113	-3.116127	2.528174
2.070	-4.113282	-1.411383	571.735214	14.628912	17.926987	-1.093616	-3.135540	2.558686
2.080	-4.333087	-1.266736	571.703752	14.792350	18.021460	-1.078877	-3.152237	2.587415
2.090	-4.555471	-1.152834	571.640287	14.946218	18.090120	-1.062152	-3.164598	2.614619
2.100	-4.773076	-1.087813	571.545513	15.091177	18.128234	-1.043631	-3.171792	2.640416
2.110	-4.980223	-1.072206	571.387717	15.225473	18.135044	-1.022862	-3.173860	2.664648
2.120	-5.172128	-1.089460	571.118697	15.345662	18.113396	-0.999300	-3.171564	2.686948
2.130	-5.345438	-1.113143	570.698420	15.448570	18.068602	-0.972712	-3.166051	2.706959
2.140	-5.498555	-1.117567	570.120468	15.533435	18.006578	-0.943298	-3.158381	2.724588
2.150	-5.630391	-1.087488	569.428298	15.603058	17.931546	-0.911594	-3.149044	2.740127
2.160	-5.737892	-1.023117	568.714627	15.663358	17.843998	-0.878304	-3.137601	2.754168
2.170	-5.814475	-0.938633	568.102466	15.721751	17.739960	-0.844239	-3.122669	2.767415
2.180	-5.851599	-0.855038	567.713655	15.785378	17.612177	-0.810442	-3.102299	2.780518
2.190	-5.843787	-0.790445	567.635963	15.860215	17.452956	-0.778441	-3.074674	2.794082
2.200	-5.794478	-0.751628	567.900657	15.951333	17.257293	-0.750387	-3.038787	2.808825
2.210	-5.718486	-0.729951	568.478240	16.063859	17.024657	-0.728892	-2.994777	2.825765
2.220	-5.637848	-0.703102	569.292668	16.203679	16.758433	-0.716550	-2.943729	2.846283
2.230	-5.571445	-0.642031	570.247352	16.377109	16.463401	-0.715312	-2.887063	2.871931
2.240	-5.522747	-0.520660	571.252357	16.589274	16.142620	-0.725977	-2.825830	2.904018
2.250	-5.471908	-0.324865	572.242587	16.841726	15.795241	-0.747991	-2.760235	2.943109
2.260	-5.376878	-0.057558	573.180987	17.130320	15.416096	-0.779608	-2.689569	2.988641
2.270	-5.184149	0.261645	574.047595	17.444383	14.997132	-0.818334	-2.612524	3.038839
2.280	-4.845350	0.601655	574.821247	17.767641	14.530164	-0.861508	-2.527771	3.090985
2.290	-4.333409	0.928038	575.462760	18.080677	14.010057	-0.906857	-2.434572	3.141937
2.300	-3.652449	1.211477	575.906365	18.364219	13.437289	-0.952831	-2.333242	3.188751
2.310	-2.838257	1.434068	576.062881	18.602308	12.818975	-0.998592	-2.225274	3.229215
2.320	-1.949489	1.591672	575.835046	18.784566	12.167923	-1.043657	-2.113092	3.262144
2.330	-1.052634	1.691927	575.141796	18.907026	11.500062	-1.087394	-1.999518	3.287368
2.340	-0.205800	1.749149	573.944287	18.971505	10.831294	-1.128617	-1.887168	3.305461
