Time[s]	Fx[N]	Fy[N]	Fz[N]	Mx[Nm]	My[Nm]	Mz[Nm]	COPx[cm]	COPy[cm]
0.010	1.805657	-0.502143	603.111882	8.295554	-0.874564	-0.224822	0.145009	1.375459
0.020	2.073694	-0.408926	603.426487	8.150380	-1.047523	-0.215528	0.173596	1.350683
0.030	2.330458	-0.353408	603.767464	7.997193	-1.223934	-0.209255	0.202716	1.324549
0.040	2.566739	-0.369354	604.149162	7.829363	-1.406380	-0.208418	0.232787	1.295932
0.050	2.778118	-0.483000	604.560828	7.641309	-1.595979	-0.214177	0.263990	1.263944
0.060	2.967060	-0.709157	604.965560	7.429239	-1.791998	-0.226015	0.296215	1.228043
0.070	3.143339	-1.047975	605.307074	7.191748	-1.991935	-0.241750	0.329078	1.188116
0.080	3.321847	-1.483767	605.520802	6.929932	-2.192056	-0.258127	0.362012	1.144458
0.090	3.518022	-1.987023	605.545171	6.646845	-2.388111	-0.271909	0.394374	1.097663
0.100	3.742560	-2.519429	605.330801	6.346573	-2.576008	-0.281104	0.425554	1.048447
0.110	3.997516	-3.040255	604.847579	6.033576	-2.752269	-0.285760	0.455035	0.997537
0.120	4.275429	-3.512029	604.089952	5.713013	-2.914194	-0.287905	0.482411	0.945722
0.130	4.561688	-3.904289	603.079826	5.392041	-3.059699	-0.290641	0.507346	0.894084
0.140	4.838906	-4.195629	601.865989	5.081165	-3.186948	-0.296836	0.529511	0.844235
0.150	5.091125	-4.375050	600.519492	4.794189	-3.294013	-0.307998	0.548527	0.798340
0.160	5.306128	-4.443206	599.125364	4.545882	-3.378711	-0.323765	0.563941	0.758753
0.170	5.475275	-4.413207	597.771309	4.347783	-3.438496	-0.342064	0.575219	0.727332
0.180	5.591452	-4.309989	596.534388	4.203768	-3.470117	-0.359678	0.581713	0.704698
0.190	5.646358	-4.167240	595.468432	4.107378	-3.468924	-0.372872	0.582554	0.689773
0.200	5.628554	-4.021541	594.597217	4.042471	-3.428231	-0.377847	0.576564	0.679867
0.210	5.523537	-3.904750	593.918570	3.987462	-3.339457	-0.371110	0.562275	0.671382
0.220	5.316797	-3.837257	593.420753	3.921960	-3.193669	-0.349937	0.538180	0.660907
0.230	5.000145	-3.825347	593.106577	3.833429	-2.984632	-0.313094	0.503220	0.646331
0.240	4.580399	-3.864291	593.015928	3.721459	-2.712680	-0.261680	0.457438	0.627548
0.250	4.087510	-3.945528	593.235883	3.598300	-2.387992	-0.199676	0.402537	0.606555
0.260	3.577376	-4.063541	593.889867	3.485701	-2.031472	-0.133754	0.342062	0.586927
0.270	3.124531	-4.218041	595.103849	3.409265	-1.671992	-0.072107	0.280958	0.572886
0.280	2.803249	-4.409898	596.957329	3.392099	-1.340190	-0.022480	0.224504	0.568231
0.290	2.661906	-4.633121	599.435952	3.449604	-1.060766	0.009958	0.176961	0.575475
0.300	2.701172	-4.867773	602.405362	3.586794	-0.846212	0.024083	0.140472	0.595412
0.310	2.867520	-5.078540	605.619438	3.798611	-0.694492	0.022914	0.114675	0.627227
0.320	3.067610	-5.220630	608.762649	4.072679	-0.591454	0.012245	0.097157	0.669009
0.330	3.199043	-5.250538	611.512824	4.393220	-0.516744	-0.001630	0.084503	0.718418
0.340	3.184756	-5.136577	613.603506	4.744704	-0.450626	-0.014066	0.073439	0.773252
0.350	2.996876	-4.865069	614.866225	5.114220	-0.379148	-0.023239	0.061664	0.831761
0.360	2.661535	-4.441381	615.241981	5.492236	-0.296230	-0.030006	0.048149	0.892695
0.370	2.245246	-3.887647	614.764968	5.872235	-0.202805	-0.036825	0.032989	0.955200
0.380	1.830707	-3.239266	613.533226	6.250149	-0.104326	-0.046439	0.017004	1.018714
0.390	1.492216	-2.540898	611.683252	6.624246	-0.008056	-0.060900	0.001317	1.082954
0.400	1.278411	-1.841435	609.377464	6.995404	0.079034	-0.081162	-0.012970	1.147959
0.410	1.205489	-1.187304	606.801360	7.367174	0.151634	-0.107124	-0.024989	1.214100
0.420	1.260226	-0.614393	604.159800	7.745039	0.206906	-0.137906	-0.034247	1.281952
0.430	1.409809	-0.140431	601.663340	8.134789	0.244830	-0.172097	-0.040692	1.352050
0.440	1.614412	0.239208	599.503547	8.540471	0.268048	-0.207826	-0.044712	1.424591
0.450	1.838380	0.549692	597.824657	8.962641	0.281159	-0.242664	-0.047030	1.499209
0.460	2.056980	0.828492	596.702786	9.397670	0.289549	-0.273535	-0.048525	1.574933
0.470	2.257735	1.113227	596.141311	9.838504	0.298068	-0.296894	-0.050000	1.650364
0.480	2.437592	1.429923	596.084113	10.276627	0.309935	-0.309223	-0.051995	1.724023
0.490	2.598405	1.785831	596.440555	10.704355	0.326160	-0.307746	-0.054684	1.794706
0.500	2.743046	2.168871	597.111630	11.116351	0.345505	-0.291085	-0.057863	1.861687
0.510	2.873180	2.553041	598.008379	11.509610	0.364794	-0.259612	-0.061002	1.924657
0.520	2.988450	2.906976	599.059655	11.881927	0.379375	-0.215395	-0.063328	1.983430
0.530	3.086263	3.202160	600.211716	12.229630	0.383681	-0.161783	-0.063924	2.037553
0.540	3.161854	3.418270	601.423577	12.545782	0.371911	-0.102820	-0.061838	2.086014
0.550	3.209114	3.544773	602.660875	12.819921	0.338765	-0.042673	-0.056212	2.127220
0.560	3.222936	3.579604	603.889586	13.039659	0.280043	0.014804	-0.046373	2.159279
0.570	3.203038	3.526753	605.070330	13.193595	0.192896	0.066320	-0.031880	2.180506
0.580	3.157544	3.394596	606.154359	13.274356	0.075738	0.109253	-0.012495	2.189930
0.590	3.103389	3.195677	607.083043	13.280575	-0.071922	0.141658	0.011847	2.187604
0.600	3.061515	2.947251	607.791973	13.217122	-0.249367	0.162261	0.041028	2.174613
0.610	3.048099	2.671241	608.218458	13.093641	-0.454179	0.170542	0.074674	2.152786
0.620	3.066301	2.392681	608.309280	12.922179	-0.681572	0.166902	0.112044	2.124278
0.630	3.103444	2.136528	608.026477	12.714799	-0.924026	0.152854	0.151971	2.091159
0.640	3.135646	1.923366	607.352077	12.481819	-1.171678	0.131092	0.192916	2.055121
0.650	3.137967	1.764794	606.294802	12.230837	-1.413711	0.105273	0.233172	2.017309
0.660	3.095726	1.659537	604.899901	11.966447	-1.640522	0.079412	0.271205	1.978252
0.670	3.012583	1.591600	603.258268	11.690601	-1.845971	0.056986	0.306000	1.937910
0.680	2.912342	1.531947	601.506844	11.403678	-2.028782	0.040026	0.337283	1.895852
0.690	2.833782	1.444553	599.813304	11.106296	-2.192363	0.028543	0.365508	1.851625
0.700	2.820252	1.296287	598.345114	10.801444	-2.343024	0.020517	0.391584	1.805220
0.710	2.907540	1.068236	597.232423	10.495939	-2.487300	0.012472	0.416471	1.757430
0.720	3.113828	0.764617	596.539353	10.200166	-2.629420	0.000537	0.440779	1.709890
0.730	3.434469	0.415393	596.255138	9.925850	-2.769764	-0.018356	0.464527	1.664699
0.740	3.842486	0.070422	596.307298	9.682785	-2.904649	-0.045557	0.487106	1.623791
0.750	4.293863	-0.213735	596.589638	9.476136	-3.027255	-0.080441	0.507427	1.588384
0.760	4.735611	-0.390016	596.993131	9.305553	-3.129169	-0.120851	0.524155	1.558737
0.770	5.114694	-0.434391	597.429087	9.166127	-3.202019	-0.163931	0.535966	1.534262
0.780	5.386729	-0.352372	597.839869	9.050185	-3.238898	-0.206937	0.541767	1.513814
0.790	5.523825	-0.177146	598.198969	8.948755	-3.235501	-0.247717	0.540874	1.495950
0.800	5.520471	0.039292	598.505575	8.852276	-3.190923	-0.284791	0.533148	1.479063
0.810	5.395704	0.239265	598.777972	8.750996	-3.108050	-0.317184	0.519065	1.461476
0.820	5.189922	0.373445	599.047492	8.635738	-2.993390	-0.344208	0.499692	1.441578
0.830	4.955927	0.412472	599.352672	8.499381	-2.856232	-0.365298	0.476553	1.418093
0.840	4.745661	0.353394	599.732844	8.338587	-2.707064	-0.379908	0.451378	1.390384
0.850	4.595928	0.219514	600.221164	8.154833	-2.555576	-0.387437	0.425772	1.358638
0.860	4.517483	0.053671	600.837989	7.953892	-2.408894	-0.387251	0.400922	1.323800
0.870	4.491702	-0.093590	601.585776	7.743723	-2.270776	-0.378917	0.377465	1.287218
0.880	4.477059	-0.178214	602.446918	7.531517	-2.142155	-0.362663	0.355576	1.250155
0.890	4.424193	-0.175521	603.385701	7.321093	-2.022776	-0.339812	0.335238	1.213335
0.900	4.294525	-0.088057	604.354118	7.111594	-1.913081	-0.312873	0.316550	1.176726
0.910	4.075291	0.054100	605.299526	6.897894	-1.815309	-0.285133	0.299903	1.139584
0.920	3.785072	0.200753	606.171982	6.672398	-1.733317	-0.259844	0.285945	1.100743
0.930	3.468190	0.294463	606.930049	6.427473	-1.671346	-0.239347	0.275377	1.059014
0.940	3.181103	0.284896	607.544030	6.157435	-1.632572	-0.224444	0.268717	1.013496
0.950	2.976417	0.140280	607.995088	5.859327	-1.618182	-0.214280	0.266150	0.963713
0.960	2.889535	-0.147379	608.269691	5.532368	-1.627224	-0.206769	0.267517	0.909525
0.970	2.930905	-0.564411	608.351982	5.176739	-1.656986	-0.199450	0.272373	0.850945
0.980	3.084974	-1.083381	608.219773	4.792544	-1.703494	-0.190520	0.280079	0.787962
0.990	3.315639	-1.673150	607.849309	4.379350	-1.761930	-0.179729	0.289863	0.720466
1.000	3.576577	-2.306856	607.228758	3.936268	-1.827050	-0.168774	0.300883	0.648235
1.010	3.823471	-2.964617	606.373377	3.462387	-1.893678	-0.160996	0.312296	0.570999
1.020	4.024401	-3.630270	605.332404	2.957476	-1.957192	-0.160452	0.323325	0.488571
1.030	4.165330	-4.284612	604.182337	2.422785	-2.013801	-0.170682	0.333310	0.401002
1.040	4.249458	-4.899937	603.009919	1.861499	-2.060525	-0.193574	0.341707	0.308701
1.050	4.291506	-5.440611	601.893616	1.278371	-2.094996	-0.228599	0.348067	0.212391
1.060	4.309588	-5.871446	600.891346	0.678521	-2.115290	-0.272576	0.352025	0.112919
1.070	4.317774	-6.171100	600.037302	0.066051	-2.119850	-0.320011	0.353286	0.011008
1.080	4.321557	-6.344272	599.346400	-0.556527	-2.107460	-0.363989	0.351626	-0.092856
1.090	4.317038	-6.426351	598.822782	-1.187420	-2.077267	-0.397529	0.346892	-0.198292
1.100	4.293310	-6.477539	598.468546	-1.823527	-2.029035	-0.415081	0.339038	-0.304699
1.110	4.236943	-6.568043	598.289766	-2.458186	-1.963694	-0.413804	0.328218	-0.410869
1.120	4.137357	-6.759390	598.298064	-3.079811	-1.884048	-0.394290	0.314901	-0.514762
1.130	3.991808	-7.087815	598.507155	-3.672050	-1.795231	-0.360493	0.299951	-0.613535
1.140	3.808358	-7.554493	598.925288	-4.215496	-1.704478	-0.318828	0.284589	-0.703843
1.150	3.605246	-8.124828	599.546414	-4.690342	-1.620059	-0.276580	0.270214	-0.782315
1.160	3.406037	-8.736132	600.343862	-5.079239	-1.549645	-0.240058	0.258126	-0.846055
1.170	3.231981	-9.310846	601.269479	-5.369628	-1.498842	-0.213073	0.249280	-0.893049
1.180	3.095130	-9.771744	602.259024	-5.555146	-1.470575	-0.196273	0.244176	-0.922385
1.190	2.996105	-10.056084	603.242285	-5.635871	-1.465546	-0.187557	0.242945	-0.934263
1.200	2.927954	-10.126386	604.154382	-5.617520	-1.483254	-0.183368	0.245509	-0.929815
1.210	2.883308	-9.976016	604.944074	-5.509867	-1.522773	-0.180222	0.251721	-0.910806
1.220	2.859521	-9.628083	605.576695	-5.324698	-1.582803	-0.175760	0.261371	-0.879277
1.230	2.858260	-9.127484	606.032424	-5.073544	-1.661218	-0.168903	0.274114	-0.837174
1.240	2.880803	-8.528056	606.302317	-4.765464	-1.754757	-0.159211	0.289419	-0.785988
1.250	2.923856	-7.878775	606.384028	-4.405451	-1.859355	-0.146092	0.306630	-0.726512
1.260	2.980039	-7.213151	606.278008	-3.994149	-1.971025	-0.128473	0.325103	-0.658798
1.270	3.042843	-6.544660	605.984676	-3.529255	-2.086671	-0.105134	0.344344	-0.582400
1.280	3.111656	-5.869126	605.503393	-3.008260	-2.204211	-0.075356	0.364029	-0.496820
1.290	3.192105	-5.173040	604.834611	-2.431474	-2.321858	-0.039336	0.383883	-0.402006
1.300	3.290862	-4.444981	603.985944	-1.804194	-2.437008	0.001828	0.403488	-0.298715
1.310	3.408827	-3.686126	602.980618	-1.137344	-2.545485	0.046438	0.422150	-0.188620
1.320	3.538050	-2.915963	601.864624	-0.446599	-2.641667	0.092494	0.438914	-0.074203
1.330	3.664963	-2.171149	600.708962	0.249426	-2.719529	0.137884	0.452720	0.041522
1.340	3.777957	-1.498269	599.605339	0.931218	-2.774130	0.180517	0.462659	0.155305
1.350	3.874775	-0.943482	598.655409	1.580080	-2.802978	0.218524	0.468212	0.263938
1.360	3.965783	-0.542613	597.954873	2.179269	-2.806767	0.250536	0.469394	0.364454
1.370	4.071921	-0.314229	597.575557	2.714632	-2.789322	0.275925	0.466773	0.454274
1.380	4.218697	-0.256891	597.550697	3.174993	-2.756772	0.294806	0.461345	0.531335
1.390	4.428560	-0.350428	597.868337	3.552590	-2.716118	0.307684	0.454300	0.594209
1.400	4.713422	-0.560036	598.474050	3.843691	-2.673457	0.314822	0.446712	0.642249
1.410	5.068202	-0.841614	599.280652	4.049271	-2.632244	0.315581	0.439234	0.675689
1.420	5.466486	-1.147066	600.182330	4.175383	-2.592077	0.308058	0.431882	0.695686
1.430	5.860495	-1.429098	601.072141	4.232651	-2.548629	0.289253	0.424014	0.704183
1.440	6.187891	-1.645860	601.861384	4.234473	-2.495068	0.255821	0.414559	0.703563
1.450	6.385806	-1.766042	602.497027	4.194100	-2.424753	0.205241	0.402451	0.696120
1.460	6.408413	-1.774550	602.971993	4.121498	-2.334264	0.137037	0.387126	0.683531
1.470	6.241280	-1.677432	603.324279	4.021206	-2.225483	0.053569	0.368870	0.666508
1.480	5.906239	-1.503568	603.623566	3.892127	-2.105754	-0.039946	0.348852	0.644794
1.490	5.454669	-1.300818	603.947251	3.729433	-1.985929	-0.136188	0.328825	0.617510
1.500	4.952298	-1.126523	604.351300	3.527897	-1.877053	-0.226972	0.310590	0.583749
1.510	4.461793	-1.034896	604.844357	3.285325	-1.786933	-0.304565	0.295437	0.543169
1.520	4.029092	-1.065289	605.374818	3.004675	-1.717822	-0.362821	0.283762	0.496333
1.530	3.676726	-1.234434	605.837956	2.694162	-1.665953	-0.398043	0.274983	0.444700
1.540	3.404295	-1.533739	606.103108	2.365692	-1.622905	-0.409449	0.267761	0.390312
1.550	3.194204	-1.931212	606.052189	2.032669	-1.578062	-0.399066	0.260384	0.335395
1.560	3.020157	-2.377223	605.615781	1.708110	-1.521156	-0.370977	0.251175	0.282045
1.570	2.856262	-2.813465	604.794645	1.403420	-1.444223	-0.330191	0.238796	0.232049
1.580	2.684992	-3.184270	603.661300	1.127675	-1.342837	-0.281712	0.222449	0.186806
1.590	2.502581	-3.448690	602.344331	0.887100	-1.216835	-0.230209	0.202016	0.147274
1.600	2.320641	-3.590650	601.003060	0.684620	-1.070661	-0.180313	0.178146	0.113913
1.610	2.163427	-3.623752	599.800237	0.519630	-0.913055	-0.137052	0.152227	0.086634
1.620	2.060902	-3.587944	598.877134	0.388169	-0.755719	-0.105827	0.126189	0.064816
1.630	2.038873	-3.537966	598.333328	0.283522	-0.610916	-0.091548	0.102103	0.047385
1.640	2.108676	-3.526943	598.214349	0.197105	-0.488631	-0.097117	0.081682	0.032949
1.650	2.260106	-3.591031	598.511196	0.119587	-0.394380	-0.121887	0.065894	0.019981
1.660	2.461462	-3.740848	599.172787	0.042278	-0.328605	-0.160975	0.054843	0.007056
1.670	2.668627	-3.962502	600.126336	-0.041337	-0.287875	-0.205968	0.047969	-0.006888
1.680	2.840871	-4.226634	601.296494	-0.134199	-0.267336	-0.246976	0.044460	-0.022318
1.690	2.956671	-4.500508	602.615567	-0.234745	-0.263411	-0.275297	0.043711	-0.038954
1.700	3.021760	-4.757622	604.022836	-0.336755	-0.275820	-0.285746	0.045664	-0.055752
1.710	3.065461	-4.981758	605.456354	-0.430235	-0.308295	-0.277836	0.050919	-0.071060
1.720	3.127588	-5.165974	606.843101	-0.503368	-0.367834	-0.255485	0.060614	-0.082949
1.730	3.242349	-5.309359	608.093316	-0.545153	-0.462721	-0.225444	0.076094	-0.089649
1.740	3.425515	-5.414098	609.103301	-0.547798	-0.599764	-0.195019	0.098467	-0.089935
1.750	3.668224	-5.483580	609.768141	-0.507919	-0.781406	-0.169923	0.128148	-0.083297
1.760	3.938088	-5.520818	610.001724	-0.426111	-1.003611	-0.152955	0.164526	-0.069854
1.770	4.187018	-5.526291	609.757666	-0.305248	-1.255465	-0.143878	0.205896	-0.050061
1.780	4.364496	-5.495068	609.043133	-0.148252	-1.520956	-0.140304	0.249729	-0.024342
1.790	4.433485	-5.413969	607.919588	0.043834	-1.782400	-0.139044	0.293197	0.007210
1.800	4.384037	-5.260336	606.489188	0.272708	-2.024241	-0.137282	0.333764	0.044965
1.810	4.238817	-5.004514	604.871033	0.542118	-2.235854	-0.133168	0.369641	0.089625
1.820	4.047129	-4.617372	603.175850	0.855759	-2.412633	-0.125791	0.399988	0.141876
1.830	3.869222	-4.081698	601.489352	1.214636	-2.555282	-0.114734	0.424826	0.201938
1.840	3.757446	-3.403264	599.871323	1.615175	-2.667787	-0.099537	0.444727	0.269254
1.850	3.742208	-2.616485	598.369381	2.049060	-2.754882	-0.079334	0.460398	0.342441
1.860	3.827879	-1.781774	597.037814	2.505016	-2.820010	-0.052895	0.472334	0.419574
1.870	3.998793	-0.975075	595.948753	2.971864	-2.864547	-0.019139	0.480670	0.498678
1.880	4.230772	-0.272571	595.187415	3.441626	-2.888366	0.022050	0.485287	0.578242
1.890	4.501576	0.265632	594.831978	3.911533	-2.891017	0.069141	0.486022	0.657586
1.900	4.795259	0.609098	594.926826	4.384346	-2.872509	0.118765	0.482834	0.736955
1.910	5.099702	0.764728	595.461573	4.867111	-2.833120	0.166084	0.475786	0.817368
1.920	5.400727	0.776208	596.365676	5.368895	-2.772431	0.205557	0.464888	0.900269
1.930	5.677801	0.714705	597.521469	5.898172	-2.688312	0.231866	0.449911	0.987106
1.940	5.904955	0.662482	598.790838	6.460311	-2.576660	0.240759	0.430311	1.078893
1.950	6.057176	0.693434	600.045378	7.055370	-2.432368	0.229625	0.405364	1.175806
1.960	6.118904	0.855918	601.188114	7.676334	-2.251392	0.197679	0.374490	1.276861
1.970	6.089514	1.162831	602.158434	8.308259	-2.033062	0.145829	0.337629	1.379746
1.980	5.981987	1.591490	602.920524	8.929026	-1.781372	0.076430	0.295457	1.480962
1.990	5.814848	2.092485	603.445024	9.512136	-1.504477	-0.006886	0.249315	1.576305
2.000	5.601467	2.604016	603.697590	10.031086	-1.212566	-0.099277	0.200857	1.661608
2.010	5.342600	3.067176	603.643889	10.464096	-0.915174	-0.194778	0.151608	1.733488
2.020	5.026716	3.438244	603.270657	10.797675	-0.619257	-0.286643	0.102650	1.789856
2.030	4.639091	3.695548	602.612226	11.028057	-0.328975	-0.368038	0.054591	1.830042
2.040	4.176505	3.840203	601.766857	11.160306	-0.047213	-0.433024	0.007846	1.854590
2.050	3.661056	3.891541	600.890366	11.205743	0.222133	-0.477560	-0.036967	1.864856
2.060	3.145449	3.879149	600.164325	11.178652	0.472563	-0.500209	-0.078739	1.862599
2.070	2.704265	3.833884	599.747827	11.093209	0.695339	-0.502355	-0.115939	1.849646
2.080	2.411312	3.779957	599.730133	10.961198	0.882102	-0.487901	-0.147083	1.827688
2.090	2.310396	3.729425	600.102621	10.790705	1.028872	-0.462447	-0.171449	1.798143
2.100	2.391991	3.679674	600.760893	10.585655	1.139598	-0.432030	-0.189692	1.762041
2.110	2.587703	3.613963	601.535290	10.346067	1.227391	-0.401607	-0.204043	1.719943
2.120	2.787235	3.504832	602.237601	10.069094	1.312427	-0.373714	-0.217925	1.671947
2.130	2.872229	3.320175	602.708619	9.750911	1.417038	-0.347833	-0.235112	1.617848
2.140	2.753828	3.031413	602.854601	9.389206	1.559717	-0.320853	-0.258722	1.557458
2.150	2.400026	2.622123	602.666331	8.985544	1.750145	-0.288584	-0.290400	1.490965
2.160	1.844070	2.094345	602.219216	8.546751	1.986700	-0.247757	-0.329896	1.419209
2.170	1.172967	1.470045	601.655706	8.084654	2.256850	-0.197699	-0.375106	1.343734
2.180	0.501692	0.787091	601.153117	7.614189	2.539989	-0.140994	-0.422520	1.266597
2.190	-0.057790	0.091466	600.882618	7.150553	2.811959	-0.082920	-0.467972	1.190008
2.200	-0.423728	-0.571193	600.968605	6.706410	3.050346	-0.029952	-0.507572	1.115934
2.210	-0.561694	-1.161967	601.459439	6.290073	3.239378	0.012032	-0.538586	1.045802
2.220	-0.488696	-1.651730	602.317757	5.905050	3.373075	0.039186	-0.560016	0.980388
2.230	-0.264365	-2.021647	603.431720	5.550896	3.455664	0.050335	-0.572669	0.919888
2.240	0.027993	-2.262705	604.641646	5.224934	3.499230	0.046736	-0.578728	0.864137
2.250	0.304896	-2.375465	605.773318	4.924325	3.519582	0.031176	-0.581006	0.812899
2.260	0.503451	-2.369857	606.670082	4.647829	3.531804	0.006911	-0.582162	0.766121
2.270	0.593127	-2.264115	607.218398	4.396644	3.546893	-0.023099	-0.584121	0.724063
2.280	0.576151	-2.082395	607.363659	4.173921	3.570235	-0.056348	-0.587825	0.687219
2.290	0.478843	-1.851703	607.114781	3.983012	3.601943	-0.090422	-0.593289	0.656056
2.300	0.339018	-1.599255	606.538030	3.825038	3.638391	-0.122462	-0.599862	0.630634
2.310	0.194671	-1.351052	605.742440	3.696615	3.674108	-0.148902	-0.606546	0.610262
2.320	0.076828	-1.131696	604.859691	3.588599	3.703367	-0.165800	-0.612269	0.593295
2.330	0.006454	-0.964851	604.021027	3.486411	3.721299	-0.169766	-0.616088	0.577200
2.340	-0.006717	-0.873438	603.334120	3.372086	3.724729	-0.159137	-0.617358	0.558908
2.350	0.034759	-0.878662	602.864364	3.227637	3.712928	-0.134844	-0.615881	0.535384
2.360	0.115221	-0.997351	602.625928	3.038913	3.688151	-0.100550	-0.612013	0.504279
2.370	0.207469	-1.237787	602.586112	2.798821	3.655458	-0.061928	-0.606628	0.464468
2.380	0.278883	-1.595300	602.681966	2.508834	3.621523	-0.025320	-0.600901	0.416278
2.390	0.301899	-2.049904	602.843044	2.178161	3.592665	0.003809	-0.595954	0.361315
2.400	0.265107	-2.568197	603.011498	1.820780	3.572903	0.022079	-0.592510	0.301948
