Time[s]	Fx[N]	Fy[N]	Fz[N]	Mx[Nm]	My[Nm]	Mz[Nm]	COPx[cm]	COPy[cm]
0.010	7.613114	0.396701	690.599711	-15.640225	1.205214	-0.084077	-0.174517	-2.264731
0.020	7.695341	0.081947	689.594652	-15.886123	1.178456	-0.104928	-0.170891	-2.303690
0.030	7.783646	-0.238140	688.630502	-16.143226	1.159631	-0.125952	-0.168397	-2.344251
0.040	7.882217	-0.567043	687.754198	-16.421145	1.155754	-0.146934	-0.168047	-2.387647
0.050	7.992792	-0.906715	687.019934	-16.727816	1.172302	-0.167204	-0.170636	-2.434837
0.060	8.113722	-1.256310	686.481438	-17.068534	1.212848	-0.185668	-0.176676	-2.486380
0.070	8.238949	-1.611842	686.178366	-17.445286	1.279318	-0.201053	-0.186441	-2.542384
0.080	8.357394	-1.967408	686.122389	-17.856552	1.372716	-0.212284	-0.200069	-2.602532
0.090	8.453539	-2.317863	686.288462	-18.297690	1.494101	-0.218922	-0.217707	-2.666181
0.100	8.509683	-2.662210	686.615036	-18.761927	1.645513	-0.221474	-0.239656	-2.732525
0.110	8.509533	-3.006204	687.014314	-19.241786	1.830508	-0.221380	-0.266444	-2.800784
0.120	8.441653	-3.362313	687.389924	-19.730591	2.053983	-0.220562	-0.298809	-2.870364
0.130	8.300843	-3.745912	687.656215	-20.223599	2.321227	-0.220702	-0.337556	-2.940946
0.140	8.086493	-4.168541	687.753582	-20.718317	2.636506	-0.222612	-0.383350	-3.012462
0.150	7.798980	-4.630944	687.657724	-21.213755	3.001628	-0.226017	-0.436500	-3.084929
0.160	7.436605	-5.119105	687.384077	-21.708674	3.414935	-0.229783	-0.496802	-3.158158
0.170	6.995152	-5.605324	686.988865	-22.199471	3.870865	-0.232392	-0.563454	-3.231416
0.180	6.470594	-6.054353	686.566349	-22.678701	4.360072	-0.232397	-0.635055	-3.303206
0.190	5.863952	-6.432612	686.240080	-23.135120	4.870006	-0.228725	-0.709665	-3.371287
0.200	5.186612	-6.717361	686.146306	-23.555382	5.385887	-0.220835	-0.784947	-3.432997
0.210	4.464012	-6.902740	686.409922	-23.926699	5.892083	-0.208737	-0.858391	-3.485774
0.220	3.735754	-7.000672	687.116581	-24.239337	6.373839	-0.192933	-0.927621	-3.527689
0.230	3.050996	-7.036449	688.287340	-24.488119	6.819133	-0.174233	-0.990739	-3.557834
0.240	2.459680	-7.040775	689.863378	-24.672707	7.220114	-0.153525	-1.046601	-3.576463
0.250	2.002097	-7.041318	691.706967	-24.796902	7.573523	-0.131561	-1.094903	-3.584885
0.260	1.700348	-7.056722	693.620875	-24.867248	7.879966	-0.108888	-1.136062	-3.585136
0.270	1.554657	-7.094717	695.382917	-24.891254	8.142584	-0.085894	-1.170950	-3.579503
0.280	1.545308	-7.154093	696.787160	-24.875690	8.365863	-0.062912	-1.200634	-3.570056
0.290	1.638771	-7.228755	697.680583	-24.825473	8.554942	-0.040289	-1.226198	-3.558286
0.300	1.795794	-7.311562	697.986003	-24.743414	8.715180	-0.018440	-1.248618	-3.544973
0.310	1.979657	-7.396351	697.708114	-24.630618	8.851587	0.002117	-1.268666	-3.530218
0.320	2.163292	-7.477755	696.924931	-24.487092	8.967981	0.020713	-1.286793	-3.513591
0.330	2.333807	-7.549601	695.768681	-24.312271	9.066227	0.036502	-1.303052	-3.494304
0.340	2.492988	-7.603304	694.399572	-24.105519	9.146186	0.048508	-1.317136	-3.471419
0.350	2.653143	-7.627694	692.976343	-23.866702	9.206745	0.055858	-1.328580	-3.444086
0.360	2.829355	-7.610747	691.629163	-23.596699	9.247684	0.058160	-1.337087	-3.411756
0.370	3.030949	-7.542496	690.441077	-23.297640	9.271549	0.055844	-1.342844	-3.374313
0.380	3.255687	-7.417859	689.442209	-22.972857	9.284619	0.050216	-1.346686	-3.332093
0.390	3.489268	-7.238618	688.616976	-22.626740	9.296530	0.043031	-1.350029	-3.285824
0.400	3.710272	-7.014432	687.920229	-22.264573	9.318681	0.035728	-1.354616	-3.236505
0.410	3.897853	-6.762769	687.295602	-21.892199	9.362020	0.028680	-1.362153	-3.185267
0.420	4.038080	-6.507147	686.689866	-21.515287	9.435061	0.020883	-1.373992	-3.133188
0.430	4.125743	-6.273083	686.060237	-21.138261	9.542957	0.010206	-1.390979	-3.081109
0.440	4.161246	-6.082076	685.375809	-20.763263	9.688092	-0.005950	-1.413545	-3.029471
0.450	4.145072	-5.945246	684.617827	-20.389750	9.871806	-0.029891	-1.441944	-2.978267
0.460	4.073595	-5.858860	683.784451	-20.015132	10.096111	-0.062971	-1.476505	-2.927111
0.470	3.939077	-5.803787	682.902480	-19.636438	10.364173	-0.105105	-1.517665	-2.875438
0.480	3.734259	-5.749734	682.042147	-19.252454	10.679055	-0.154541	-1.565747	-2.822766
0.490	3.459380	-5.663281	681.325212	-18.865547	11.041323	-0.207984	-1.620566	-2.768949
0.500	3.127835	-5.517073	680.916038	-18.482305	11.446849	-0.261161	-1.681096	-2.714329
0.510	2.766940	-5.297039	680.991982	-18.112469	11.886039	-0.309754	-1.745401	-2.659718
0.520	2.412539	-5.005452	681.700002	-17.766425	12.344951	-0.350454	-1.810907	-2.606194
0.530	2.099302	-4.659372	683.114159	-17.452357	12.807897	-0.381777	-1.874928	-2.554823
0.540	1.850733	-4.285647	685.208502	-17.174441	13.260481	-0.404374	-1.935248	-2.506455
0.550	1.672880	-3.914514	687.852802	-16.932791	13.691937	-0.420696	-1.990533	-2.461688
0.560	1.553794	-3.573767	690.830221	-16.724722	14.096064	-0.434184	-2.040453	-2.420960
0.570	1.468210	-3.284722	693.870859	-16.546252	14.470774	-0.448268	-2.085514	-2.384630
0.580	1.385252	-3.060254	696.694010	-16.392928	14.816747	-0.465508	-2.126722	-2.352959
0.590	1.276751	-2.904486	699.052677	-16.259682	15.135710	-0.487045	-2.165174	-2.325959
0.600	1.124556	-2.813485	700.773661	-16.140062	15.428590	-0.512417	-2.201651	-2.303178
0.610	0.925971	-2.776467	701.785034	-16.025396	15.693724	-0.539733	-2.236258	-2.283519
0.620	0.696547	-2.777181	702.122935	-15.904413	15.925516	-0.566239	-2.268195	-2.265189
0.630	0.469073	-2.795239	701.914037	-15.763706	16.114212	-0.589132	-2.295753	-2.245817
0.640	0.287660	-2.807430	701.337249	-15.589127	16.247309	-0.606367	-2.316619	-2.222772
0.650	0.197224	-2.789461	700.574529	-15.367957	16.312560	-0.617098	-2.328455	-2.193622
0.660	0.231062	-2.718417	699.763884	-15.091379	16.301738	-0.621606	-2.329605	-2.156639
0.670	0.400799	-2.575782	698.967333	-14.756570	16.213749	-0.620795	-2.319672	-2.111196
0.680	0.692485	-2.350359	698.163058	-14.367737	16.055827	-0.615557	-2.299725	-2.057934
0.690	1.070283	-2.040370	697.264238	-13.935618	15.842386	-0.606327	-2.272078	-1.998614
0.700	1.486374	-1.654278	696.158445	-13.475527	15.592164	-0.593043	-2.239744	-1.935698
0.710	1.893656	-1.210218	694.753916	-13.004511	15.324812	-0.575495	-2.205790	-1.871815
0.720	2.257054	-0.734097	693.016586	-12.538507	15.057965	-0.553813	-2.172814	-1.809265
0.730	2.559944	-0.256406	690.986325	-12.090261	14.805407	-0.528780	-2.142648	-1.749711
0.740	2.804122	0.191873	688.769716	-11.668349	14.576460	-0.501812	-2.116304	-1.694086
0.750	3.004183	0.583539	686.515588	-11.277198	14.376408	-0.474647	-2.094112	-1.642672
0.760	3.178975	0.898601	684.384686	-10.917842	14.207602	-0.448985	-2.075967	-1.595279
0.770	3.343249	1.126168	682.523991	-10.589152	14.070855	-0.426245	-2.061591	-1.551470
0.780	3.501904	1.264560	681.049868	-10.289339	13.966827	-0.407517	-2.050779	-1.510805
0.790	3.648106	1.320028	680.038045	-10.017457	13.897112	-0.393636	-2.043579	-1.473073
0.800	3.765479	1.304736	679.517858	-9.774442	13.864741	-0.385251	-2.040379	-1.438438
0.810	3.833536	1.234510	679.472236	-9.563167	13.873793	-0.382854	-2.041848	-1.407440
0.820	3.834517	1.126460	679.846602	-9.387388	13.928110	-0.386754	-2.048714	-1.380810
0.830	3.759214	0.996468	680.565897	-9.250110	14.029579	-0.397044	-2.061458	-1.359179
0.840	3.609886	0.856932	681.553122	-9.152260	14.176776	-0.413570	-2.080069	-1.342853
0.850	3.399501	0.715528	682.741013	-9.092322	14.364667	-0.435900	-2.103970	-1.331738
0.860	3.147788	0.575515	684.072082	-9.066883	14.585547	-0.463351	-2.132165	-1.325428
0.870	2.875380	0.437221	685.488409	-9.071461	14.830920	-0.495065	-2.163555	-1.323357
0.880	2.597980	0.299773	686.917608	-9.100941	15.093683	-0.530121	-2.197306	-1.324896
0.890	2.322557	0.162265	688.263471	-9.149492	15.369889	-0.567580	-2.233140	-1.329359
0.900	2.046754	0.024241	689.408480	-9.210489	15.659565	-0.606393	-2.271449	-1.335999
0.910	1.761363	-0.114159	690.230582	-9.277143	15.966361	-0.645233	-2.313192	-1.344064
0.920	1.454571	-0.252122	690.629852	-9.343978	16.296189	-0.682437	-2.359613	-1.352965
0.930	1.116248	-0.388067	690.556082	-9.408527	16.655181	-0.716181	-2.411851	-1.362457
0.940	0.740920	-0.519696	690.028139	-9.472372	17.047444	-0.744881	-2.470543	-1.372752
0.950	0.328951	-0.644512	689.138791	-9.540990	17.473267	-0.767616	-2.535522	-1.384480
0.960	-0.113723	-0.761070	688.042467	-9.622457	17.928456	-0.784372	-2.605719	-1.398527
0.970	-0.576794	-0.870612	686.928196	-9.725379	18.405153	-0.795945	-2.679342	-1.415778
0.980	-1.047390	-0.978148	685.985004	-9.856713	18.893814	-0.803561	-2.754260	-1.436870
0.990	-1.512470	-1.092078	685.369623	-10.020179	19.385455	-0.808398	-2.828467	-1.462011
1.000	-1.961670	-1.222266	685.184361	-10.215763	19.873192	-0.811305	-2.900415	-1.490951
1.010	-2.390127	-1.377223	685.468250	-10.440268	20.352572	-0.812837	-2.969149	-1.523086
1.020	-2.800302	-1.561436	686.200740	-10.688418	20.820795	-0.813525	-3.034213	-1.557623
1.030	-3.201362	-1.773808	687.315948	-10.953876	21.275303	-0.814128	-3.095418	-1.593718
1.040	-3.605037	-2.007702	688.724659	-11.229780	21.712293	-0.815641	-3.152536	-1.630518
1.050	-4.018519	-2.252463	690.338765	-11.508805	22.125613	-0.819000	-3.205037	-1.667124
1.060	-4.437107	-2.495812	692.090318	-11.783011	22.506276	-0.824589	-3.251928	-1.702525
1.070	-4.840227	-2.726303	693.938229	-12.043910	22.842574	-0.831860	-3.291730	-1.735588
1.080	-5.193311	-2.935237	695.860192	-12.283027	23.120745	-0.839301	-3.322613	-1.765157
1.090	-5.455421	-3.117681	697.833723	-12.492926	23.326246	-0.844813	-3.342665	-1.790244
1.100	-5.589857	-3.272505	699.815135	-12.668409	23.445591	-0.846296	-3.350255	-1.810251
1.110	-5.573532	-3.401421	701.726127	-12.807486	23.468383	-0.842157	-3.344379	-1.825140
1.120	-5.401591	-3.507368	703.453212	-12.911767	23.388992	-0.831492	-3.324882	-1.835483
1.130	-5.086462	-3.593035	704.858496	-12.986035	23.207416	-0.813913	-3.292493	-1.842361
1.140	-4.653247	-3.660406	705.796532	-13.036959	22.929212	-0.789236	-3.248700	-1.847127
1.150	-4.134446	-3.711378	706.132914	-13.071332	22.564666	-0.757306	-3.195527	-1.851115
1.160	-3.565917	-3.748513	705.763504	-13.094396	22.127450	-0.718139	-3.135250	-1.855352
1.170	-2.984223	-3.774925	704.634826	-13.108792	21.632888	-0.672310	-3.070085	-1.860367
1.180	-2.424340	-3.793270	702.764669	-13.114281	21.095929	-0.621326	-3.001848	-1.866098
1.190	-1.916496	-3.804668	700.258137	-13.108100	20.529108	-0.567723	-2.931649	-1.871895
1.200	-1.481686	-3.808286	697.311214	-13.085698	19.940932	-0.514788	-2.859689	-1.876594
1.210	-1.126810	-3.801546	694.194548	-13.041591	19.335190	-0.466009	-2.785270	-1.878665
1.220	-0.841523	-3.780364	691.215288	-12.970215	18.711482	-0.424405	-2.707041	-1.876436
1.230	-0.598921	-3.738969	688.662063	-12.866798	18.067013	-0.391898	-2.623495	-1.868376
1.240	-0.360870	-3.669515	686.745287	-12.728396	17.399237	-0.368871	-2.533579	-1.853438
1.250	-0.087146	-3.562497	685.550331	-12.555030	16.708524	-0.354082	-2.437242	-1.831380
1.260	0.253869	-3.408818	685.021579	-12.350595	15.999867	-0.344995	-2.335673	-1.802950
1.270	0.675985	-3.203292	684.986925	-12.123026	15.282991	-0.338463	-2.231136	-1.769819
1.280	1.170753	-2.948125	685.216269	-11.883469	14.570862	-0.331557	-2.126462	-1.734265
1.290	1.709886	-2.654709	685.492798	-11.644613	13.877196	-0.322249	-2.024412	-1.698721
1.300	2.254017	-2.342794	685.671969	-11.418655	13.213779	-0.309721	-1.927128	-1.665323
1.310	2.764231	-2.037188	685.711202	-11.215424	12.588326	-0.294249	-1.835806	-1.635590
1.320	3.211929	-1.762965	685.665930	-11.040988	12.003340	-0.276799	-1.750611	-1.610258
1.330	3.584236	-1.540523	685.657760	-10.896955	11.456113	-0.258538	-1.670821	-1.589270
1.340	3.884717	-1.381815	685.826434	-10.780479	10.939776	-0.240385	-1.595123	-1.571896
1.350	4.130378	-1.288680	686.280129	-10.684991	10.445122	-0.222701	-1.521991	-1.556943
1.360	4.345841	-1.253573	687.057770	-10.601571	9.962821	-0.205201	-1.450070	-1.543039
1.370	4.555823	-1.262161	688.112080	-10.520808	9.485637	-0.187175	-1.378502	-1.528938
1.380	4.777979	-1.296794	689.315013	-10.434631	9.010205	-0.167964	-1.307125	-1.513768
1.390	5.018819	-1.339931	690.481681	-10.337488	8.537950	-0.147469	-1.236521	-1.497142
1.400	5.274395	-1.377035	691.406389	-10.226513	8.074848	-0.126437	-1.167887	-1.479089
1.410	5.534895	-1.398683	691.903620	-10.100946	7.630044	-0.106375	-1.102761	-1.459878
1.420	5.790150	-1.401626	691.845721	-9.961539	7.213723	-0.089151	-1.042678	-1.439850
1.430	6.032915	-1.388483	691.188396	-9.810562	6.835022	-0.076476	-0.988880	-1.419376
1.440	6.258738	-1.366013	689.977637	-9.652493	6.500754	-0.069446	-0.942169	-1.398957
1.450	6.463462	-1.342407	688.337433	-9.494710	6.215179	-0.068280	-0.902926	-1.379369
1.460	6.640402	-1.324602	686.443879	-9.347268	5.980489	-0.072301	-0.871228	-1.361694
1.470	6.778867	-1.316659	684.494779	-9.221236	5.797407	-0.080220	-0.846962	-1.347159
1.480	6.864715	-1.319613	682.683502	-9.125925	5.665503	-0.090640	-0.829887	-1.336772
1.490	6.882568	-1.332290	681.182227	-9.066091	5.583142	-0.102612	-0.819625	-1.330935
1.500	6.818570	-1.352090	680.134687	-9.040324	5.547079	-0.115966	-0.815585	-1.329196
1.510	6.662481	-1.375013	679.654612	-9.041286	5.551823	-0.131243	-0.816859	-1.330277
1.520	6.408858	-1.395001	679.824611	-9.057529	5.589138	-0.149229	-0.822144	-1.332333
1.530	6.058335	-1.403274	680.690851	-9.076029	5.648177	-0.170351	-0.829771	-1.333355
1.540	5.620115	-1.388440	682.251480	-9.084511	5.716476	-0.194271	-0.837884	-1.331549
1.550	5.115239	-1.337696	684.442168	-9.073120	5.781513	-0.219893	-0.844704	-1.325623
1.560	4.578183	-1.238979	687.127831	-9.035360	5.832175	-0.245700	-0.848776	-1.314946
1.570	4.054049	-1.083664	690.109929	-8.968373	5.859525	-0.270205	-0.849071	-1.299557
1.580	3.590737	-0.869121	693.151931	-8.872588	5.856690	-0.292282	-0.844936	-1.280035
1.590	3.228650	-0.600192	696.016531	-8.750863	5.818100	-0.311288	-0.835914	-1.257278
1.600	2.992325	-0.288763	698.502519	-8.607505	5.738611	-0.326968	-0.821559	-1.232280
1.610	2.887624	0.048464	700.469696	-8.447610	5.613015	-0.339255	-0.801322	-1.205992
1.620	2.905185	0.392820	701.845867	-8.276978	5.436251	-0.348122	-0.774565	-1.179316
1.630	3.027730	0.725757	702.616913	-8.102304	5.204303	-0.353557	-0.740703	-1.153161
1.640	3.237431	1.029852	702.805850	-7.931052	4.915430	-0.355669	-0.699401	-1.128484
1.650	3.520345	1.289543	702.449581	-7.770586	4.571220	-0.354812	-0.650754	-1.106213
1.660	3.866950	1.492600	701.582810	-7.626720	4.177084	-0.351597	-0.595380	-1.087073
1.670	4.269611	1.632463	700.235599	-7.502373	3.742095	-0.346736	-0.534405	-1.071407
1.680	4.718863	1.710418	698.443933	-7.397154	3.278244	-0.340824	-0.469364	-1.059091
1.690	5.200560	1.736113	696.265785	-7.308291	2.799213	-0.334271	-0.402032	-1.049641
1.700	5.695287	1.725396	693.792854	-7.232612	2.318826	-0.327526	-0.334225	-1.042474
1.710	6.180437	1.695801	691.151269	-7.168653	1.849458	-0.321474	-0.267591	-1.037205
1.720	6.634276	1.661423	688.490383	-7.117879	1.400834	-0.317719	-0.203465	-1.033839
1.730	7.040373	1.629492	685.963983	-7.084516	0.979677	-0.318431	-0.142818	-1.032783
1.740	7.390315	1.600117	683.710290	-7.074328	0.590406	-0.325724	-0.086353	-1.034697
1.750	7.683134	1.568885	681.835937	-7.093160	0.236571	-0.340837	-0.034696	-1.040303
1.760	7.921564	1.530483	680.406593	-7.146020	-0.077741	-0.363561	0.011426	-1.050257
1.770	8.107120	1.481357	679.445161	-7.236807	-0.347357	-0.392253	0.051124	-1.065105
1.780	8.236845	1.420549	678.937464	-7.368368	-0.566597	-0.424408	0.083454	-1.085279
1.790	8.303598	1.349104	678.844152	-7.542570	-0.730650	-0.457486	0.107631	-1.111090
1.800	8.299628	1.268864	679.115967	-7.760351	-0.837065	-0.489585	0.123258	-1.142714
1.810	8.221179	1.181305	679.708411	-8.021831	-0.886751	-0.519676	0.130460	-1.180187
1.820	8.071552	1.086693	680.592008	-8.326489	-0.884102	-0.547403	0.129902	-1.223419
1.830	7.861200	0.983688	681.755472	-8.673288	-0.836309	-0.572680	0.122670	-1.272199
1.840	7.605057	0.869434	683.200547	-9.060710	-0.752284	-0.595401	0.110112	-1.326215
1.850	7.318518	0.740215	684.928773	-9.486733	-0.641731	-0.615381	0.093693	-1.385069
1.860	7.014016	0.592694	686.922691	-9.948889	-0.514589	-0.632400	0.074912	-1.448327
1.870	6.699833	0.425326	689.127384	-10.444562	-0.380730	-0.646148	0.055248	-1.515621
1.880	6.381554	0.239106	691.440586	-10.971538	-0.249594	-0.655964	0.036098	-1.586765
1.890	6.065043	0.036848	693.717578	-11.528499	-0.129581	-0.660504	0.018679	-1.661843
1.900	5.759008	-0.179154	695.790465	-12.115028	-0.027226	-0.657598	0.003913	-1.741189
1.910	5.475561	-0.410215	697.494633	-12.730937	0.053584	-0.644507	-0.007682	-1.825238
1.920	5.228222	-0.663575	698.693046	-13.375120	0.112047	-0.618604	-0.016037	-1.914306
1.930	5.028033	-0.952371	699.292133	-14.044358	0.150350	-0.578262	-0.021500	-2.008368
1.940	4.879375	-1.292568	699.247864	-14.732522	0.173077	-0.523562	-0.024752	-2.106910
1.950	4.777287	-1.697475	698.564520	-15.430465	0.186414	-0.456557	-0.026685	-2.208882
1.960	4.707467	-2.171821	697.290542	-16.126760	0.197337	-0.380951	-0.028301	-2.312775
1.970	4.649128	-2.708050	695.515688	-16.809231	0.212685	-0.301300	-0.030580	-2.416801
1.980	4.580150	-3.286843	693.371293	-17.466876	0.237870	-0.222022	-0.034306	-2.519123
1.990	4.483398	-3.881886	691.031255	-18.091543	0.275198	-0.146568	-0.039824	-2.618050
2.000	4.352329	-4.466756	688.707606	-18.678709	0.322333	-0.077025	-0.046803	-2.712139
2.010	4.193742	-5.020793	686.634255	-19.227129	0.371785	-0.014221	-0.054146	-2.800199
2.020	4.026282	-5.531678	685.037379	-19.737680	0.412110	0.041868	-0.060159	-2.881256
2.030	3.875038	-5.994321	684.097981	-20.212033	0.430744	0.091721	-0.062965	-2.954552
2.040	3.764187	-6.407589	683.916717	-20.651591	0.417469	0.136047	-0.061041	-3.019606
2.050	3.710364	-6.771040	684.491075	-21.056837	0.367156	0.175677	-0.053639	-3.076276
2.060	3.718813	-7.083175	685.712075	-21.427091	0.280791	0.211390	-0.040949	-3.124794
2.070	3.783180	-7.341491	687.382746	-21.760678	0.164647	0.243678	-0.023953	-3.165729
2.080	3.888601	-7.543725	689.254370	-22.055457	0.028240	0.272573	-0.004097	-3.199901
2.090	4.016855	-7.689461	691.070714	-22.309511	-0.117874	0.297614	0.017057	-3.228253
2.100	4.151811	-7.781495	692.608498	-22.521716	-0.263682	0.317999	0.038071	-3.251724
2.110	4.283395	-7.826612	693.705035	-22.692138	-0.400440	0.332864	0.057725	-3.271151
2.120	4.409054	-7.835736	694.269573	-22.822323	-0.520815	0.341700	0.075016	-3.287242
2.130	4.532755	-7.823484	694.280800	-22.915661	-0.618895	0.344756	0.089142	-3.300633
2.140	4.662193	-7.806943	693.776765	-22.977815	-0.690389	0.343225	0.099512	-3.311990
2.150	4.804921	-7.803304	692.843537	-23.017026	-0.733090	0.339003	0.105809	-3.322110
2.160	4.963852	-7.826497	691.605749	-23.043929	-0.747360	0.334064	0.108062	-3.331946
2.170	5.132827	-7.883946	690.218564	-23.070512	-0.736325	0.329704	0.106680	-3.342494
2.180	5.293725	-7.975001	688.858635	-23.108186	-0.705601	0.325972	0.102430	-3.354561
2.190	5.417183	-8.091920	687.711362	-23.165490	-0.662659	0.321520	0.096357	-3.368490
2.200	5.468253	-8.222901	686.952809	-23.246320	-0.616155	0.313930	0.089694	-3.383976
2.210	5.416194	-8.355582	686.727147	-23.349395	-0.575456	0.300415	0.083797	-3.400098
2.220	5.245373	-8.479239	687.123638	-23.469047	-0.550293	0.278740	0.080086	-3.415549
2.230	4.963425	-8.584826	688.158603	-23.596649	-0.550325	0.248098	0.079971	-3.428955
2.240	4.603647	-8.663514	689.766508	-23.721853	-0.584492	0.209660	0.084738	-3.439113
2.250	4.220536	-8.705467	691.802367	-23.833254	-0.660225	0.166530	0.095435	-3.445096
2.260	3.879469	-8.700244	694.056825	-23.918797	-0.782663	0.123027	0.112766	-3.446230
2.270	3.643232	-8.638885	696.284250	-23.966481	-0.954025	0.083536	0.137017	-3.442054
2.280	3.559158	-8.516545	698.240598	-23.965653	-1.173222	0.051387	0.168025	-3.432292
2.290	3.650565	-8.334404	699.722826	-23.908674	-1.435907	0.028233	0.205211	-3.416878
2.300	3.914857	-8.100030	700.598942	-23.792437	-1.735149	0.014150	0.247666	-3.396014
2.310	4.328201	-7.826085	700.820310	-23.619192	-2.062736	0.008267	0.294332	-3.370221
2.320	4.854210	-7.527871	700.414536	-23.396348	-2.410722	0.009568	0.344185	-3.340357
