Time[s]	Fx[N]	Fy[N]	Fz[N]	Mx[Nm]	My[Nm]	Mz[Nm]	COPx[cm]	COPy[cm]
0.010	2.441885	-3.088877	686.566968	6.121222	22.749487	-0.013818	-3.313513	0.891570
0.020	2.559640	-3.061016	687.023236	6.190383	22.711445	-0.016133	-3.305775	0.901044
0.030	2.653906	-3.035076	687.484064	6.253981	22.681761	-0.018598	-3.299242	0.909691
0.040	2.708530	-3.012798	687.945922	6.308245	22.665162	-0.021261	-3.294614	0.916968
0.050	2.719976	-2.995732	688.390682	6.352494	22.660157	-0.024117	-3.291758	0.922804
0.060	2.697378	-2.984887	688.786991	6.389217	22.659661	-0.027056	-3.289792	0.927604
0.070	2.658274	-2.980414	689.098094	6.422814	22.654084	-0.029812	-3.287498	0.932061
0.080	2.622112	-2.981376	689.293256	6.457474	22.635383	-0.031925	-3.283854	0.936825
0.090	2.604111	-2.985600	689.358437	6.495224	22.600185	-0.032799	-3.278437	0.942213
0.100	2.611517	-2.989785	689.302028	6.535122	22.550747	-0.031883	-3.271534	0.948078
0.110	2.643116	-2.990249	689.153037	6.573952	22.493652	-0.028961	-3.263956	0.953918
0.120	2.691637	-2.984306	688.952038	6.607993	22.437115	-0.024372	-3.256702	0.959137
0.130	2.747655	-2.971585	688.738612	6.634942	22.388201	-0.019022	-3.250609	0.963347
0.140	2.803163	-2.954306	688.541374	6.655117	22.351121	-0.014162	-3.246155	0.966553
0.150	2.853315	-2.936194	688.375839	6.671427	22.327089	-0.011058	-3.243445	0.969155
0.160	2.895914	-2.920688	688.250530	6.688109	22.315334	-0.010688	-3.242327	0.971755
0.170	2.929462	-2.909461	688.175775	6.708785	22.314345	-0.013527	-3.242536	0.974865
0.180	2.951416	-2.901827	688.167337	6.734766	22.322476	-0.019453	-3.243757	0.978652
0.190	2.958156	-2.895096	688.240427	6.764449	22.337673	-0.027790	-3.245621	0.982861
0.200	2.946976	-2.885740	688.396386	6.794168	22.356794	-0.037491	-3.247663	0.986956
0.210	2.918913	-2.871125	688.610287	6.820071	22.375320	-0.047384	-3.249344	0.990411
0.220	2.880475	-2.851012	688.828845	6.840045	22.387976	-0.056390	-3.250151	0.992996
0.230	2.842861	-2.827907	688.983073	6.854688	22.390166	-0.063697	-3.249741	0.994899
0.240	2.818737	-2.806026	689.011872	6.866889	22.379569	-0.068846	-3.248067	0.996629
0.250	2.817977	-2.789712	688.886289	6.880383	22.357164	-0.071745	-3.245407	0.998769
0.260	2.844126	-2.782221	688.623198	6.898195	22.327248	-0.072609	-3.242303	1.001737
0.270	2.892944	-2.785108	688.281752	6.921770	22.296414	-0.071857	-3.239431	1.005659
0.280	2.953450	-2.797942	687.943710	6.951076	22.271828	-0.070020	-3.237449	1.010414
0.290	3.010977	-2.818174	687.685753	6.985384	22.259345	-0.067677	-3.236848	1.015781
0.300	3.051112	-2.841376	687.555029	7.024066	22.262133	-0.065392	-3.237869	1.021601
0.310	3.063350	-2.862055	687.557310	7.066850	22.280170	-0.063623	-3.240482	1.027820
0.320	3.043647	-2.874977	687.661322	7.113378	22.310651	-0.062598	-3.244424	1.034430
0.330	2.995514	-2.876604	687.815679	7.162469	22.348923	-0.062244	-3.249260	1.041336
0.340	2.929458	-2.866143	687.969912	7.211796	22.389554	-0.062228	-3.254438	1.048272
0.350	2.860722	-2.845802	688.090762	7.258358	22.427222	-0.062092	-3.259341	1.054855
0.360	2.805581	-2.819999	688.168543	7.299543	22.457328	-0.061396	-3.263347	1.060720
0.370	2.777054	-2.793698	688.213462	7.334058	22.476438	-0.059803	-3.265911	1.065666
0.380	2.781282	-2.770585	688.245943	7.362180	22.482641	-0.057104	-3.266658	1.069702
0.390	2.815945	-2.752006	688.286449	7.385344	22.475784	-0.053226	-3.265470	1.073004
0.400	2.871486	-2.737132	688.348521	7.405545	22.457440	-0.048271	-3.262510	1.075842
0.410	2.934808	-2.724010	688.435668	7.424975	22.430557	-0.042589	-3.258192	1.078529
0.420	2.994023	-2.710745	688.541186	7.445898	22.398951	-0.036834	-3.253103	1.081402
0.430	3.042263	-2.696326	688.650617	7.470536	22.366861	-0.031877	-3.247926	1.084808
0.440	3.078971	-2.681052	688.747090	7.500876	22.338621	-0.028502	-3.243371	1.089061
0.450	3.108280	-2.666553	688.818222	7.538517	22.318368	-0.026999	-3.240095	1.094413
0.460	3.135425	-2.655281	688.860875	7.584625	22.309609	-0.026900	-3.238623	1.101039
0.470	3.163028	-2.649354	688.880056	7.639808	22.314614	-0.027082	-3.239260	1.109019
0.480	3.188978	-2.649042	688.882099	7.703767	22.333880	-0.026221	-3.242047	1.118300
0.490	3.206771	-2.651691	688.867036	7.774879	22.366023	-0.023393	-3.246784	1.128647
0.500	3.208021	-2.651972	688.826272	7.850094	22.408328	-0.018516	-3.253117	1.139633
0.510	3.185840	-2.643666	688.748032	7.925402	22.457738	-0.012425	-3.260661	1.150697
0.520	3.137316	-2.622309	688.627287	7.996746	22.511760	-0.006517	-3.269077	1.161259
0.530	3.063981	-2.587434	688.473347	8.060983	22.568864	-0.002114	-3.278103	1.170849
0.540	2.970632	-2.543292	688.309445	8.116488	22.628371	0.000162	-3.287529	1.179192
0.550	2.863841	-2.497635	688.164189	8.163158	22.690086	0.000695	-3.297191	1.186222
0.560	2.751147	-2.459117	688.060611	8.201902	22.753896	0.000722	-3.306961	1.192032
0.570	2.640740	-2.434493	688.009994	8.234010	22.819397	0.001778	-3.316725	1.196786
0.580	2.540852	-2.426617	688.013540	8.260802	22.885645	0.005033	-3.326336	1.200674
0.590	2.458577	-2.433650	688.068973	8.283753	22.951110	0.010781	-3.335583	1.203913
0.600	2.398559	-2.449519	688.176038	8.304789	23.013866	0.018318	-3.344183	1.206783
0.610	2.362182	-2.465457	688.336251	8.326325	23.072020	0.026249	-3.351853	1.209631
0.620	2.347428	-2.472238	688.546537	8.350779	23.124255	0.033049	-3.358416	1.212813
0.630	2.349207	-2.462408	688.790735	8.379813	23.170301	0.037591	-3.363910	1.216598
0.640	2.360053	-2.431953	689.034728	8.413826	23.211006	0.039383	-3.368626	1.221103
0.650	2.371186	-2.381227	689.229631	8.452072	23.247827	0.038492	-3.373016	1.226307
0.660	2.373764	-2.315223	689.324304	8.493315	23.281937	0.035269	-3.377501	1.232122
0.670	2.360098	-2.243108	689.283928	8.536531	23.313517	0.030070	-3.382281	1.238464
0.680	2.324757	-2.176670	689.106474	8.581176	23.341751	0.023067	-3.387249	1.245261
0.690	2.265757	-2.127492	688.827372	8.626838	23.365555	0.014236	-3.392077	1.252395
0.700	2.185636	-2.103442	688.508039	8.672534	23.384447	0.003547	-3.396394	1.259613
0.710	2.091636	-2.105833	688.213698	8.716105	23.398860	-0.008730	-3.399941	1.266482
0.720	1.994221	-2.128740	687.992194	8.754198	23.409683	-0.021824	-3.402609	1.272427
0.730	1.904081	-2.161110	687.863128	8.782944	23.417378	-0.034544	-3.404366	1.276845
0.740	1.829000	-2.191002	687.819049	8.799053	23.421314	-0.045641	-3.405156	1.279269
0.750	1.772238	-2.210193	687.834742	8.800829	23.419802	-0.054247	-3.404859	1.279498
0.760	1.733251	-2.217142	687.879453	8.788677	23.410862	-0.060125	-3.403338	1.277648
0.770	1.709982	-2.217169	687.927714	8.764916	23.393345	-0.063658	-3.400553	1.274104
0.780	1.701042	-2.219934	687.965524	8.733097	23.367837	-0.065672	-3.396658	1.269409
0.790	1.706428	-2.235378	687.990794	8.697193	23.336859	-0.067237	-3.392031	1.264144
0.800	1.726695	-2.269604	688.009904	8.661012	23.304163	-0.069502	-3.387184	1.258850
0.810	1.761564	-2.322152	688.033683	8.627832	23.273378	-0.073518	-3.382593	1.253984
0.820	1.809187	-2.385731	688.074622	8.600057	23.246570	-0.079989	-3.378495	1.249873
0.830	1.866718	-2.448614	688.144681	8.578825	23.223278	-0.089009	-3.374767	1.246660
0.840	1.932013	-2.498881	688.252282	8.563727	23.200302	-0.099903	-3.370901	1.244271
0.850	2.005487	-2.528974	688.398276	8.552953	23.172191	-0.111275	-3.366102	1.242443
0.860	2.090827	-2.538987	688.572038	8.543973	23.132234	-0.121221	-3.359450	1.240825
0.870	2.193666	-2.537520	688.749555	8.534417	23.073711	-0.127663	-3.350087	1.239118
0.880	2.318586	-2.539585	688.895510	8.522639	22.991225	-0.128723	-3.337404	1.237145
0.890	2.465942	-2.561992	688.970457	8.507635	22.882001	-0.123148	-3.321187	1.234833
0.900	2.630124	-2.617547	688.942276	8.488472	22.746903	-0.110724	-3.301714	1.232102
0.910	2.799989	-2.710092	688.798922	8.463785	22.590839	-0.092529	-3.279744	1.228774
0.920	2.961257	-2.832380	688.557969	8.431842	22.422339	-0.070871	-3.256420	1.224565
0.930	3.100117	-2.967858	688.268097	8.391349	22.252426	-0.048824	-3.233104	1.219198
0.940	3.207057	-3.095779	687.999360	8.342578	22.092973	-0.029418	-3.211191	1.212585
0.950	3.279695	-3.197531	687.823455	8.288125	21.954693	-0.014793	-3.191908	1.204979
0.960	3.323401	-3.261871	687.790795	8.232725	21.844968	-0.005713	-3.176106	1.196981
0.970	3.349138	-3.287587	687.914080	8.182149	21.766152	-0.001647	-3.164080	1.189414
0.980	3.369238	-3.283145	688.165121	8.141704	21.715171	-0.001304	-3.155518	1.183103
0.990	3.392930	-3.263502	688.484844	8.115005	21.684836	-0.003296	-3.149646	1.178676
1.000	3.423712	-3.244871	688.800899	8.103407	21.666381	-0.006625	-3.145522	1.176451
1.010	3.459607	-3.239009	689.046205	8.106044	21.652068	-0.010858	-3.142325	1.176415
1.020	3.495594	-3.249082	689.173439	8.120347	21.636814	-0.016077	-3.139531	1.178273
1.030	3.526535	-3.268786	689.162895	8.142938	21.618510	-0.022647	-3.136923	1.181569
1.040	3.549166	-3.285193	689.023484	8.170812	21.597433	-0.030923	-3.134499	1.185854
1.050	3.562724	-3.284387	688.788413	8.202416	21.575427	-0.040926	-3.132374	1.190847
1.060	3.568435	-3.257612	688.507060	8.238106	21.555261	-0.052073	-3.130725	1.196517
1.070	3.568482	-3.205237	688.233930	8.279715	21.540077	-0.063089	-3.129761	1.203038
1.080	3.565048	-3.136647	688.016245	8.329418	21.532695	-0.072151	-3.129678	1.210643
1.090	3.559896	-3.066193	687.883616	8.388424	21.534779	-0.077304	-3.130585	1.219454
1.100	3.554581	-3.007323	687.843668	8.456010	21.546215	-0.077031	-3.132429	1.229351
1.110	3.551124	-2.967795	687.885142	8.529256	21.565132	-0.070807	-3.134990	1.239924
1.120	3.552681	-2.947977	687.986157	8.603628	21.588717	-0.059417	-3.137958	1.250552
1.130	3.563543	-2.942417	688.123223	8.674296	21.614438	-0.044895	-3.141071	1.260573
1.140	3.588012	-2.943196	688.277170	8.737737	21.641035	-0.030038	-3.144233	1.269508
1.150	3.628450	-2.942947	688.434414	8.792935	21.668782	-0.017651	-3.147545	1.277236
1.160	3.683399	-2.936188	688.584354	8.841652	21.699042	-0.009789	-3.151254	1.284033
1.170	3.746589	-2.919095	688.715557	8.887644	21.733604	-0.007262	-3.155672	1.290467
1.180	3.807253	-2.888860	688.813907	8.935250	21.774354	-0.009546	-3.161137	1.297194
1.190	3.851880	-2.843574	688.864513	8.987930	21.823446	-0.015057	-3.168032	1.304746
1.200	3.867264	-2.782776	688.856840	9.047262	21.883573	-0.021686	-3.176796	1.313373
1.210	3.844151	-2.708309	688.790533	9.112582	21.957661	-0.027433	-3.187857	1.322983
1.220	3.780181	-2.625011	688.678507	9.181259	22.047705	-0.030923	-3.201451	1.333171
1.230	3.680934	-2.540704	688.544796	9.249398	22.153241	-0.031613	-3.217400	1.343326
1.240	3.558671	-2.465004	688.417503	9.312756	22.270335	-0.029682	-3.235004	1.352777
1.250	3.429286	-2.406908	688.319862	9.367717	22.391794	-0.025737	-3.253109	1.360954
1.260	3.308387	-2.371965	688.263188	9.412215	22.508597	-0.020545	-3.270347	1.367531
1.270	3.207516	-2.360384	688.244337	9.446346	22.611991	-0.014892	-3.285460	1.372528
1.280	3.131565	-2.367165	688.248731	9.472326	22.695457	-0.009540	-3.297566	1.376294
1.290	3.078394	-2.384316	688.258133	9.493655	22.755885	-0.005222	-3.306301	1.379374
1.300	3.041123	-2.403987	688.260402	9.513754	22.793666	-0.002572	-3.311779	1.382290
1.310	3.012326	-2.420811	688.256876	9.534750	22.811878	-0.002001	-3.314442	1.385348
1.320	2.988031	-2.432407	688.263157	9.556930	22.815067	-0.003542	-3.314876	1.388558
1.330	2.969272	-2.438353	688.301485	9.579002	22.808176	-0.006768	-3.313690	1.391687
1.340	2.960538	-2.438729	688.387514	9.598841	22.795952	-0.010874	-3.311500	1.394395
1.350	2.966507	-2.433305	688.518281	9.614281	22.782747	-0.014972	-3.308953	1.396373
1.360	2.989264	-2.421845	688.668254	9.623720	22.772410	-0.018480	-3.306731	1.397439
1.370	3.027241	-2.405221	688.795899	9.626516	22.768107	-0.021354	-3.305494	1.397586
1.380	3.075680	-2.386421	688.857638	9.623239	22.772169	-0.023963	-3.305787	1.396985
1.390	3.127787	-2.370457	688.823381	9.615766	22.786091	-0.026663	-3.307973	1.395970
1.400	3.176023	-2.363015	688.688460	9.607118	22.810662	-0.029335	-3.312189	1.394988
1.410	3.213468	-2.368673	688.478306	9.600934	22.846072	-0.031262	-3.318343	1.394515
1.420	3.235296	-2.389664	688.243357	9.600550	22.891899	-0.031459	-3.326134	1.394935
1.430	3.240036	-2.425530	688.044359	9.607892	22.946954	-0.029324	-3.335098	1.396406
1.440	3.229944	-2.473410	687.932917	9.622679	23.009044	-0.025176	-3.344664	1.398782
1.450	3.210140	-2.528644	687.935903	9.642486	23.074862	-0.020305	-3.354217	1.401655
1.460	3.186816	-2.585684	688.051051	9.663734	23.140246	-0.016429	-3.363158	1.404508
1.470	3.165450	-2.639379	688.254162	9.683089	23.200905	-0.014871	-3.370979	1.406906
1.480	3.149796	-2.686335	688.510937	9.698574	23.253411	-0.015934	-3.377348	1.408630
1.490	3.141768	-2.725642	688.785165	9.709917	23.296093	-0.018808	-3.382200	1.409716
1.500	3.141733	-2.758441	689.040652	9.718101	23.329450	-0.022003	-3.385787	1.410381
1.510	3.148719	-2.786573	689.240653	9.724479	23.355885	-0.024022	-3.388640	1.410898
1.520	3.160423	-2.811282	689.349588	9.730039	23.378853	-0.023954	-3.391436	1.411481
1.530	3.173190	-2.832793	689.338078	9.735178	23.401782	-0.021751	-3.394819	1.412250
1.540	3.182144	-2.850825	689.189420	9.739987	23.427262	-0.018167	-3.399249	1.413253
1.550	3.181668	-2.865164	688.905710	9.744704	23.456834	-0.014439	-3.404941	1.414519
1.560	3.166321	-2.875492	688.512568	9.750029	23.491383	-0.011879	-3.411903	1.416100
1.570	3.132111	-2.880549	688.060522	9.757163	23.531756	-0.011518	-3.420013	1.418068
1.580	3.077725	-2.877552	687.620119	9.767597	23.579118	-0.013933	-3.429091	1.420493
1.590	3.005263	-2.862737	687.268871	9.782761	23.634770	-0.019229	-3.438941	1.423426
1.600	2.920135	-2.833151	687.071721	9.803675	23.699595	-0.027079	-3.449363	1.426878
1.610	2.830054	-2.788851	687.061001	9.830739	23.773577	-0.036736	-3.460184	1.430839
1.620	2.743404	-2.734101	687.224343	9.863687	23.855717	-0.047034	-3.471314	1.435294
1.630	2.667478	-2.676547	687.507589	9.901708	23.944398	-0.056487	-3.482783	1.440233
1.640	2.606969	-2.624563	687.833703	9.943692	24.037996	-0.063596	-3.494740	1.445653
1.650	2.562902	-2.584081	688.130320	9.988559	24.135469	-0.067300	-3.507398	1.451551
1.660	2.532207	-2.556462	688.353056	10.035482	24.236648	-0.067413	-3.520962	1.457898
1.670	2.508297	-2.538381	688.493927	10.083812	24.342059	-0.064825	-3.535552	1.464619
1.680	2.482827	-2.523669	688.573189	10.132766	24.452394	-0.061340	-3.551168	1.471560
1.690	2.448112	-2.506147	688.621831	10.181209	24.568062	-0.059109	-3.567715	1.478491
1.700	2.398972	-2.482024	688.664877	10.227846	24.689271	-0.059860	-3.585092	1.485170
1.710	2.332843	-2.450766	688.712461	10.271840	24.816700	-0.064225	-3.603347	1.491455
1.720	2.248048	-2.414227	688.760144	10.313490	24.952346	-0.071495	-3.622792	1.497399
1.730	2.141334	-2.374751	688.795394	10.354558	25.099912	-0.079938	-3.644030	1.503285
1.740	2.006365	-2.333431	688.805181	10.397950	25.264324	-0.087554	-3.667848	1.509563
1.750	1.834494	-2.289508	688.780793	10.446765	25.450354	-0.092921	-3.694986	1.516704
1.760	1.618244	-2.241254	688.719306	10.503042	25.660674	-0.095687	-3.725854	1.525010
1.770	1.356955	-2.187897	688.623454	10.566679	25.893826	-0.096532	-3.760230	1.534464
1.780	1.062851	-2.131507	688.500946	10.634993	26.142680	-0.096689	-3.797044	1.544659
1.790	0.764521	-2.077735	688.362226	10.703147	26.394028	-0.097276	-3.834323	1.554871
1.800	0.504599	-2.034711	688.215982	10.765383	26.629830	-0.098713	-3.869400	1.564245
1.810	0.330419	-2.010294	688.064971	10.816591	26.830334	-0.100440	-3.899390	1.572030
1.820	0.279798	-2.008721	687.906819	10.853586	26.978545	-0.101115	-3.921831	1.577770
1.830	0.367026	-2.028299	687.741163	10.875702	27.064717	-0.099273	-3.935306	1.581366
1.840	0.574858	-2.061638	687.578381	10.884717	27.089153	-0.094095	-3.939791	1.583051
1.850	0.856600	-2.098715	687.443025	10.884334	27.062009	-0.085824	-3.936618	1.583307
1.860	1.148549	-2.131318	687.368988	10.879377	27.000031	-0.075598	-3.928026	1.582756
1.870	1.388492	-2.156344	687.388537	10.874838	26.921494	-0.064875	-3.916489	1.582051
1.880	1.533117	-2.175982	687.519303	10.874862	26.841403	-0.054861	-3.904095	1.581754
1.890	1.567771	-2.194697	687.753299	10.881905	26.768679	-0.046282	-3.892192	1.582240
1.900	1.505904	-2.214862	688.052069	10.896335	26.706030	-0.039510	-3.881397	1.583650
1.910	1.380255	-2.233695	688.351574	10.916618	26.651977	-0.034820	-3.871855	1.585907
1.920	1.230810	-2.243450	688.577880	10.939954	26.603704	-0.032509	-3.863572	1.588775
1.930	1.094475	-2.234920	688.670184	10.963016	26.559301	-0.032790	-3.856607	1.591911
1.940	0.999102	-2.202392	688.603318	10.982597	26.518460	-0.035559	-3.851050	1.594909
1.950	0.961637	-2.147403	688.400320	10.996193	26.481585	-0.040218	-3.846829	1.597354
1.960	0.988618	-2.079361	688.128503	11.002577	26.448071	-0.045670	-3.843479	1.598913
1.970	1.077334	-2.012685	687.878728	11.002269	26.414899	-0.050502	-3.840052	1.599449
1.980	1.216969	-1.961817	687.734998	10.997633	26.376399	-0.053329	-3.835256	1.599109
1.990	1.389893	-1.936309	687.746202	10.992378	26.325369	-0.053233	-3.827774	1.598319
2.000	1.573637	-1.937973	687.911120	10.990485	26.255101	-0.050162	-3.816641	1.597661
2.010	1.744132	-1.960968	688.181689	10.994898	26.161513	-0.045096	-3.801542	1.597674
2.020	1.880473	-1.994388	688.481430	11.006519	26.044518	-0.039895	-3.782893	1.598666
2.030	1.970520	-2.026154	688.730264	11.023877	25.908088	-0.036802	-3.761718	1.600609
2.040	2.015276	-2.046795	688.866625	11.043526	25.759064	-0.037759	-3.739340	1.603144
2.050	2.029419	-2.051874	688.861599	11.060979	25.605305	-0.043732	-3.717046	1.605690
2.060	2.036633	-2.042267	688.723891	11.071929	25.454024	-0.054365	-3.695824	1.607601
2.070	2.061006	-2.022389	688.496044	11.073523	25.310865	-0.068114	-3.676254	1.608364
2.080	2.117887	-1.997441	688.242509	11.065291	25.179861	-0.082846	-3.658574	1.607761
2.090	2.208052	-1.971056	688.031163	11.049243	25.063916	-0.096634	-3.642846	1.605922
2.100	2.317654	-1.944290	687.912809	11.028942	24.965292	-0.108362	-3.629136	1.603247
2.110	2.423892	-1.916190	687.906078	11.007952	24.885665	-0.117896	-3.617596	1.600212
2.120	2.503814	-1.885583	687.994369	10.988416	24.825664	-0.125804	-3.608411	1.597167
2.130	2.542412	-1.853231	688.135982	10.970417	24.784183	-0.132861	-3.601640	1.594222
2.140	2.536912	-1.823190	688.281759	10.952272	24.758022	-0.139526	-3.597077	1.591248
2.150	2.496328	-1.802405	688.391403	10.931355	24.742249	-0.145592	-3.594212	1.587956
2.160	2.437352	-1.798586	688.442120	10.904871	24.731237	-0.150168	-3.592348	1.583992
2.170	2.378697	-1.817484	688.428903	10.870353	24.719903	-0.152063	-3.590771	1.579009
2.180	2.335927	-1.861009	688.360336	10.825975	24.704568	-0.150449	-3.588901	1.572719
2.190	2.318036	-1.926849	688.254173	10.770952	24.683215	-0.145438	-3.586352	1.564967
2.200	2.326246	-2.009211	688.134364	10.706061	24.655362	-0.138229	-3.582928	1.555810
2.210	2.354945	-2.099870	688.028642	10.634097	24.621897	-0.130719	-3.578615	1.545589
2.220	2.394460	-2.189143	687.965351	10.559876	24.584900	-0.124798	-3.573567	1.534943
2.230	2.434924	-2.267076	687.968965	10.489400	24.547156	-0.121688	-3.568061	1.524691
2.240	2.470006	-2.325288	688.054488	10.428256	24.511096	-0.121576	-3.562377	1.515615
2.250	2.499139	-2.359360	688.221753	10.379845	24.477472	-0.123619	-3.556626	1.508212
2.260	2.527446	-2.370828	688.452044	10.344335	24.444527	-0.126272	-3.550651	1.502550
2.270	2.563462	-2.367455	688.710033	10.318809	24.408315	-0.127809	-3.544063	1.498281
2.280	2.615646	-2.360919	688.951685	10.298376	24.364197	-0.126887	-3.536416	1.494789
2.290	2.689004	-2.362346	689.135283	10.277583	24.308851	-0.122923	-3.527443	1.491374
2.300	2.782905	-2.377608	689.231499	10.251548	24.241935	-0.116198	-3.517241	1.487388
2.310	2.890595	-2.404884	689.229662	10.216668	24.166724	-0.107661	-3.506338	1.482331
2.320	3.000428	-2.435994	689.138680	10.171000	24.089496	-0.098602	-3.495595	1.475900
2.330	3.098404	-2.461025	688.981676	10.114365	24.017903	-0.090310	-3.486000	1.468016
2.340	3.171265	-2.473924	688.785136	10.048041	23.958882	-0.083805	-3.478426	1.458806
2.350	3.209253	-2.476182	688.566953	9.974111	23.916905	-0.079607	-3.473432	1.448532
2.360	3.207753	-2.476593	688.330291	9.894793	23.893191	-0.077559	-3.471181	1.437506
