Time[s]	Fx[N]	Fy[N]	Fz[N]	Mx[Nm]	My[Nm]	Mz[Nm]	COPx[cm]	COPy[cm]
0.010	4.470567	-1.247763	716.563653	-8.760099	6.491980	-0.602545	-0.905988	-1.222515
0.020	4.591355	-1.090236	716.452038	-8.703967	6.543109	-0.592934	-0.913265	-1.214871
0.030	4.698085	-0.952071	716.356323	-8.651458	6.598043	-0.585867	-0.921056	-1.207703
0.040	4.779257	-0.846639	716.293476	-8.605964	6.660251	-0.583329	-0.929822	-1.201458
0.050	4.827072	-0.777541	716.281082	-8.570059	6.732601	-0.586289	-0.939938	-1.196466
0.060	4.838392	-0.739212	716.333031	-8.545158	6.816692	-0.594544	-0.951609	-1.192903
0.070	4.814290	-0.720894	716.452966	-8.531377	6.912435	-0.606914	-0.964813	-1.190780
0.080	4.758023	-0.711902	716.628606	-8.527619	7.018304	-0.621645	-0.979350	-1.189963
0.090	4.672299	-0.705672	716.830225	-8.531787	7.132191	-0.636847	-0.994962	-1.190210
0.100	4.557562	-0.700879	717.014789	-8.540998	7.252412	-0.650823	-1.011473	-1.191189
0.110	4.412480	-0.699577	717.135023	-8.551777	7.378256	-0.662323	-1.028852	-1.192492
0.120	4.236446	-0.703902	717.151278	-8.560365	7.509775	-0.670698	-1.047168	-1.193662
0.130	4.032671	-0.713304	717.043194	-8.563221	7.647000	-0.675967	-1.066463	-1.194241
0.140	3.810194	-0.723654	716.817350	-8.557634	7.789097	-0.678735	-1.086622	-1.193838
0.150	3.583564	-0.728466	716.507755	-8.542166	7.933944	-0.679999	-1.107307	-1.192194
0.160	3.369849	-0.721391	716.168576	-8.516577	8.078356	-0.680876	-1.127996	-1.189186
0.170	3.183821	-0.698567	715.861614	-8.481243	8.218893	-0.682300	-1.148112	-1.184760
0.180	3.033021	-0.659726	715.642509	-8.436388	8.352941	-0.684778	-1.167195	-1.178855
0.190	2.914756	-0.607838	715.548883	-8.381735	8.479618	-0.688289	-1.185051	-1.171371
0.200	2.816681	-0.547882	715.592256	-8.316832	8.600020	-0.692369	-1.201804	-1.162231
0.210	2.721460	-0.485429	715.755168	-8.241846	8.716536	-0.696316	-1.217810	-1.151490
0.220	2.614079	-0.425410	715.995184	-8.158181	8.831457	-0.699402	-1.233452	-1.139418
0.230	2.488729	-0.371080	716.256168	-8.068453	8.945474	-0.701013	-1.248921	-1.126476
0.240	2.352032	-0.323312	716.484078	-7.975845	9.056774	-0.700731	-1.264058	-1.113192
0.250	2.220968	-0.280488	716.641461	-7.883224	9.161104	-0.698394	-1.278339	-1.100023
0.260	2.116393	-0.239102	716.714792	-7.792443	9.252776	-0.694132	-1.290998	-1.087245
0.270	2.054976	-0.194897	716.712634	-7.704034	9.326251	-0.688418	-1.301254	-1.074913
0.280	2.042918	-0.144194	716.657290	-7.617365	9.377724	-0.682127	-1.308537	-1.062902
0.290	2.073851	-0.084996	716.574616	-7.531207	9.406147	-0.676539	-1.312654	-1.051001
0.300	2.131532	-0.017478	716.485839	-7.444647	9.413420	-0.673202	-1.313832	-1.039050
0.310	2.195951	0.056188	716.403627	-7.358080	9.403908	-0.673605	-1.312655	-1.027086
0.320	2.250119	0.132206	716.332749	-7.273816	9.383522	-0.678723	-1.309939	-1.015424
0.330	2.284715	0.205291	716.273818	-7.195782	9.358556	-0.688547	-1.306561	-1.004613
0.340	2.299062	0.268669	716.227806	-7.128182	9.334355	-0.701801	-1.303266	-0.995240
0.350	2.298779	0.314683	716.199650	-7.073648	9.314054	-0.716022	-1.300483	-0.987664
0.360	2.291906	0.336713	716.199740	-7.031810	9.297744	-0.728146	-1.298205	-0.981822
0.370	2.285561	0.332275	716.242054	-6.998989	9.282399	-0.735494	-1.295986	-0.977182
0.380	2.284472	0.305856	716.338146	-6.969101	9.262670	-0.736805	-1.293058	-0.972879
0.390	2.291573	0.269530	716.488324	-6.935335	9.232263	-0.732848	-1.288543	-0.967962
0.400	2.309888	0.240287	716.673976	-6.892027	9.185391	-0.726262	-1.281669	-0.961668
0.410	2.344287	0.234713	716.856181	-6.836166	9.117796	-0.720590	-1.271914	-0.953631
0.420	2.401721	0.263183	716.983786	-6.768109	9.027129	-0.718823	-1.259042	-0.943970
0.430	2.489479	0.326113	717.009649	-6.691235	8.912808	-0.722081	-1.243053	-0.933214
0.440	2.612275	0.414081	716.908863	-6.610551	8.775673	-0.729060	-1.224099	-0.922091
0.450	2.769776	0.511954	716.690678	-6.530733	8.617725	-0.736603	-1.202433	-0.911234
0.460	2.956085	0.605254	716.398256	-6.454480	8.442117	-0.741146	-1.178411	-0.900963
0.470	3.161621	0.685823	716.096074	-6.382089	8.253334	-0.740326	-1.152546	-0.891234
0.480	3.376359	0.754173	715.850361	-6.312489	8.057371	-0.733974	-1.125566	-0.881817
0.490	3.592403	0.817646	715.710118	-6.245042	7.861673	-0.724058	-1.098444	-0.872566
0.500	3.804449	0.885487	715.694695	-6.180909	7.674655	-0.713653	-1.072336	-0.863624
0.510	4.008269	0.963144	715.790523	-6.123148	7.504821	-0.705472	-1.048466	-0.855439
0.520	4.198898	1.048233	715.957102	-6.075566	7.359678	-0.700646	-1.027950	-0.848594
0.530	4.370174	1.129999	716.141106	-6.041140	7.244663	-0.698300	-1.011625	-0.843568
0.540	4.515961	1.192833	716.295710	-6.021034	7.162252	-0.696033	-0.999902	-0.840579
0.550	4.631923	1.222570	716.399206	-6.014752	7.111468	-0.690966	-0.992668	-0.839581
0.560	4.716556	1.212522	716.464604	-6.021154	7.088099	-0.680815	-0.989316	-0.840398
0.570	4.771004	1.166032	716.533646	-6.039406	7.085757	-0.664580	-0.988894	-0.842864
0.580	4.798042	1.094224	716.655442	-6.069077	7.097526	-0.642771	-0.990368	-0.846861
0.590	4.800937	1.010589	716.858673	-6.109339	7.117641	-0.617234	-0.992893	-0.852238
0.600	4.782592	0.925793	717.131299	-6.157993	7.142578	-0.590726	-0.995993	-0.858698
0.610	4.744915	0.845417	717.418518	-6.211202	7.171236	-0.566327	-0.999589	-0.865771
0.620	4.688192	0.770990	717.640050	-6.264304	7.204250	-0.546836	-1.003881	-0.872903
0.630	4.610649	0.702598	717.718004	-6.313333	7.242866	-0.534292	-1.009152	-0.879640
0.640	4.508837	0.641021	717.602923	-6.356501	7.287864	-0.529769	-1.015584	-0.885796
0.650	4.379240	0.588206	717.288631	-6.395033	7.338896	-0.533464	-1.023144	-0.891557
0.660	4.220729	0.546192	716.812833	-6.432989	7.394312	-0.544904	-1.031554	-0.897443
0.670	4.036744	0.515443	716.246073	-6.476015	7.451349	-0.563090	-1.040334	-0.904161
0.680	3.836099	0.493766	715.674788	-6.529315	7.506536	-0.586494	-1.048875	-0.912330
0.690	3.631982	0.476472	715.184244	-6.595519	7.556204	-0.613003	-1.056539	-0.922213
0.700	3.439598	0.457675	714.844874	-6.673256	7.597016	-0.639929	-1.062750	-0.933525
0.710	3.273307	0.432214	714.702823	-6.756980	7.626321	-0.664137	-1.067062	-0.945425
0.720	3.144115	0.397590	714.774267	-6.837995	7.642112	-0.682393	-1.069164	-0.956665
0.730	3.058181	0.355375	715.043514	-6.906331	7.642560	-0.691996	-1.068825	-0.965862
0.740	3.016661	0.311582	715.465587	-6.952999	7.625361	-0.691608	-1.065790	-0.971815
0.750	3.016823	0.275708	715.973623	-6.972112	7.587274	-0.681913	-1.059714	-0.973794
0.760	3.053951	0.258427	716.489837	-6.962345	7.524236	-0.665665	-1.050153	-0.971730
0.770	3.123277	0.268432	716.937599	-6.927345	7.432168	-0.646919	-1.036655	-0.966241
0.780	3.221141	0.309327	717.252715	-6.874982	7.308286	-0.629751	-1.018928	-0.958516
0.790	3.344877	0.377598	717.393643	-6.815687	7.152422	-0.617074	-0.997001	-0.950062
0.800	3.491780	0.462402	717.350580	-6.760246	6.967768	-0.610074	-0.971320	-0.942391
0.810	3.658200	0.547586	717.151241	-6.717558	6.760754	-0.608387	-0.942724	-0.936700
0.820	3.839670	0.615790	716.858885	-6.692924	6.540091	-0.610710	-0.912326	-0.933646
0.830	4.032116	0.653612	716.558992	-6.687372	6.315279	-0.615415	-0.881334	-0.933262
0.840	4.233360	0.655813	716.336180	-6.698234	6.094952	-0.620874	-0.850851	-0.935068
0.850	4.443950	0.626469	716.249649	-6.720750	5.885544	-0.625551	-0.821717	-0.938325
0.860	4.666669	0.576264	716.317718	-6.750071	5.690771	-0.627975	-0.794448	-0.942329
0.870	4.904244	0.517134	716.516811	-6.782877	5.512156	-0.626760	-0.769299	-0.946646
0.880	5.155501	0.456830	716.792169	-6.818004	5.350328	-0.620703	-0.746427	-0.951183
0.890	5.411487	0.396059	717.073828	-6.855980	5.206434	-0.608967	-0.726067	-0.956105
0.900	5.654089	0.329782	717.293180	-6.897855	5.083068	-0.591318	-0.708646	-0.961651
0.910	5.858721	0.252194	717.397840	-6.943969	4.984428	-0.568346	-0.694793	-0.967938
0.920	6.000383	0.162760	717.362889	-6.993215	4.915711	-0.541593	-0.685247	-0.974850
0.930	6.060543	0.069833	717.196162	-7.043066	4.881979	-0.513485	-0.680704	-0.982028
0.940	6.032276	-0.010449	716.935771	-7.090278	4.886837	-0.487028	-0.681628	-0.988970
0.950	5.922273	-0.059674	716.639514	-7.131903	4.931266	-0.465319	-0.688110	-0.995187
0.960	5.749490	-0.064471	716.368295	-7.166185	5.012961	-0.450937	-0.699774	-1.000349
0.970	5.540937	-0.022177	716.168683	-7.192984	5.126395	-0.445363	-0.715808	-1.004370
0.980	5.325712	0.057588	716.061239	-7.213598	5.263727	-0.448580	-0.735095	-1.007400
0.990	5.129047	0.155879	716.039316	-7.230170	5.416344	-0.459057	-0.756431	-1.009745
1.000	4.968117	0.250324	716.078141	-7.245014	5.576612	-0.474166	-0.778771	-1.011763
1.010	4.850416	0.321467	716.149025	-7.260163	5.739227	-0.490898	-0.801401	-1.013778
1.020	4.774233	0.357549	716.231270	-7.277083	5.901731	-0.506597	-0.823998	-1.016024
1.030	4.730252	0.356717	716.315912	-7.296328	6.064133	-0.519486	-0.846572	-1.018591
1.040	4.703528	0.326462	716.400158	-7.317074	6.228076	-0.528961	-0.869357	-1.021367
1.050	4.675648	0.280697	716.477485	-7.336844	6.396035	-0.535731	-0.892706	-1.024016
1.060	4.627272	0.235419	716.531892	-7.351932	6.570791	-0.541848	-0.917027	-1.026044
1.070	4.541423	0.204272	716.542109	-7.358673	6.755027	-0.550511	-0.942726	-1.026970
1.080	4.407625	0.195305	716.493861	-7.355152	6.950764	-0.565496	-0.970108	-1.026548
1.090	4.226110	0.209692	716.391960	-7.342570	7.158612	-0.590197	-0.999259	-1.024937
1.100	4.010455	0.242448	716.264321	-7.325633	7.377051	-0.626455	-1.029934	-1.022756
1.110	3.786749	0.284524	716.155288	-7.311741	7.602109	-0.673520	-1.061517	-1.020971
1.120	3.588148	0.325459	716.110994	-7.309168	7.827677	-0.727554	-1.093082	-1.020675
1.130	3.445274	0.355889	716.162521	-7.324719	8.046510	-0.781995	-1.123559	-1.022773
1.140	3.375105	0.369448	716.313331	-7.361502	8.251718	-0.828927	-1.151971	-1.027693
1.150	3.372567	0.363848	716.535892	-7.417570	8.438369	-0.861215	-1.177662	-1.035199
1.160	3.408988	0.340981	716.778849	-7.486100	8.604609	-0.874733	-1.200455	-1.044409
1.170	3.439254	0.306037	716.982506	-7.557326	8.751804	-0.869794	-1.220644	-1.054046
1.180	3.415817	0.265678	717.097977	-7.621726	8.883459	-0.851148	-1.238807	-1.062857
1.190	3.304377	0.225652	717.103845	-7.673291	9.003273	-0.826418	-1.255505	-1.070039
1.200	3.095054	0.188787	717.013737	-7.711587	9.113068	-0.803555	-1.270975	-1.075514
1.210	2.804898	0.154541	716.870555	-7.741739	9.211465	-0.788305	-1.284955	-1.079935
1.220	2.471589	0.120370	716.728686	-7.772382	9.293797	-0.782676	-1.296697	-1.084425
1.230	2.141747	0.083820	716.631656	-7.812522	9.353273	-0.784911	-1.305172	-1.090173
1.240	1.858661	0.043879	716.595168	-7.868609	9.382934	-0.790816	-1.309377	-1.098055
1.250	1.653269	0.001102	716.602633	-7.942850	9.377717	-0.795728	-1.308636	-1.108404
1.260	1.540094	-0.043050	716.614465	-8.033205	9.335855	-0.796258	-1.302772	-1.120994
1.270	1.517934	-0.086976	716.586825	-8.134775	9.259171	-0.791171	-1.292121	-1.135211
1.280	1.573931	-0.129553	716.491913	-8.241779	9.152221	-0.781234	-1.277366	-1.150296
1.290	1.689235	-0.170655	716.331318	-8.349146	9.020755	-0.768342	-1.259299	-1.165543
1.300	1.844481	-0.211623	716.136581	-8.453246	8.870091	-0.754461	-1.238603	-1.180396
1.310	2.023778	-0.255413	715.956772	-8.551881	8.703953	-0.740854	-1.215709	-1.194469
1.320	2.216747	-0.306005	715.839075	-8.644046	8.524128	-0.727774	-1.190788	-1.207540
1.330	2.418972	-0.367011	715.811625	-8.729758	8.330955	-0.714606	-1.163847	-1.219561
1.340	2.631396	-0.440163	715.876131	-8.809950	8.124295	-0.700264	-1.134874	-1.230653
1.350	2.858773	-0.524515	716.012372	-8.886315	7.904493	-0.683633	-1.103960	-1.241084
1.360	3.107104	-0.616740	716.191009	-8.960944	7.673084	-0.663895	-1.071374	-1.251195
1.370	3.380300	-0.712092	716.388220	-9.035581	7.433248	-0.640732	-1.037601	-1.261269
1.380	3.676774	-0.805283	716.595755	-9.110519	7.190041	-0.614471	-1.003361	-1.271361
1.390	3.986998	-0.890819	716.821946	-9.183580	6.950278	-0.586183	-0.969596	-1.281152
1.400	4.293086	-0.962917	717.082636	-9.249879	6.721912	-0.557688	-0.937397	-1.289932
1.410	4.571110	-1.015508	717.385274	-9.302799	6.512951	-0.531353	-0.907874	-1.296765
1.420	4.796044	-1.042862	717.713471	-9.335995	6.330221	-0.509655	-0.881998	-1.300797
1.430	4.948034	-1.041016	718.020853	-9.345701	6.178337	-0.494561	-0.860468	-1.301592
1.440	5.017736	-1.009476	718.239769	-9.332391	6.059078	-0.486924	-0.843601	-1.299342
1.450	5.008485	-0.952253	718.302655	-9.301093	5.971270	-0.486188	-0.831303	-1.294871
1.460	4.934454	-0.877425	718.166545	-9.260157	5.911166	-0.490579	-0.823091	-1.289416
1.470	4.815923	-0.795204	717.829667	-9.218895	5.873282	-0.497695	-0.818200	-1.284273
1.480	4.673937	-0.715298	717.333790	-9.184859	5.851514	-0.505199	-0.815731	-1.280416
1.490	4.526382	-0.644718	716.752999	-9.161757	5.840329	-0.511346	-0.814832	-1.278231
1.500	4.386407	-0.586859	716.174616	-9.148777	5.835752	-0.515200	-0.814850	-1.277451
1.510	4.262794	-0.541915	715.679685	-9.141479	5.835931	-0.516583	-0.815439	-1.277314
1.520	4.161127	-0.508112	715.328964	-9.133630	5.841145	-0.515903	-0.816568	-1.276843
1.530	4.084582	-0.482984	715.156845	-9.119053	5.853198	-0.513977	-0.818450	-1.275112
1.540	4.033898	-0.464050	715.171974	-9.092838	5.874371	-0.511920	-0.821393	-1.271420
1.550	4.007102	-0.448615	715.361155	-9.051859	5.906240	-0.510989	-0.825631	-1.265355
1.560	4.000013	-0.433056	715.693334	-8.994948	5.948728	-0.512330	-0.831184	-1.256816
1.570	4.008032	-0.412390	716.122500	-8.923034	5.999598	-0.516604	-0.837789	-1.246021
1.580	4.028605	-0.380900	716.590711	-8.839215	6.054454	-0.523637	-0.844897	-1.233510
1.590	4.062825	-0.333874	717.033498	-8.748497	6.107220	-0.532283	-0.851734	-1.220096
1.600	4.114912	-0.269657	717.389103	-8.656981	6.151086	-0.540624	-0.857427	-1.206734
1.610	4.189537	-0.190854	717.610366	-8.570625	6.179769	-0.546539	-0.861159	-1.194328
1.620	4.288185	-0.103916	717.674720	-8.493866	6.188832	-0.548462	-0.862345	-1.183526
1.630	4.406244	-0.017180	717.586925	-8.428402	6.176694	-0.546014	-0.860759	-1.174548
1.640	4.532161	0.061904	717.373009	-8.372516	6.145107	-0.540216	-0.856612	-1.167108
1.650	4.649240	0.129368	717.069832	-8.321309	6.099027	-0.533184	-0.850549	-1.160460
1.660	4.739660	0.186191	716.717227	-8.268024	6.045960	-0.527469	-0.843563	-1.153596
1.670	4.789493	0.237905	716.356686	-8.206164	5.994850	-0.525291	-0.836853	-1.145542
1.680	4.793089	0.292310	716.034447	-8.131665	5.954554	-0.527918	-0.831602	-1.135653
1.690	4.755320	0.356281	715.802094	-8.044269	5.932005	-0.535330	-0.828721	-1.123812
1.700	4.690740	0.433187	715.708693	-7.947457	5.930383	-0.546273	-0.828603	-1.110432
1.710	4.619662	0.522064	715.785112	-7.846990	5.947845	-0.558657	-0.830954	-1.096277
1.720	4.562311	0.618674	716.028341	-7.748697	5.977483	-0.570138	-0.834811	-1.082177
1.730	4.533051	0.717763	716.395539	-7.656420	6.008917	-0.578714	-0.838771	-1.068742
1.740	4.536626	0.815458	716.812851	-7.570865	6.031331	-0.583205	-0.841409	-1.056184
1.750	4.567488	0.910807	717.195970	-7.489733	6.036936	-0.583604	-0.841741	-1.044308
1.760	4.612167	1.005834	717.473141	-7.409069	6.023478	-0.581196	-0.839541	-1.032662
1.770	4.653838	1.104072	717.600828	-7.325323	5.994724	-0.578257	-0.835384	-1.020807
1.780	4.677745	1.208102	717.567613	-7.237373	5.958859	-0.577245	-0.830425	-1.008598
1.790	4.675893	1.317075	717.388794	-7.147767	5.925575	-0.579757	-0.825992	-0.996359
1.800	4.649345	1.425237	717.097864	-7.062734	5.903020	-0.585780	-0.823182	-0.984905
1.810	4.607152	1.522290	716.739750	-6.990851	5.895635	-0.593699	-0.822563	-0.975368
1.820	4.562294	1.595955	716.366416	-6.940729	5.903476	-0.601109	-0.824086	-0.968880
1.830	4.526387	1.636127	716.032411	-6.918422	5.923108	-0.605973	-0.827212	-0.966216
1.840	4.505371	1.638948	715.788471	-6.925567	5.949533	-0.607522	-0.831186	-0.967544
1.850	4.497813	1.608811	715.673900	-6.959021	5.978269	-0.606475	-0.835334	-0.972373
1.860	4.496213	1.557157	715.709729	-7.012125	6.006589	-0.604560	-0.839249	-0.979744
1.870	4.490521	1.498430	715.893682	-7.076905	6.033517	-0.603678	-0.842795	-0.988541
1.880	4.472362	1.444880	716.197277	-7.146192	6.058909	-0.605139	-0.845983	-0.997797
1.890	4.438432	1.402475	716.566787	-7.214967	6.082429	-0.609252	-0.848829	-1.006880
1.900	4.391921	1.369804	716.931120	-7.280915	6.103026	-0.615282	-0.851271	-1.015567
1.910	4.341623	1.340334	717.217788	-7.344475	6.119059	-0.621714	-0.853166	-1.024023
1.920	4.299258	1.306565	717.373081	-7.408615	6.128856	-0.626705	-0.854347	-1.032742
1.930	4.276067	1.263561	717.378194	-7.478227	6.131334	-0.628630	-0.854686	-1.042439
1.940	4.279709	1.210007	717.253790	-7.558977	6.126357	-0.626572	-0.854141	-1.053878
1.950	4.312046	1.146732	717.051390	-7.655653	6.114703	-0.620601	-0.852757	-1.067657
1.960	4.368187	1.074288	716.836319	-7.770504	6.097778	-0.611715	-0.850651	-1.084000
1.970	4.437077	0.991516	716.669157	-7.902320	6.077247	-0.601465	-0.847985	-1.102646
1.980	4.503923	0.896119	716.590717	-8.046823	6.054724	-0.591455	-0.844935	-1.122931
1.990	4.554246	0.786645	716.613091	-8.198311	6.031495	-0.582925	-0.841667	-1.144036
2.000	4.578490	0.664306	716.718197	-8.351905	6.008151	-0.576558	-0.838286	-1.165298
2.010	4.575481	0.533150	716.864351	-8.505428	5.984032	-0.572458	-0.834751	-1.186477
2.020	4.553361	0.398256	716.999242	-8.660090	5.956586	-0.570195	-0.830766	-1.207824
2.030	4.527776	0.263049	717.074945	-8.819564	5.921180	-0.568856	-0.825741	-1.229936
2.040	4.518098	0.127627	717.059882	-8.987638	5.871956	-0.567164	-0.818893	-1.253401
2.050	4.542797	-0.010504	716.945010	-9.165374	5.803841	-0.563772	-0.809524	-1.278393
2.060	4.614985	-0.153560	716.744688	-9.349113	5.714935	-0.557726	-0.797346	-1.304385
2.070	4.739251	-0.300231	716.493544	-9.530463	5.608109	-0.548913	-0.782716	-1.330153
2.080	4.910780	-0.444129	716.239651	-9.698512	5.491020	-0.538232	-0.766646	-1.354087
2.090	5.116971	-0.574968	716.034195	-9.843405	5.374641	-0.527338	-0.750612	-1.374712
2.100	5.340490	-0.681966	715.919553	-9.959761	5.270998	-0.518057	-0.736256	-1.391184
2.110	5.562305	-0.757924	715.919168	-10.048449	5.190902	-0.511747	-0.725068	-1.403573
2.120	5.764003	-0.802138	716.032063	-10.115965	5.142151	-0.508937	-0.718145	-1.412781
2.130	5.929642	-0.820826	716.233485	-10.171711	5.128509	-0.509348	-0.716039	-1.420167
2.140	6.047552	-0.824722	716.482434	-10.224412	5.149645	-0.512168	-0.718740	-1.427029
2.150	6.111941	-0.824761	716.735398	-10.279214	5.202090	-0.516333	-0.725803	-1.434171
2.160	6.123600	-0.827728	716.962345	-10.336562	5.280829	-0.520676	-0.736556	-1.441716
2.170	6.089143	-0.833772	717.157828	-10.393052	5.380772	-0.524053	-0.750291	-1.449200
2.180	6.018975	-0.836731	717.340450	-10.443617	5.497451	-0.525553	-0.766366	-1.455880
2.190	5.924899	-0.826956	717.538830	-10.483981	5.626754	-0.524810	-0.784174	-1.461103
2.200	5.818124	-0.795392	717.769816	-10.512412	5.764140	-0.522237	-0.803062	-1.464594
2.210	5.707754	-0.737383	718.020275	-10.530228	5.904045	-0.519013	-0.822267	-1.466564
2.220	5.599464	-0.654907	718.243016	-10.541061	6.040120	-0.516727	-0.840958	-1.467618
2.230	5.494367	-0.556712	718.370023	-10.549268	6.166353	-0.516810	-0.858381	-1.468501
2.240	5.388695	-0.456475	718.337105	-10.558194	6.278627	-0.520047	-0.874050	-1.469810
2.250	5.275134	-0.369452	718.108678	-10.569004	6.375999	-0.526395	-0.887888	-1.471783
2.260	5.146028	-0.308286	717.692471	-10.580552	6.461154	-0.535151	-0.900268	-1.474246
2.270	4.997529	-0.279058	717.139828	-10.590303	6.539825	-0.545290	-0.911932	-1.476742
2.280	4.832879	-0.279187	716.533411	-10.595856	6.619299	-0.555787	-0.923795	-1.478767
2.290	4.663048	-0.298406	715.967307	-10.596400	6.706399	-0.565812	-0.936691	-1.480012
2.300	4.504047	-0.322566	715.525392	-10.593441	6.805479	-0.574760	-0.951116	-1.480512
2.310	4.371775	-0.338490	715.263667	-10.590498	6.917046	-0.582134	-0.967062	-1.480643
2.320	4.276498	-0.337790	715.201176	-10.591881	7.037594	-0.587382	-0.984002	-1.480965
2.330	4.219244	-0.318498	715.321373	-10.601075	7.160933	-0.589867	-1.001079	-1.482002
2.340	4.191584	-0.284455	715.582121	-10.619450	7.280613	-0.589033	-1.017439	-1.484030
2.350	4.178951	-0.243073	715.929401	-10.645727	7.392364	-0.584723	-1.032555	-1.486980
