Time[s]	Fx[N]	Fy[N]	Fz[N]	Mx[Nm]	My[Nm]	Mz[Nm]	COPx[cm]	COPy[cm]
0.010	2.076010	-2.183826	524.049635	-6.243487	-0.785009	0.652353	0.149797	-1.191392
0.020	2.207820	-2.029475	521.978637	-6.231127	-0.851379	0.622765	0.163106	-1.193751
0.030	2.324438	-1.866707	519.855197	-6.216903	-0.915919	0.594861	0.176187	-1.195891
0.040	2.414536	-1.692330	517.653900	-6.199577	-0.976362	0.570016	0.188613	-1.197630
0.050	2.472759	-1.512061	515.390167	-6.179428	-1.029643	0.549114	0.199779	-1.198981
0.060	2.498717	-1.339701	513.119417	-6.158395	-1.072107	0.532550	0.208939	-1.200187
0.070	2.493951	-1.193139	510.925152	-6.139896	-1.099938	0.520358	0.215284	-1.201721
0.080	2.458946	-1.088873	508.903235	-6.128426	-1.109629	0.512348	0.218043	-1.204242
0.090	2.392042	-1.036915	507.148181	-6.129126	-1.098280	0.508205	0.216560	-1.208547
0.100	2.290789	-1.037751	505.743376	-6.147457	-1.063639	0.507580	0.210312	-1.215529
0.110	2.154812	-1.082464	504.754142	-6.188853	-1.003925	0.510210	0.198894	-1.226112
0.120	1.988301	-1.155973	504.221999	-6.258065	-0.917624	0.516011	0.181988	-1.241133
0.130	1.800479	-1.242045	504.159895	-6.358143	-0.803573	0.525050	0.159388	-1.261136
0.140	1.603470	-1.327971	504.550293	-6.489421	-0.661523	0.537347	0.131111	-1.286179
0.150	1.408502	-1.407074	505.348272	-6.648996	-0.493013	0.552620	0.097559	-1.315726
0.160	1.222454	-1.478392	506.489275	-6.830955	-0.301957	0.570137	0.059618	-1.348687
0.170	1.046681	-1.544340	507.898448	-7.027247	-0.094469	0.588758	0.018600	-1.383593
0.180	0.878753	-1.608037	509.498504	-7.228919	0.121974	0.607053	-0.023940	-1.418830
0.190	0.716092	-1.671697	511.215210	-7.427457	0.339485	0.623442	-0.066407	-1.452902
0.200	0.559606	-1.736453	512.981230	-7.616026	0.550333	0.636341	-0.107281	-1.484660
0.210	0.415642	-1.803139	514.738653	-7.790442	0.747061	0.644400	-0.145134	-1.513475
0.220	0.295388	-1.873153	516.439338	-7.949658	0.922450	0.646802	-0.178617	-1.539321
0.230	0.211938	-1.948747	518.041726	-8.095523	1.069626	0.643466	-0.206475	-1.562716
0.240	0.176093	-2.032541	519.504114	-8.231805	1.182444	0.634981	-0.227610	-1.584551
0.250	0.192321	-2.126558	520.776723	-8.362847	1.256099	0.622295	-0.241197	-1.605841
0.260	0.255962	-2.231354	521.797225	-8.492464	1.287858	0.606365	-0.246812	-1.627541
0.270	0.352362	-2.345712	522.494505	-8.623457	1.277703	0.587986	-0.244539	-1.650440
0.280	0.458502	-2.467134	522.802052	-8.757636	1.228593	0.567849	-0.235002	-1.675134
0.290	0.547632	-2.592969	522.677050	-8.895967	1.145957	0.546703	-0.219248	-1.702001
0.300	0.596636	-2.721723	522.117640	-9.038683	1.036251	0.525373	-0.198471	-1.731158
0.310	0.594211	-2.853849	521.170925	-9.185443	0.904865	0.504529	-0.173622	-1.762463
0.320	0.546584	-2.991344	519.927748	-9.335688	0.754158	0.484345	-0.145051	-1.795574
0.330	0.477553	-3.135983	518.505687	-9.489204	0.582603	0.464394	-0.112362	-1.830106
0.340	0.421706	-3.286938	517.026382	-9.646736	0.385686	0.443951	-0.074597	-1.865811
0.350	0.412721	-3.439291	515.594335	-9.810367	0.158452	0.422603	-0.030732	-1.902730
0.360	0.471204	-3.584605	514.281668	-9.983427	-0.101241	0.400765	0.019686	-1.941237
0.370	0.597061	-3.713431	513.120036	-10.169789	-0.390175	0.379803	0.076040	-1.981951
0.380	0.769766	-3.818362	512.100070	-10.372667	-0.699150	0.361683	0.136526	-2.025516
0.390	0.956842	-3.895918	511.179371	-10.593234	-1.014657	0.348332	0.198493	-2.072312
0.400	1.127858	-3.946167	510.299063	-10.829584	-1.322138	0.341011	0.259091	-2.122203
0.410	1.268922	-3.970418	509.405872	-11.076533	-1.609396	0.339925	0.315936	-2.174402
0.420	1.391745	-3.968701	508.473720	-11.326443	-1.868794	0.344189	0.367530	-2.227538
0.430	1.532614	-3.939214	507.517843	-11.570932	-2.097604	0.352144	0.413306	-2.279907
0.440	1.740300	-3.880790	506.596125	-11.802986	-2.296708	0.361931	0.453361	-2.329861
0.450	2.056770	-3.797418	505.796625	-12.018815	-2.468400	0.372205	0.488022	-2.376215
0.460	2.498221	-3.702142	505.215864	-12.218802	-2.614137	0.382741	0.517430	-2.418531
0.470	3.044344	-3.617493	504.936313	-12.407216	-2.732968	0.394678	0.541250	-2.457184
0.480	3.640256	-3.571231	505.010961	-12.590845	-2.821088	0.410155	0.558619	-2.493183
0.490	4.209848	-3.588774	505.457810	-12.777130	-2.872692	0.431490	0.568335	-2.527833
0.500	4.674620	-3.685608	506.261641	-12.972394	-2.881835	0.460242	0.569238	-2.562389
0.510	4.971065	-3.862955	507.378942	-13.180626	-2.844679	0.496577	0.560662	-2.597787
0.520	5.062099	-4.108110	508.744433	-13.402921	-2.761326	0.539085	0.542773	-2.634510
0.530	4.941800	-4.398599	510.279892	-13.637499	-2.636688	0.585034	0.516714	-2.672553
0.540	4.635100	-4.708105	511.904918	-13.880253	-2.480255	0.630943	0.484515	-2.711490
0.550	4.194006	-5.012283	513.546271	-14.125807	-2.304986	0.673327	0.448837	-2.750640
0.560	3.690513	-5.293205	515.141295	-14.368847	-2.125645	0.709456	0.412633	-2.789302
0.570	3.205761	-5.541697	516.633773	-14.605274	-1.956848	0.737912	0.378769	-2.827007
0.580	2.816231	-5.757190	517.965717	-14.832768	-1.811005	0.758813	0.349638	-2.863658
0.590	2.579712	-5.945135	519.072239	-15.050663	-1.696509	0.773598	0.326835	-2.899531
0.600	2.524736	-6.112710	519.885384	-15.259272	-1.616635	0.784406	0.310960	-2.935122
0.610	2.646650	-6.264133	520.346658	-15.458925	-1.569547	0.793277	0.301635	-2.970890
0.620	2.911458	-6.397213	520.421674	-15.649034	-1.549350	0.801460	0.297711	-3.006991
0.630	3.265907	-6.502508	520.108881	-15.827510	-1.547637	0.809094	0.297560	-3.043115
0.640	3.650236	-6.565530	519.438527	-15.990792	-1.554799	0.815355	0.299323	-3.078476
0.650	4.009478	-6.571309	518.464362	-16.134491	-1.560821	0.818990	0.301047	-3.111977
0.660	4.300566	-6.509865	517.254445	-16.254412	-1.555828	0.819005	0.300786	-3.142440
0.670	4.494818	-6.381047	515.886318	-16.347508	-1.530892	0.815224	0.296750	-3.168820
0.680	4.577264	-6.197252	514.447038	-16.412372	-1.479348	0.808430	0.287561	-3.190294
0.690	4.544859	-5.982700	513.034064	-16.449087	-1.398266	0.800074	0.272548	-3.206237
0.700	4.405042	-5.768581	511.751904	-16.458593	-1.289318	0.791733	0.251942	-3.216127
0.710	4.174970	-5.584874	510.702106	-16.441996	-1.158404	0.784649	0.226826	-3.219489
0.720	3.880612	-5.451426	509.968186	-16.400192	-1.013944	0.779554	0.198825	-3.215925
0.730	3.554288	-5.371842	509.599956	-16.333950	-0.864379	0.776777	0.169619	-3.205249
0.740	3.229682	-5.332878	509.602843	-16.244314	-0.715873	0.776450	0.140477	-3.187642
0.750	2.934871	-5.309690	509.937376	-16.133050	-0.571142	0.778552	0.112002	-3.163732
0.760	2.685637	-5.274684	510.531056	-16.002804	-0.429781	0.782756	0.084183	-3.134541
0.770	2.481958	-5.206482	511.299267	-15.856782	-0.289688	0.788224	0.056657	-3.101272
0.780	2.309548	-5.096054	512.167007	-15.697961	-0.148755	0.793609	0.029044	-3.065008
0.790	2.146040	-4.948486	513.082267	-15.528185	-0.006180	0.797348	0.001204	-3.026451
0.800	1.969319	-4.780214	514.015776	-15.347705	0.136883	0.798132	-0.026630	-2.985843
0.810	1.764854	-4.612807	514.948649	-15.155559	0.277363	0.795357	-0.053862	-2.943120
0.820	1.529783	-4.465627	515.855892	-14.950739	0.410866	0.789352	-0.079647	-2.898239
0.830	1.273051	-4.350154	516.695566	-14.733567	0.532507	0.781253	-0.103060	-2.851499
0.840	1.012396	-4.267924	517.409530	-14.506591	0.637542	0.772520	-0.123218	-2.803696
0.850	0.769895	-4.212246	517.934773	-14.274504	0.721579	0.764283	-0.139319	-2.756043
0.860	0.567706	-4.172237	518.219243	-14.042994	0.780514	0.756807	-0.150615	-2.709856
0.870	0.424902	-4.137110	518.235344	-13.816967	0.810552	0.749330	-0.156406	-2.666157
0.880	0.355433	-4.098985	517.986658	-13.598889	0.808568	0.740339	-0.156098	-2.625336
0.890	0.366861	-4.053645	517.506516	-13.388113	0.772789	0.728142	-0.149329	-2.587042
0.900	0.459617	-3.999719	516.849552	-13.181590	0.703654	0.711531	-0.136143	-2.550373
0.910	0.626629	-3.937441	516.078988	-12.975754	0.604534	0.690257	-0.117140	-2.514296
0.920	0.853364	-3.867759	515.252979	-12.768691	0.482007	0.665235	-0.093548	-2.478140
0.930	1.118592	-3.791945	514.413474	-12.561466	0.345428	0.638462	-0.067150	-2.441901
0.940	1.396430	-3.711346	513.581056	-12.357813	0.205812	0.612687	-0.040074	-2.406205
0.950	1.660129	-3.626944	512.758132	-12.162367	0.074204	0.590851	-0.014472	-2.371950
0.960	1.887190	-3.538594	511.939796	-11.978506	-0.040069	0.575338	0.007827	-2.339827
0.970	2.064321	-3.444234	511.127866	-11.807131	-0.130846	0.567275	0.025599	-2.310015
0.980	2.190128	-3.339721	510.341912	-11.646968	-0.195817	0.566139	0.038370	-2.282189
0.990	2.274028	-3.219922	509.622756	-11.496007	-0.236239	0.569909	0.046356	-2.255788
1.000	2.331488	-3.080910	509.027593	-11.352962	-0.255759	0.575675	0.050245	-2.230323
1.010	2.377471	-2.922130	508.618904	-11.217704	-0.258752	0.580461	0.050874	-2.205523
1.020	2.421038	-2.747133	508.450777	-11.090389	-0.248815	0.581948	0.048936	-2.181212
1.030	2.463519	-2.562367	508.556594	-10.969984	-0.227951	0.578884	0.044823	-2.157082
1.040	2.500651	-2.374820	508.941519	-10.853351	-0.196663	0.571216	0.038642	-2.132534
1.050	2.526839	-2.189881	509.581465	-10.735591	-0.154658	0.560008	0.030350	-2.106747
1.060	2.538691	-2.010268	510.427539	-10.611453	-0.101644	0.547239	0.019914	-2.078934
1.070	2.535736	-1.836094	511.413342	-10.476910	-0.037790	0.535431	0.007389	-2.048619
1.080	2.518168	-1.665716	512.462805	-10.329987	0.036272	0.527079	-0.007078	-2.015754
1.090	2.483528	-1.496698	513.497598	-10.170482	0.119752	0.524003	-0.023321	-1.980629
1.100	2.425128	-1.326113	514.444129	-9.998884	0.212037	0.526859	-0.041217	-1.943629
1.110	2.333999	-1.149978	515.240232	-9.815218	0.312820	0.535020	-0.060713	-1.904979
1.120	2.203795	-0.962655	515.841053	-9.618501	0.421909	0.546825	-0.081791	-1.864625
1.130	2.035895	-0.757626	516.222495	-9.407280	0.538821	0.560105	-0.104378	-1.822330
1.140	1.841524	-0.530519	516.380109	-9.181126	0.662359	0.572839	-0.128270	-1.777978
1.150	1.639251	-0.283652	516.322666	-8.942435	0.790471	0.583750	-0.153096	-1.731947
1.160	1.448764	-0.029808	516.063369	-8.697563	0.920542	0.592634	-0.178378	-1.685367
1.170	1.283885	0.207331	515.614799	-8.456649	1.049962	0.600237	-0.203633	-1.640110
1.180	1.148018	0.397171	514.992677	-8.232148	1.176599	0.607695	-0.228469	-1.598498
1.190	1.033959	0.509444	514.227723	-8.036670	1.298862	0.615771	-0.252585	-1.562862
1.200	0.927975	0.522169	513.378509	-7.880768	1.415421	0.624262	-0.275707	-1.535080
1.210	0.816499	0.427859	512.536021	-7.771128	1.524831	0.631866	-0.297507	-1.516211
1.220	0.692855	0.236236	511.814307	-7.709560	1.625336	0.636582	-0.317564	-1.506320
1.230	0.561340	-0.027475	511.328488	-7.693243	1.714878	0.636475	-0.335377	-1.504560
1.240	0.436764	-0.328563	511.167350	-7.716294	1.791303	0.630467	-0.350434	-1.509544
1.250	0.339349	-0.631583	511.370134	-7.772007	1.852706	0.618827	-0.362302	-1.519840
1.260	0.286835	-0.908936	511.915794	-7.854704	1.897839	0.603133	-0.370733	-1.534374
1.270	0.287134	-1.146037	512.728452	-7.960442	1.926388	0.585695	-0.375713	-1.552565
1.280	0.334876	-1.341021	513.696589	-8.086514	1.938958	0.568634	-0.377452	-1.574181
1.290	0.413465	-1.499353	514.698451	-8.230256	1.936767	0.552980	-0.376292	-1.599044
1.300	0.501446	-1.626339	515.624678	-8.387807	1.921244	0.538214	-0.372605	-1.626727
1.310	0.579835	-1.721655	516.392043	-8.553374	1.893693	0.522537	-0.366716	-1.656372
1.320	0.637014	-1.778700	516.947808	-8.719366	1.855098	0.503782	-0.358856	-1.686702
1.330	0.669774	-1.788833	517.268757	-8.877484	1.805982	0.480546	-0.349138	-1.716223
1.340	0.681343	-1.748071	517.359141	-9.020423	1.746227	0.452981	-0.337527	-1.743552
1.350	0.678376	-1.662728	517.248413	-9.143496	1.674817	0.422873	-0.323794	-1.767718
1.360	0.668580	-1.551011	516.986840	-9.245460	1.589601	0.393045	-0.307474	-1.788336
1.370	0.659605	-1.439441	516.637591	-9.328292	1.487250	0.366437	-0.287871	-1.805578
1.380	0.659010	-1.355296	516.266122	-9.396061	1.363651	0.345258	-0.264137	-1.820003
1.390	0.674708	-1.317903	515.929132	-9.453282	1.214839	0.330493	-0.235466	-1.832283
1.400	0.715299	-1.332073	515.665104	-9.503188	1.038297	0.321802	-0.201351	-1.842899
1.410	0.789838	-1.386213	515.487961	-9.546453	0.834111	0.317799	-0.161810	-1.851925
1.420	0.906819	-1.456087	515.385394	-9.580939	0.605402	0.316583	-0.117466	-1.858985
1.430	1.072434	-1.513127	515.322945	-9.602708	0.357814	0.316370	-0.069435	-1.863435
1.440	1.288534	-1.534265	515.252674	-9.608053	0.098281	0.316006	-0.019074	-1.864726
1.450	1.551096	-1.509473	515.122572	-9.595848	-0.166296	0.315248	0.032283	-1.862828
1.460	1.850079	-1.444196	514.882436	-9.569256	-0.429817	0.314792	0.083479	-1.858532
1.470	2.171078	-1.356395	514.485252	-9.536059	-0.686872	0.316052	0.133507	-1.853515
1.480	2.498103	-1.270236	513.887544	-9.507484	-0.931894	0.320732	0.181342	-1.850110
1.490	2.815889	-1.209359	513.053423	-9.496142	-1.158142	0.330262	0.225735	-1.850907
1.500	3.110339	-1.192011	511.963492	-9.513959	-1.357113	0.345313	0.265080	-1.858328
1.510	3.367163	-1.229049	510.625095	-9.570759	-1.518657	0.365593	0.297411	-1.874322
1.520	3.570259	-1.324402	509.078882	-9.673668	-1.631739	0.390052	0.320528	-1.900230
1.530	3.701842	-1.476617	507.399145	-9.827217	-1.685676	0.417385	0.332219	-1.936782
1.540	3.745436	-1.680028	505.689139	-10.033825	-1.671776	0.446546	0.330594	-1.984188
1.550	3.691280	-1.925020	504.074437	-10.294181	-1.585183	0.477050	0.314474	-2.042195
1.560	3.542118	-2.197953	502.695453	-10.607125	-1.426399	0.508948	0.283750	-2.110050
1.570	3.316334	-2.481828	501.696865	-10.968910	-1.201727	0.542552	0.239532	-2.186362
1.580	3.045766	-2.758169	501.211545	-11.372155	-0.922197	0.578146	0.183994	-2.268933
1.590	2.767612	-3.009596	501.341244	-11.805074	-0.601291	0.615823	0.119936	-2.354698
1.600	2.512967	-3.222051	502.140573	-12.251465	-0.252461	0.655413	0.050277	-2.439848
1.610	2.296868	-3.386188	503.609230	-12.691839	0.112547	0.696375	-0.022348	-2.520176
1.620	2.114522	-3.498178	505.692162	-13.105725	0.484208	0.737625	-0.095752	-2.591641
1.630	1.945449	-3.560518	508.284753	-13.474791	0.854775	0.777471	-0.168169	-2.651032
1.640	1.763380	-3.582983	511.242096	-13.785889	1.217343	0.813796	-0.238115	-2.696548
1.650	1.547181	-3.583037	514.393001	-14.032926	1.564833	0.844525	-0.304210	-2.728055
1.660	1.288136	-3.584291	517.557111	-14.216822	1.889297	0.868187	-0.365041	-2.746909
1.670	0.991148	-3.611918	520.559995	-14.343688	2.181975	0.884351	-0.419159	-2.755434
1.680	0.670477	-3.685518	523.241589	-14.422153	2.434340	0.893709	-0.465242	-2.756309
1.690	0.342957	-3.811943	525.458160	-14.460926	2.639832	0.897759	-0.502387	-2.752060
1.700	0.022288	-3.981537	527.082333	-14.467346	2.795442	0.898189	-0.530362	-2.744798
1.710	-0.283355	-4.170031	528.005943	-14.447109	2.902368	0.896248	-0.549685	-2.736164
1.720	-0.570409	-4.345801	528.147621	-14.404956	2.965497	0.892437	-0.561490	-2.727449
1.730	-0.837376	-4.479586	527.464093	-14.345734	2.992143	0.886628	-0.567269	-2.719756
1.740	-1.082625	-4.552747	525.962419	-14.275126	2.990622	0.878494	-0.568600	-2.714096
1.750	-1.303617	-4.561078	523.709654	-14.199569	2.969133	0.867978	-0.566943	-2.711344
1.760	-1.497602	-4.513456	520.836753	-14.125432	2.935059	0.855561	-0.563528	-2.712065
1.770	-1.663053	-4.426859	517.534761	-14.057919	2.894674	0.842188	-0.559320	-2.716324
1.780	-1.800823	-4.320233	514.042570	-14.000262	2.853075	0.828847	-0.555027	-2.723561
1.790	-1.914392	-4.209403	510.626383	-13.953479	2.814137	0.815950	-0.551115	-2.732620
1.800	-2.009306	-4.104190	507.552435	-13.916695	2.780387	0.802842	-0.547803	-2.741923
1.810	-2.092440	-4.007972	505.057119	-13.887799	2.752856	0.787811	-0.545058	-2.749748
1.820	-2.171424	-3.919197	503.321025	-13.864150	2.731076	0.768696	-0.542611	-2.754534
1.830	-2.253874	-3.833909	502.452915	-13.843116	2.713245	0.743871	-0.540000	-2.755107
1.840	-2.345776	-3.748225	502.486590	-13.822376	2.696444	0.713079	-0.536620	-2.750795
1.850	-2.448987	-3.660107	503.389982	-13.799921	2.676651	0.677682	-0.531725	-2.741398
1.860	-2.558632	-3.570317	505.082355	-13.773727	2.648408	0.640176	-0.524352	-2.727026
1.870	-2.661648	-3.482609	507.452657	-13.741234	2.604240	0.603267	-0.513199	-2.707885
1.880	-2.737476	-3.403128	510.371348	-13.698936	2.534278	0.568930	-0.496556	-2.684111
1.890	-2.761350	-3.338973	513.691301	-13.642420	2.426637	0.537837	-0.472392	-2.655762
1.900	-2.710012	-3.296139	517.239618	-13.566974	2.269004	0.509296	-0.438676	-2.622957
1.910	-2.568776	-3.277393	520.807743	-13.468584	2.051313	0.481667	-0.393871	-2.586095
1.920	-2.337888	-3.280810	524.149186	-13.344959	1.768751	0.453107	-0.337452	-2.546023
1.930	-2.035559	-3.299525	526.991739	-13.196264	1.423892	0.422399	-0.270193	-2.504074
1.940	-1.695547	-3.322754	529.065700	-13.025424	1.027009	0.389561	-0.194118	-2.461967
1.950	-1.359018	-3.337707	530.143074	-12.838114	0.594311	0.355938	-0.112104	-2.421632
1.960	-1.063106	-3.331914	530.077687	-12.642519	0.144625	0.323702	-0.027284	-2.385031
1.970	-0.830453	-3.295655	528.834884	-12.448726	-0.304463	0.294996	0.057572	-2.353991
1.980	-0.663671	-3.224243	526.502695	-12.267575	-0.739847	0.271207	0.140521	-2.330012
1.990	-0.546224	-3.119688	523.281953	-12.108985	-1.154587	0.252699	0.220643	-2.314046
2.000	-0.448644	-2.991075	519.457867	-11.980147	-1.547743	0.238993	0.297953	-2.306279
2.010	-0.337634	-2.853111	515.359012	-11.884221	-1.922753	0.229124	0.373090	-2.306008
2.020	-0.185262	-2.722815	511.312337	-11.820185	-2.285086	0.221948	0.446906	-2.311735
2.030	0.024185	-2.615047	507.604160	-11.783974	-2.639861	0.216330	0.520063	-2.321489
2.040	0.291236	-2.538424	504.455351	-11.770373	-2.989951	0.211280	0.592709	-2.333283
2.050	0.602339	-2.493319	502.013821	-11.774691	-3.334986	0.206097	0.664322	-2.345491
2.060	0.934064	-2.472763	500.361007	-11.793496	-3.671519	0.200589	0.733774	-2.356997
2.070	1.258901	-2.465669	499.524899	-11.824337	-3.994226	0.195280	0.799605	-2.367117
2.080	1.551195	-2.460853	499.492580	-11.865027	-4.297687	0.191492	0.860411	-2.375416
2.090	1.792081	-2.450334	500.219075	-11.913151	-4.578173	0.191167	0.915234	-2.381587
2.100	1.972674	-2.431028	501.632690	-11.966138	-4.835025	0.196424	0.963858	-2.385438
2.110	2.095093	-2.404686	503.638257	-12.021643	-5.071391	0.209011	1.006951	-2.386960
2.120	2.171324	-2.376614	506.119870	-12.077810	-5.294137	0.229847	1.046024	-2.386354
2.130	2.220406	-2.353911	508.944120	-12.133145	-5.512841	0.258786	1.083192	-2.383984
2.140	2.264792	-2.343676	511.963462	-12.186093	-5.737934	0.294624	1.120770	-2.380266
2.150	2.326749	-2.351409	515.018960	-12.234607	-5.978453	0.335339	1.160822	-2.375564
2.160	2.425489	-2.379847	517.943833	-12.276068	-6.240145	0.378496	1.204792	-2.370154
2.170	2.575334	-2.428525	520.571008	-12.307793	-6.524694	0.421736	1.253372	-2.364287
2.180	2.784782	-2.494059	522.745857	-12.328027	-6.830221	0.463221	1.306605	-2.358321
2.190	3.055996	-2.570758	524.340786	-12.336855	-7.152557	0.501894	1.364105	-2.352831
2.200	3.384441	-2.651232	525.266451	-12.336325	-7.486510	0.537533	1.425279	-2.348584
2.210	3.758945	-2.727111	525.477080	-12.329549	-7.826632	0.570557	1.489434	-2.346353
2.220	4.162623	-2.790396	524.971810	-12.319343	-8.167436	0.601661	1.555786	-2.346668
2.230	4.574706	-2.835488	523.795267	-12.307362	-8.503377	0.631385	1.623416	-2.349651
2.240	4.972912	-2.861252	522.037463	-12.294273	-8.828924	0.659785	1.691243	-2.355056
2.250	5.335849	-2.872027	519.829451	-12.280770	-9.138886	0.686340	1.758055	-2.362461
2.260	5.644973	-2.876881	517.331445	-12.268715	-9.428925	0.710151	1.822608	-2.371539
2.270	5.885696	-2.887072	514.714443	-12.261804	-9.696071	0.730290	1.883777	-2.382254
2.280	6.047558	-2.912409	512.140713	-12.265442	-9.938945	0.746136	1.940667	-2.394936
2.290	6.123758	-2.957735	509.749312	-12.285834	-10.157571	0.757537	1.992660	-2.410172
2.300	6.110535	-3.020848	507.649918	-12.328426	-10.352843	0.764759	2.039367	-2.428529
2.310	6.006911	-3.092683	505.924132	-12.396073	-10.525931	0.768309	2.080535	-2.450184
2.320	5.815029	-3.159590	504.630468	-12.487463	-10.677875	0.768769	2.115979	-2.474576
2.330	5.541023	-3.206796	503.808464	-12.596463	-10.809432	0.766744	2.145544	-2.500248
2.340	5.196015	-3.221911	503.478466	-12.712865	-10.921170	0.762903	2.169144	-2.525007
2.350	4.796667	-3.197694	503.636414	-12.824520	-11.013679	0.758062	2.186831	-2.546385
