Time[s]	Fx[N]	Fy[N]	Fz[N]	Mx[Nm]	My[Nm]	Mz[Nm]	COPx[cm]	COPy[cm]
0.010	3.251444	-0.006892	703.271540	-7.465663	24.319626	-1.682129	-3.458071	-1.061562
0.020	3.333148	0.196140	702.794558	-7.323747	24.246741	-1.689198	-3.450047	-1.042089
0.030	3.442672	0.395246	702.131939	-7.179056	24.148161	-1.692375	-3.439263	-1.022465
0.040	3.602138	0.584853	701.135234	-7.029547	24.005093	-1.688849	-3.423746	-1.002595
0.050	3.821501	0.756999	699.714868	-6.874584	23.810403	-1.677627	-3.402872	-0.982484
0.060	4.095667	0.902264	697.851078	-6.715675	23.569442	-1.659567	-3.377431	-0.962336
0.070	4.405125	1.012452	695.592172	-6.556673	23.297385	-1.636891	-3.349288	-0.942603
0.080	4.720092	1.083932	693.043924	-6.403065	23.014505	-1.612451	-3.320786	-0.923905
0.090	5.007026	1.119976	690.354811	-6.260375	22.741159	-1.589010	-3.294126	-0.906834
0.100	5.235528	1.130980	687.699473	-6.132270	22.493989	-1.568731	-3.270904	-0.891708
0.110	5.383782	1.132540	685.259979	-6.019244	22.284109	-1.552958	-3.251920	-0.878388
0.120	5.441612	1.142162	683.204850	-5.918506	22.117156	-1.542289	-3.237266	-0.866286
0.130	5.411275	1.175463	681.669391	-5.825031	21.994373	-1.536782	-3.226546	-0.854524
0.140	5.306394	1.242737	680.742691	-5.733135	21.913780	-1.536101	-3.219099	-0.842188
0.150	5.149226	1.346871	680.463079	-5.637843	21.870931	-1.539539	-3.214125	-0.828530
0.160	4.966485	1.483471	680.818777	-5.535680	21.859394	-1.546089	-3.210751	-0.813092
0.170	4.784254	1.643251	681.749990	-5.424976	21.871477	-1.554676	-3.208138	-0.795743
0.180	4.622915	1.815598	683.152962	-5.305898	21.899563	-1.564507	-3.205660	-0.776678
0.190	4.493263	1.991780	684.889595	-5.180385	21.937811	-1.575273	-3.203116	-0.756382
0.200	4.395028	2.166603	686.804155	-5.052017	21.983407	-1.587003	-3.200826	-0.735583
0.210	4.318385	2.338070	688.743676	-4.925834	22.036501	-1.599628	-3.199521	-0.715191
0.220	4.248048	2.505199	690.576287	-4.808130	22.098587	-1.612539	-3.200021	-0.696249
0.230	4.168509	2.664828	692.203063	-4.706184	22.169987	-1.624464	-3.202816	-0.679885
0.240	4.068821	2.808923	693.562195	-4.627807	22.247642	-1.633828	-3.207736	-0.667252
0.250	3.945807	2.924045	694.626950	-4.580579	22.324201	-1.639432	-3.213840	-0.659430
0.260	3.805290	2.993878	695.400207	-4.570847	22.388672	-1.641127	-3.219538	-0.657297
0.270	3.661509	3.004134	695.907999	-4.602769	22.428155	-1.640074	-3.222862	-0.661405
0.280	3.535302	2.947679	696.192930	-4.677658	22.429884	-1.638399	-3.221791	-0.671891
0.290	3.451567	2.827399	696.307090	-4.793727	22.383102	-1.638338	-3.214545	-0.688450
0.300	3.435900	2.655403	696.304219	-4.946305	22.280640	-1.641194	-3.199843	-0.710366
0.310	3.509885	2.449109	696.231741	-5.128722	22.120123	-1.646598	-3.177121	-0.736640
0.320	3.685325	2.226047	696.123624	-5.333938	21.904461	-1.652435	-3.146634	-0.766234
0.330	3.959358	1.999414	695.995249	-5.556583	21.641151	-1.655547	-3.109382	-0.798365
0.340	4.313412	1.775517	695.841956	-5.794556	21.340273	-1.652888	-3.066828	-0.832740
0.350	4.717786	1.553378	695.642582	-6.049307	21.011751	-1.642610	-3.020481	-0.869600
0.360	5.140775	1.326208	695.367052	-6.324443	20.663018	-1.624570	-2.971527	-0.909511
0.370	5.558475	1.084147	694.984908	-6.623150	20.298097	-1.600106	-2.920653	-0.952992
0.380	5.960841	0.817455	694.471592	-6.945613	19.918412	-1.571337	-2.868139	-1.000129
0.390	6.351549	0.519494	693.811109	-7.287612	19.524814	-1.540416	-2.814140	-1.050374
0.400	6.742515	0.188989	692.995865	-7.640955	19.119847	-1.509018	-2.759013	-1.102597
0.410	7.146066	-0.168873	692.026239	-7.995383	18.709289	-1.478155	-2.703552	-1.155358
0.420	7.568057	-0.543011	690.912488	-8.340958	18.302427	-1.448284	-2.649022	-1.207238
0.430	8.003990	-0.918710	689.679416	-8.669809	17.911062	-1.419588	-2.597013	-1.257078
0.440	8.438687	-1.280751	688.371176	-8.976655	17.547770	-1.392303	-2.549173	-1.304043
0.450	8.849046	-1.615991	687.051505	-9.258182	17.224149	-1.366916	-2.506966	-1.347524
0.460	9.208847	-1.914269	685.795793	-9.511805	16.949647	-1.344192	-2.471530	-1.386973
0.470	9.494358	-2.167608	684.676238	-9.734538	16.731072	-1.325018	-2.443647	-1.421772
0.480	9.689326	-2.368820	683.746804	-9.922576	16.572464	-1.310117	-2.423772	-1.451206
0.490	9.788074	-2.510861	683.035776	-10.071815	16.474965	-1.299724	-2.412021	-1.474566
0.500	9.796007	-2.587679	682.549054	-10.179104	16.436744	-1.293387	-2.408141	-1.491337
0.510	9.727442	-2.596214	682.281061	-10.243819	16.453382	-1.290077	-2.411525	-1.501408
0.520	9.601308	-2.538550	682.226449	-10.269154	16.519001	-1.288636	-2.421337	-1.505241
0.530	9.435800	-2.423185	682.386193	-10.262487	16.627915	-1.288320	-2.436731	-1.503912
0.540	9.243579	-2.264686	682.765333	-10.234387	16.776115	-1.289080	-2.457084	-1.498961
0.550	9.029019	-2.081587	683.364692	-10.196516	16.961831	-1.291391	-2.482105	-1.492105
0.560	8.788298	-1.893336	684.172418	-10.159272	17.184813	-1.295782	-2.511766	-1.484899
0.570	8.512062	-1.717628	685.161338	-10.130128	17.444590	-1.302393	-2.546056	-1.478503
0.580	8.189865	-1.568920	686.294576	-10.112977	17.738379	-1.310828	-2.584660	-1.473562
0.590	7.815622	-1.457682	687.536943	-10.108208	18.059419	-1.320325	-2.626683	-1.470206
0.600	7.393076	-1.389580	688.865822	-10.113119	18.396351	-1.330085	-2.670527	-1.468083
0.610	6.939634	-1.364476	690.274982	-10.122534	18.733956	-1.339641	-2.713984	-1.466449
0.620	6.486558	-1.375838	691.767588	-10.129743	19.055156	-1.349081	-2.754560	-1.464327
0.630	6.074325	-1.411066	693.339076	-10.127733	19.343772	-1.359025	-2.789944	-1.460719
0.640	5.743872	-1.452887	694.955368	-10.110375	19.587323	-1.370278	-2.818501	-1.454824
0.650	5.526420	-1.481851	696.536015	-10.073177	19.779111	-1.383314	-2.839639	-1.446182
0.660	5.435463	-1.479807	697.952572	-10.013505	19.918953	-1.397850	-2.853912	-1.434697
0.670	5.463657	-1.433876	699.047249	-9.930468	20.012353	-1.412747	-2.862804	-1.420572
0.680	5.585422	-1.339889	699.667072	-9.824746	20.068468	-1.426326	-2.868288	-1.404203
0.690	5.763939	-1.204059	699.700915	-9.698436	20.097731	-1.436957	-2.872332	-1.386083
0.700	5.960035	-1.041966	699.106295	-9.554901	20.109899	-1.443668	-2.876515	-1.366731
0.710	6.140130	-0.874698	697.919090	-9.398618	20.112913	-1.446484	-2.881840	-1.346663
0.720	6.281161	-0.723018	696.246663	-9.235080	20.112591	-1.446344	-2.888716	-1.326409
0.730	6.371722	-0.601396	694.248868	-9.070677	20.113000	-1.444692	-2.897088	-1.306545
0.740	6.410018	-0.514127	692.112422	-8.912323	20.117263	-1.443019	-2.906647	-1.287699
0.750	6.399909	-0.455051	690.024057	-8.766711	20.128468	-1.442550	-2.917068	-1.270493
0.760	6.346549	-0.411053	688.147717	-8.639399	20.150276	-1.444132	-2.928190	-1.255457
0.770	6.253000	-0.368001	686.609683	-8.534145	20.186962	-1.448210	-2.940093	-1.242940
0.780	6.118948	-0.316863	685.492384	-8.452705	20.242922	-1.454847	-2.953048	-1.233085
0.790	5.941942	-0.257559	684.834555	-8.395061	20.321910	-1.463831	-2.967419	-1.225852
0.800	5.720392	-0.199021	684.634664	-8.359890	20.426320	-1.474898	-2.983536	-1.221073
0.810	5.456712	-0.155366	684.856170	-8.345105	20.556655	-1.487965	-3.001602	-1.218519
0.820	5.158999	-0.139687	685.434603	-8.348301	20.711277	-1.503211	-3.021627	-1.217957
0.830	4.840538	-0.157889	686.286484	-8.367061	20.886463	-1.520884	-3.043403	-1.219179
0.840	4.517372	-0.205204	687.319406	-8.399136	21.076872	-1.540920	-3.066532	-1.222014
0.850	4.204753	-0.267116	688.441856	-8.442558	21.276299	-1.562586	-3.090501	-1.226328
0.860	3.913405	-0.324568	689.571279	-8.495627	21.478476	-1.584409	-3.114758	-1.232016
0.870	3.646791	-0.361300	690.639695	-8.556728	21.677645	-1.604477	-3.138778	-1.238957
0.880	3.400590	-0.370088	691.597357	-8.624053	21.868814	-1.621001	-3.162073	-1.246976
0.890	3.164973	-0.355255	692.415105	-8.695421	22.047713	-1.632886	-3.184176	-1.255810
0.900	2.929069	-0.330614	693.085506	-8.768329	22.210443	-1.640060	-3.204575	-1.265115
0.910	2.686039	-0.314104	693.622343	-8.840268	22.352859	-1.643427	-3.222627	-1.274507
0.920	2.437072	-0.321602	694.057289	-8.909242	22.469921	-1.644475	-3.237474	-1.283646
0.930	2.192955	-0.362291	694.431554	-8.974315	22.555419	-1.644720	-3.248041	-1.292325
0.940	1.972493	-0.436763	694.781420	-9.035856	22.602408	-1.645246	-3.253168	-1.300532
0.950	1.797980	-0.537845	695.120864	-9.095241	22.604382	-1.646508	-3.251864	-1.308440
0.960	1.689107	-0.653424	695.429109	-9.154027	22.556840	-1.648375	-3.243586	-1.316313
0.970	1.657540	-0.770323	695.651130	-9.212871	22.458690	-1.650304	-3.228441	-1.324352
0.980	1.704142	-0.878167	695.713129	-9.270759	22.312987	-1.651554	-3.207211	-1.332555
0.990	1.819659	-0.971963	695.546596	-9.325065	22.126653	-1.651427	-3.181189	-1.340682
1.000	1.988217	-1.052432	695.110203	-9.372604	21.909166	-1.649443	-3.151898	-1.348362
1.010	2.192073	-1.124103	694.401853	-9.411039	21.670662	-1.645374	-3.120767	-1.355273
1.020	2.416009	-1.192345	693.459663	-9.439595	21.420153	-1.639120	-3.088882	-1.361232
1.030	2.650192	-1.260765	692.354897	-9.458464	21.164459	-1.630515	-3.056880	-1.366129
1.040	2.890739	-1.329756	691.180068	-9.467306	20.908071	-1.619223	-3.024982	-1.369731
1.050	3.137662	-1.396140	690.033885	-9.463854	20.653744	-1.604783	-2.993149	-1.371506
1.060	3.390831	-1.453549	689.004162	-9.443459	20.403497	-1.586834	-2.961302	-1.370595
1.070	3.645737	-1.493325	688.151670	-9.399767	20.159675	-1.565446	-2.929539	-1.365944
1.080	3.891285	-1.505809	687.500272	-9.326127	19.925712	-1.541426	-2.898284	-1.356527
1.090	4.110929	-1.481948	687.038215	-9.217129	19.706319	-1.516412	-2.868300	-1.341574
1.100	4.286860	-1.414988	686.731119	-9.069880	19.507057	-1.492695	-2.840567	-1.320732
1.110	4.405431	-1.301671	686.541561	-8.884796	19.333485	-1.472778	-2.816069	-1.294138
1.120	4.461360	-1.142372	686.447014	-8.665856	19.190175	-1.458778	-2.795580	-1.262422
1.130	4.458801	-0.940253	686.448924	-8.420238	19.079764	-1.451859	-2.779488	-1.226637
1.140	4.408986	-0.700221	686.570069	-8.157386	19.002248	-1.451935	-2.767707	-1.188136
1.150	4.325929	-0.428581	686.842871	-7.887634	18.954714	-1.457808	-2.759687	-1.148390
1.160	4.222434	-0.133809	687.295217	-7.620669	18.931607	-1.467667	-2.754509	-1.108791
1.170	4.108003	0.171892	687.940423	-7.364127	18.925438	-1.479695	-2.751029	-1.070460
1.180	3.988848	0.471354	688.774450	-7.122693	18.927557	-1.492505	-2.748005	-1.034111
1.190	3.869130	0.742887	689.778777	-6.897936	18.928719	-1.505267	-2.744172	-1.000021
1.200	3.752244	0.963303	690.925342	-6.688855	18.919365	-1.517569	-2.738265	-0.968101
1.210	3.641351	1.113261	692.181585	-6.492869	18.889794	-1.529168	-2.729023	-0.938030
1.220	3.539129	1.183544	693.515553	-6.306807	18.830304	-1.539817	-2.715196	-0.909397
1.230	3.447536	1.179864	694.899964	-6.127580	18.731292	-1.549249	-2.695538	-0.881793
1.240	3.368493	1.123818	696.312133	-5.952418	18.583296	-1.557297	-2.668817	-0.854849
1.250	3.305687	1.048826	697.727646	-5.778719	18.377095	-1.564011	-2.633849	-0.828220
1.260	3.266840	0.992040	699.110026	-5.603740	18.104000	-1.569650	-2.589578	-0.801553
1.270	3.265588	0.985032	700.402217	-5.424441	17.756299	-1.574557	-2.535157	-0.774475
1.280	3.322383	1.046508	701.525024	-5.237799	17.327830	-1.578954	-2.470023	-0.746630
1.290	3.464084	1.179207	702.383448	-5.041615	16.814691	-1.582770	-2.393948	-0.717787
1.300	3.721667	1.371329	702.878194	-4.835538	16.216201	-1.585594	-2.307114	-0.687962
1.310	4.125346	1.601328	702.919012	-4.621933	15.536042	-1.586829	-2.210218	-0.657534
1.320	4.697069	1.844112	702.437423	-4.406269	14.783221	-1.585956	-2.104561	-0.627283
1.330	5.442072	2.076714	701.396997	-4.196746	13.972273	-1.582695	-1.992063	-0.598341
1.340	6.342856	2.282156	699.799797	-4.002983	13.122374	-1.576957	-1.875161	-0.572018
1.350	7.358976	2.451099	697.688786	-3.833981	12.255529	-1.568672	-1.756590	-0.549526
1.360	8.433734	2.581681	695.147067	-3.696009	11.394443	-1.557740	-1.639141	-0.531687
1.370	9.505510	2.678252	692.294647	-3.591259	10.560713	-1.544226	-1.525465	-0.518747
1.380	10.519246	2.749486	689.281847	-3.517776	9.773667	-1.528668	-1.417949	-0.510354
1.390	11.433835	2.805962	686.277245	-3.470570	9.049823	-1.512204	-1.318683	-0.505710
1.400	12.223511	2.857273	683.449227	-3.443442	8.402651	-1.496349	-1.229448	-0.503833
1.410	12.874350	2.909055	680.944078	-3.430852	7.842316	-1.482510	-1.151683	-0.503838
1.420	13.379031	2.960905	678.867685	-3.429224	7.375415	-1.471517	-1.086429	-0.505139
1.430	13.733269	3.006261	677.278236	-3.437292	7.004949	-1.463410	-1.034279	-0.507515
1.440	13.935786	3.034884	676.192265	-3.455532	6.730796	-1.457530	-0.995397	-0.511028
1.450	13.991150	3.037238	675.599517	-3.485095	6.550571	-1.452812	-0.969594	-0.515852
1.460	13.912798	3.008872	675.478752	-3.526797	6.460597	-1.448121	-0.956447	-0.522118
1.470	13.723168	2.952718	675.808116	-3.580559	6.456635	-1.442562	-0.955395	-0.529819
1.480	13.449557	2.878412	676.567760	-3.645453	6.534174	-1.435697	-0.965783	-0.538816
1.490	13.117064	2.799306	677.736340	-3.720153	6.688165	-1.427651	-0.986839	-0.548909
1.500	12.742176	2.728693	679.285768	-3.803452	6.912328	-1.419075	-1.017588	-0.559919
1.510	12.330573	2.676512	681.178698	-3.894546	7.198386	-1.410894	-1.056754	-0.571736
1.520	11.880301	2.647193	683.370038	-3.993077	7.535676	-1.403930	-1.102723	-0.584321
1.530	11.388342	2.638847	685.809209	-4.099074	7.911359	-1.398538	-1.153580	-0.597699
1.540	10.856891	2.643816	688.438133	-4.212922	8.311178	-1.394496	-1.207251	-0.611954
1.550	10.296369	2.650379	691.183158	-4.335275	8.720524	-1.391171	-1.261681	-0.627225
1.560	9.724295	2.645233	693.945010	-4.466792	9.125488	-1.387891	-1.315016	-0.643681
1.570	9.161451	2.616201	696.594672	-4.607599	9.513637	-1.384297	-1.365735	-0.661446
1.580	8.627960	2.554686	698.981122	-4.756645	9.874406	-1.380479	-1.412686	-0.680511
1.590	8.141204	2.457391	700.950073	-4.911307	10.199197	-1.376857	-1.455053	-0.700664
1.600	7.715574	2.327074	702.366883	-5.067581	10.481382	-1.373925	-1.492294	-0.721501
1.610	7.362515	2.172310	703.136420	-5.220912	10.716393	-1.372028	-1.524085	-0.742518
1.620	7.089449	2.006328	703.216274	-5.367323	10.901947	-1.371256	-1.550298	-0.763254
1.630	6.897516	1.844836	702.622742	-5.504372	11.038281	-1.371433	-1.571011	-0.783404
1.640	6.779282	1.702853	701.430036	-5.631540	11.128226	-1.372115	-1.586506	-0.802866
1.650	6.717868	1.591101	699.763829	-5.750017	11.176861	-1.372571	-1.597233	-0.821708
1.660	6.688666	1.513095	697.790311	-5.862167	11.190579	-1.371790	-1.603717	-0.840104
1.670	6.664133	1.464145	695.700573	-5.971044	11.175678	-1.368589	-1.606392	-0.858278
1.680	6.621028	1.432855	693.689043	-6.080111	11.136999	-1.361881	-1.605474	-0.876489
1.690	6.548068	1.404757	691.926627	-6.193053	11.077260	-1.351016	-1.600930	-0.895045
1.700	6.451026	1.366841	690.533590	-6.313386	10.997405	-1.336040	-1.592595	-0.914276
1.710	6.352646	1.311217	689.559988	-6.443756	10.897743	-1.317733	-1.580391	-0.934474
1.720	6.286420	1.236514	688.980151	-6.585118	10.779328	-1.297431	-1.564534	-0.955778
1.730	6.285773	1.146779	688.703325	-6.736173	10.645070	-1.276742	-1.545668	-0.978095
1.740	6.372233	1.048885	688.597875	-6.893363	10.500325	-1.257260	-1.524885	-1.001072
1.750	6.546896	0.949965	688.523128	-7.051455	10.352905	-1.240341	-1.503639	-1.024142
1.760	6.788448	0.855868	688.361580	-7.204566	10.212472	-1.226969	-1.483591	-1.046625
1.770	7.058580	0.770674	688.044839	-7.347426	10.089363	-1.217738	-1.466382	-1.067870
1.780	7.312656	0.696637	687.568541	-7.476706	9.993065	-1.212914	-1.453392	-1.087412
1.790	7.511469	0.634096	686.993580	-7.592138	9.930672	-1.212515	-1.445526	-1.105125
1.800	7.629885	0.581492	686.433126	-7.697044	9.905710	-1.216350	-1.443070	-1.121310
1.810	7.660066	0.535889	686.027430	-7.797909	9.917627	-1.224014	-1.445660	-1.136676
1.820	7.609505	0.493940	685.911098	-7.902912	9.962168	-1.234886	-1.452399	-1.152177
1.830	7.495947	0.452694	686.179941	-8.019792	10.032553	-1.248193	-1.462088	-1.168759
1.840	7.341628	0.409586	686.865489	-8.153713	10.121070	-1.263136	-1.473516	-1.187090
1.850	7.168554	0.361775	687.923679	-8.305810	10.220487	-1.279049	-1.485701	-1.207374
1.860	6.995473	0.305700	689.240112	-8.472880	10.324916	-1.295542	-1.498014	-1.229307
1.870	6.836287	0.237576	690.650148	-8.648420	10.430123	-1.312582	-1.510189	-1.252214
1.880	6.699399	0.154635	691.969551	-8.824744	10.533546	-1.330443	-1.522256	-1.275308
1.890	6.587694	0.056353	693.029578	-8.995442	10.634219	-1.349515	-1.534454	-1.297988
1.900	6.499204	-0.054866	693.708723	-9.157249	10.732577	-1.370035	-1.547130	-1.320042
1.910	6.428503	-0.173718	693.953057	-9.310702	10.830097	-1.391863	-1.560638	-1.341691
1.920	6.368388	-0.292847	693.779804	-9.459497	10.928875	-1.414415	-1.575266	-1.363472
1.930	6.311167	-0.404632	693.263648	-9.608923	11.031332	-1.436771	-1.591217	-1.386042
1.940	6.249219	-0.503557	692.510325	-9.764080	11.140174	-1.457853	-1.608665	-1.409954
1.950	6.175076	-0.588107	691.625973	-9.928571	11.258489	-1.476580	-1.627829	-1.435540
1.960	6.081587	-0.661195	690.692281	-10.104120	11.389772	-1.491957	-1.649037	-1.462897
1.970	5.962425	-0.728870	689.755340	-10.291158	11.537712	-1.503147	-1.672725	-1.492001
1.980	5.812864	-0.798034	688.830605	-10.490013	11.705753	-1.509614	-1.699366	-1.522873
1.990	5.630493	-0.874422	687.919854	-10.702140	11.896640	-1.511323	-1.729364	-1.555725
2.000	5.415576	-0.961982	687.031724	-10.930775	12.112225	-1.508907	-1.762979	-1.591015
2.010	5.170631	-1.063945	686.196474	-11.180656	12.353610	-1.503635	-1.800302	-1.629367
2.020	4.898840	-1.184747	685.468503	-11.456909	12.621433	-1.497110	-1.841286	-1.671398
2.030	4.601330	-1.331273	684.915631	-11.763688	12.916036	-1.490810	-1.885785	-1.717538
2.040	4.274375	-1.512015	684.600438	-12.103102	13.237315	-1.485668	-1.933583	-1.767907
2.050	3.908271	-1.734020	684.563194	-12.474597	13.584294	-1.481918	-1.984374	-1.822271
2.060	3.489363	-1.999161	684.815578	-12.874581	13.954568	-1.479289	-2.037712	-1.880007
2.070	3.005537	-2.301997	685.348819	-13.296113	14.343719	-1.477461	-2.092908	-1.940050
2.080	2.453959	-2.630716	686.151982	-13.728811	14.744711	-1.476527	-2.148899	-2.000841
2.090	1.848552	-2.970873	687.230669	-14.159281	15.147259	-1.477160	-2.204101	-2.060339
2.100	1.224004	-3.310024	688.615799	-14.572305	15.537383	-1.480372	-2.256321	-2.116174
2.110	0.633389	-3.640870	690.355752	-14.952618	15.897541	-1.487002	-2.302804	-2.165929
2.120	0.138284	-3.961365	692.492058	-15.286856	16.207727	-1.497175	-2.340493	-2.207514
2.130	-0.206609	-4.271820	695.027113	-15.565132	16.447555	-1.509993	-2.366462	-2.239500
2.140	-0.369255	-4.570528	697.898320	-15.781835	16.598742	-1.523563	-2.378390	-2.261337
2.150	-0.350045	-4.849884	700.972166	-15.935410	16.646978	-1.535353	-2.374841	-2.273330
2.160	-0.180367	-5.094547	704.063278	-16.027196	16.582281	-1.542741	-2.355226	-2.276386
2.170	0.091244	-5.282322	706.971213	-16.059739	16.397844	-1.543559	-2.319450	-2.271626
2.180	0.420936	-5.387640	709.518541	-16.035371	16.088282	-1.536487	-2.267493	-2.260036
2.190	0.790242	-5.386878	711.573368	-15.955817	15.648643	-1.521294	-2.199161	-2.242329
2.200	1.216033	-5.264470	713.048323	-15.823090	15.075037	-1.498890	-2.114168	-2.219077
2.210	1.744757	-5.018513	713.880889	-15.641111	14.366837	-1.471141	-2.012498	-2.190997
2.220	2.433315	-4.664268	714.009280	-15.417021	13.529583	-1.440476	-1.894875	-2.159219
2.230	3.324969	-4.233954	713.359282	-15.161413	12.577303	-1.409392	-1.763109	-2.125354
2.240	4.430307	-3.771989	711.850691	-14.887358	11.533137	-1.379968	-1.620162	-2.091360
2.250	5.720280	-3.326513	709.421768	-14.608623	10.427768	-1.353498	-1.469897	-2.059230
2.260	7.132704	-2.939793	706.061943	-14.337721	9.296061	-1.330268	-1.316607	-2.030661
2.270	8.588137	-2.640740	701.840362	-14.084451	8.172993	-1.309533	-1.164509	-2.006788
2.280	10.008073	-2.441746	696.920083	-13.855393	7.090093	-1.289773	-1.017347	-1.988089
2.290	11.328675	-2.339959	691.552327	-13.654371	6.073176	-1.269222	-0.878195	-1.974452
2.300	12.506555	-2.321317	686.050527	-13.483332	5.141566	-1.246553	-0.749444	-1.965356
2.310	13.517261	-2.365096	680.749223	-13.342859	4.308626	-1.221428	-0.632924	-1.960026
2.320	14.349878	-2.447717	675.956956	-13.231938	3.583187	-1.194700	-0.530091	-1.957512
