Time[s]	Fx[N]	Fy[N]	Fz[N]	Mx[Nm]	My[Nm]	Mz[Nm]	COPx[cm]	COPy[cm]
0.010	1.088935	-1.338256	531.781507	4.813161	3.634965	-0.469740	-0.683545	0.905101
0.020	1.094057	-1.349857	531.484637	4.792324	3.719472	-0.462788	-0.699827	0.901686
0.030	1.094134	-1.352344	531.232593	4.783714	3.796469	-0.456683	-0.714653	0.900493
0.040	1.087082	-1.338937	531.056301	4.795087	3.859774	-0.451778	-0.726811	0.902934
0.050	1.075304	-1.307165	530.963063	4.827459	3.905511	-0.447794	-0.735552	0.909189
0.060	1.065204	-1.259308	530.937054	4.874954	3.932277	-0.444027	-0.740630	0.918179
0.070	1.065044	-1.201608	530.947901	4.927121	3.940732	-0.439786	-0.742207	0.927986
0.080	1.082103	-1.142493	530.962989	4.972790	3.933069	-0.434786	-0.740743	0.936561
0.090	1.120234	-1.090101	530.958392	5.003977	3.912724	-0.429270	-0.736917	0.942442
0.100	1.178520	-1.049733	530.924831	5.018326	3.884340	-0.423837	-0.731618	0.945205
0.110	1.251340	-1.022219	530.867914	5.019224	3.853615	-0.419087	-0.725908	0.945475
0.120	1.329750	-1.004108	530.803982	5.013708	3.826594	-0.415280	-0.720905	0.944550
0.130	1.403770	-0.989829	530.753439	5.009176	3.808374	-0.412186	-0.717541	0.943786
0.140	1.464934	-0.974797	530.733420	5.010368	3.801712	-0.409189	-0.716313	0.944046
0.150	1.508348	-0.957700	530.752080	5.017805	3.806255	-0.405557	-0.717144	0.945414
0.160	1.533481	-0.940729	530.806275	5.028027	3.818846	-0.400744	-0.719442	0.947243
0.170	1.543301	-0.927883	530.882653	5.035107	3.834818	-0.394578	-0.722348	0.948441
0.180	1.542178	-0.922562	530.960687	5.032662	3.849717	-0.387311	-0.725047	0.947841
0.190	1.533719	-0.925826	531.016803	5.015766	3.860785	-0.379515	-0.727055	0.944559
0.200	1.519668	-0.936008	531.029979	4.982413	3.867683	-0.371894	-0.728336	0.938254
0.210	1.500220	-0.949671	530.988981	4.934247	3.872266	-0.365066	-0.729255	0.929256
0.220	1.475176	-0.963280	530.899240	4.876416	3.877506	-0.359417	-0.730366	0.918520
0.230	1.445120	-0.974852	530.785019	4.816530	3.886017	-0.355014	-0.732126	0.907435
0.240	1.411956	-0.985048	530.683241	4.763013	3.898791	-0.351566	-0.734674	0.897525
0.250	1.378641	-0.997403	530.629802	4.723242	3.914745	-0.348460	-0.737754	0.890120
0.260	1.348414	-1.017338	530.644376	4.701948	3.931260	-0.344881	-0.740846	0.886083
0.270	1.324027	-1.049931	530.721495	4.700215	3.945395	-0.340071	-0.743402	0.885627
0.280	1.307178	-1.097206	530.832827	4.715392	3.955138	-0.333669	-0.745082	0.888301
0.290	1.298109	-1.156394	530.940070	4.742042	3.960125	-0.326008	-0.745870	0.893141
0.300	1.295453	-1.220220	531.012489	4.773717	3.961623	-0.318172	-0.746051	0.898984
0.310	1.296516	-1.278993	531.040488	4.804911	3.961882	-0.311711	-0.746060	0.904811
0.320	1.298032	-1.323270	531.038342	4.832449	3.963200	-0.308066	-0.746312	0.910000
0.330	1.297060	-1.345835	531.034863	4.855761	3.967068	-0.307976	-0.747045	0.914396
0.340	1.291751	-1.342655	531.057385	4.875974	3.973672	-0.311194	-0.748257	0.918163
0.350	1.281834	-1.313257	531.117667	4.894361	3.981948	-0.316652	-0.749730	0.921521
0.360	1.268696	-1.260986	531.206451	4.911042	3.990095	-0.322951	-0.751138	0.924507
0.370	1.254918	-1.193125	531.298299	4.924645	3.996230	-0.328914	-0.752163	0.926908
0.380	1.243363	-1.120449	531.363291	4.933055	3.998825	-0.333968	-0.752559	0.928377
0.390	1.236148	-1.055745	531.379598	4.934767	3.996803	-0.338239	-0.752156	0.928671
0.400	1.233816	-1.011090	531.341608	4.930081	3.989411	-0.342327	-0.750818	0.927855
0.410	1.234962	-0.994360	531.261244	4.921460	3.976085	-0.346908	-0.748424	0.926373
0.420	1.236565	-1.006263	531.163353	4.912874	3.956551	-0.352324	-0.744884	0.924927
0.430	1.235130	-1.039634	531.077836	4.908493	3.931163	-0.358384	-0.740224	0.924251
0.440	1.228341	-1.081875	531.031004	4.911416	3.901208	-0.364425	-0.734648	0.924883
0.450	1.216494	-1.119576	531.038046	4.922964	3.868758	-0.369622	-0.728527	0.927045
0.460	1.202950	-1.143076	531.098403	4.942642	3.835958	-0.373388	-0.722269	0.930645
0.470	1.193353	-1.149002	531.195722	4.968526	3.804145	-0.375681	-0.716148	0.935347
0.480	1.194088	-1.140023	531.302823	4.997854	3.773348	-0.377060	-0.710207	0.940679
0.490	1.210814	-1.122262	531.390198	5.027621	3.742412	-0.378516	-0.704268	0.946126
0.500	1.247633	-1.101756	531.435033	5.055020	3.709603	-0.381183	-0.698035	0.951202
0.510	1.306694	-1.081843	531.427532	5.077675	3.673365	-0.386034	-0.691226	0.955478
0.520	1.387718	-1.062777	531.372444	5.093782	3.632899	-0.393602	-0.683682	0.958609
0.530	1.487272	-1.043333	531.285773	5.102341	3.588373	-0.403721	-0.675413	0.960376
0.540	1.598396	-1.022804	531.188692	5.103465	3.540711	-0.415447	-0.666564	0.960763
0.550	1.711311	-1.001932	531.101407	5.098545	3.491134	-0.427224	-0.657339	0.959995
0.560	1.815315	-0.982541	531.038646	5.090080	3.440721	-0.437299	-0.647923	0.958514
0.570	1.901160	-0.966652	531.007222	5.081230	3.390208	-0.444200	-0.638449	0.956904
0.580	1.963041	-0.955853	531.006007	5.075277	3.340060	-0.447111	-0.629006	0.955785
0.590	1.999629	-0.951064	531.028733	5.075080	3.290707	-0.446044	-0.619685	0.955707
0.600	2.013866	-0.952393	531.068760	5.082462	3.242769	-0.441760	-0.610612	0.957025
0.610	2.011593	-0.958843	531.123314	5.097558	3.197134	-0.435471	-0.601957	0.959769
0.620	1.999562	-0.968140	531.194543	5.118409	3.154814	-0.428429	-0.593909	0.963566
0.630	1.983698	-0.977136	531.286281	5.141182	3.116612	-0.421528	-0.586616	0.967686
0.640	1.968206	-0.982910	531.397661	5.161239	3.082723	-0.415089	-0.580116	0.971257
0.650	1.955512	-0.984147	531.517150	5.174743	3.052445	-0.408917	-0.574289	0.973580
0.660	1.946718	-0.982096	531.621512	5.180107	3.024257	-0.402617	-0.568874	0.974398
0.670	1.942223	-0.980504	531.682034	5.178521	2.996347	-0.395991	-0.563560	0.973988
0.680	1.942141	-0.984227	531.675646	5.173352	2.967392	-0.389338	-0.558121	0.973028
0.690	1.946399	-0.996825	531.595022	5.168735	2.937209	-0.383478	-0.552527	0.972307
0.700	1.954693	-1.018195	531.452411	5.167982	2.906956	-0.379504	-0.546983	0.972426
0.710	1.966469	-1.043743	531.275764	5.172296	2.878794	-0.378335	-0.541864	0.973561
0.720	1.980838	-1.065998	531.099443	5.180212	2.855170	-0.380300	-0.537596	0.975375
0.730	1.996335	-1.078111	530.953472	5.188025	2.838002	-0.384922	-0.534511	0.977115
0.740	2.010667	-1.077376	530.855148	5.191197	2.828061	-0.391008	-0.532737	0.977893
0.750	2.020840	-1.066829	530.805809	5.186248	2.824776	-0.396986	-0.532168	0.977052
0.760	2.023945	-1.054108	530.793651	5.172305	2.826456	-0.401344	-0.532496	0.974447
0.770	2.018432	-1.048283	530.801131	5.151523	2.830668	-0.403051	-0.533282	0.970518
0.780	2.005275	-1.056282	530.813636	5.128147	2.834598	-0.401841	-0.534010	0.966092
0.790	1.988373	-1.080472	530.825785	5.106647	2.835407	-0.398269	-0.534150	0.962019
0.800	1.973856	-1.118141	530.842953	5.089902	2.830742	-0.393465	-0.533254	0.958834
0.810	1.968449	-1.162697	530.877690	5.078355	2.819397	-0.388633	-0.531082	0.956596
0.820	1.977453	-1.205808	530.942604	5.070519	2.801850	-0.384496	-0.527712	0.955003
0.830	2.002993	-1.239622	531.042556	5.064469	2.780341	-0.380983	-0.523563	0.953684
0.840	2.043058	-1.258550	531.169465	5.059458	2.758309	-0.377363	-0.519290	0.952513
0.850	2.091625	-1.260319	531.302365	5.056780	2.739378	-0.372737	-0.515597	0.951771
0.860	2.139965	-1.246131	531.413324	5.059410	2.726336	-0.366627	-0.513035	0.952067
0.870	2.178898	-1.219916	531.476960	5.070509	2.720533	-0.359393	-0.511882	0.954041
0.880	2.201389	-1.187048	531.479385	5.091504	2.721875	-0.352286	-0.512132	0.957987
0.890	2.204604	-1.153019	531.422893	5.120765	2.729310	-0.347088	-0.513585	0.963595
0.900	2.190631	-1.122406	531.325196	5.153707	2.741556	-0.345421	-0.515985	0.969972
0.910	2.165517	-1.098232	531.214289	5.184417	2.757768	-0.348024	-0.519144	0.975956
0.920	2.136954	-1.081719	531.120847	5.208098	2.777851	-0.354329	-0.523017	0.980586
0.930	2.111618	-1.072315	531.069913	5.223088	2.802247	-0.362533	-0.527661	0.983503
0.940	2.093341	-1.067921	531.073544	5.231439	2.831250	-0.370141	-0.533118	0.985069
0.950	2.082719	-1.065437	531.126270	5.237728	2.864264	-0.374796	-0.539281	0.986155
0.960	2.077811	-1.061736	531.205033	5.246788	2.899552	-0.375067	-0.545844	0.987714
0.970	2.075113	-1.054775	531.275009	5.261567	2.934746	-0.370913	-0.552397	0.990366
0.980	2.070262	-1.044203	531.301506	5.282243	2.967860	-0.363604	-0.558602	0.994208
0.990	2.058525	-1.030952	531.264779	5.306944	2.998233	-0.355213	-0.564358	0.998926
1.000	2.035422	-1.015958	531.170566	5.333471	3.026824	-0.347896	-0.569840	1.004098
1.010	1.997684	-0.998836	531.049293	5.360897	3.055741	-0.343264	-0.575416	1.009491
1.020	1.944330	-0.977424	530.943158	5.390134	3.087324	-0.342042	-0.581479	1.015200
1.030	1.877312	-0.948564	530.888078	5.423375	3.123260	-0.344033	-0.588309	1.021567
1.040	1.801225	-0.909804	530.900205	5.462921	3.164140	-0.348342	-0.595995	1.028992
1.050	1.721950	-0.861169	530.972957	5.509994	3.209549	-0.353748	-0.604466	1.037717
1.060	1.644758	-0.805967	531.084195	5.563889	3.258523	-0.359081	-0.613561	1.047647
1.070	1.572876	-0.750096	531.208090	5.621716	3.310005	-0.363511	-0.623109	1.058289
1.080	1.507321	-0.700197	531.324589	5.678890	3.363012	-0.366679	-0.632949	1.068818
1.090	1.447996	-0.661547	531.422109	5.730336	3.416517	-0.368652	-0.642901	1.078302
1.100	1.395157	-0.636510	531.494412	5.772023	3.469233	-0.369759	-0.652732	1.085999
1.110	1.350295	-0.623968	531.536259	5.802211	3.519441	-0.370392	-0.662126	1.091593
1.120	1.315971	-0.619768	531.541987	5.821765	3.564976	-0.370832	-0.670686	1.095260
1.130	1.294774	-0.618028	531.507983	5.833358	3.603487	-0.371148	-0.677974	1.097511
1.140	1.287901	-0.613004	531.436698	5.839954	3.633027	-0.371237	-0.683624	1.098899
1.150	1.294049	-0.600949	531.338267	5.843438	3.652825	-0.371014	-0.687476	1.099759
1.160	1.309300	-0.581183	531.227190	5.844085	3.663861	-0.370663	-0.689698	1.100110
1.170	1.328174	-0.555835	531.115605	5.840964	3.668849	-0.370732	-0.690782	1.099754
1.180	1.345325	-0.528596	531.008208	5.832789	3.671494	-0.371950	-0.691419	1.098437
1.190	1.357006	-0.503439	530.902913	5.818629	3.675295	-0.374816	-0.692272	1.095987
1.200	1.361647	-0.483919	530.796541	5.798219	3.682432	-0.379219	-0.693756	1.092362
1.210	1.359442	-0.472805	530.690939	5.772038	3.693212	-0.384318	-0.695925	1.087646
1.220	1.351354	-0.471480	530.595663	5.741382	3.706230	-0.388769	-0.698504	1.082064
1.230	1.338213	-0.479251	530.526837	5.708450	3.719073	-0.391165	-0.701015	1.075996
1.240	1.320382	-0.493254	530.503860	5.676160	3.729249	-0.390500	-0.702964	1.069956
1.250	1.298115	-0.509458	530.544791	5.647494	3.735095	-0.386501	-0.704011	1.064471
1.260	1.272336	-0.524440	530.660292	5.624460	3.736413	-0.379723	-0.704106	1.059898
1.270	1.245444	-0.536954	530.847419	5.607128	3.734611	-0.371364	-0.703519	1.056260
1.280	1.221660	-0.548335	531.086807	5.593270	3.732121	-0.362879	-0.702733	1.053174
1.290	1.206533	-0.561538	531.346224	5.578773	3.731195	-0.355562	-0.702215	1.049932
1.300	1.205600	-0.579500	531.589361	5.558645	3.732582	-0.350270	-0.702155	1.045665
1.310	1.222768	-0.603843	531.784838	5.528209	3.734854	-0.347372	-0.702324	1.039557
1.320	1.259090	-0.634420	531.911012	5.484207	3.734817	-0.346881	-0.702151	1.031038
1.330	1.312280	-0.669572	531.956243	5.425551	3.728854	-0.348597	-0.700970	1.019924
1.340	1.376861	-0.706704	531.917658	5.353533	3.714448	-0.352132	-0.698313	1.006459
1.350	1.444743	-0.742941	531.801195	5.271448	3.691073	-0.356812	-0.694070	0.991244
1.360	1.506328	-0.775841	531.623040	5.183845	3.660057	-0.361616	-0.688468	0.975098
1.370	1.552325	-0.804254	531.409931	5.095671	3.623686	-0.365291	-0.681900	0.958897
1.380	1.576092	-0.829323	531.195686	5.011483	3.584276	-0.366672	-0.674756	0.943434
1.390	1.575761	-0.855267	531.014203	4.934701	3.543750	-0.365079	-0.667355	0.929297
1.400	1.555039	-0.889114	530.892423	4.867027	3.503770	-0.360588	-0.659977	0.916763
1.410	1.521846	-0.938805	530.846672	4.808224	3.465979	-0.354080	-0.652915	0.905765
1.420	1.485156	-1.009996	530.882454	4.756456	3.432022	-0.347004	-0.646475	0.895953
1.430	1.451655	-1.102949	530.995056	4.709068	3.403270	-0.340938	-0.640923	0.886838
1.440	1.424060	-1.211104	531.168920	4.663426	3.380443	-0.337107	-0.636416	0.877955
1.450	1.401749	-1.322219	531.376729	4.617471	3.363314	-0.336018	-0.632943	0.868964
1.460	1.382899	-1.421795	531.581114	4.569920	3.350575	-0.337377	-0.630304	0.859684
1.470	1.366731	-1.497595	531.741349	4.520281	3.339888	-0.340287	-0.628104	0.850090
1.480	1.354702	-1.543585	531.824585	4.468847	3.328188	-0.343674	-0.625806	0.840286
1.490	1.350250	-1.561783	531.817807	4.416668	3.312246	-0.346698	-0.622816	0.830485
1.500	1.357477	-1.561167	531.734785	4.365470	3.289380	-0.348966	-0.618613	0.820986
1.510	1.379508	-1.554044	531.613411	4.317554	3.258009	-0.350464	-0.612853	0.812160
1.520	1.417163	-1.551526	531.503034	4.275575	3.217818	-0.351341	-0.605419	0.804431
1.530	1.468285	-1.560120	531.446356	4.241950	3.169507	-0.351787	-0.596393	0.798190
1.540	1.527840	-1.580740	531.463617	4.217808	3.114278	-0.352096	-0.585981	0.793621
1.550	1.588853	-1.610184	531.546031	4.201881	3.053315	-0.352766	-0.574422	0.790502
1.560	1.644165	-1.644075	531.660785	4.190094	2.987482	-0.354442	-0.561915	0.788114
1.570	1.688762	-1.679767	531.764233	4.176403	2.917344	-0.357625	-0.548616	0.785386
1.580	1.721920	-1.717837	531.816981	4.154705	2.843420	-0.362311	-0.534661	0.781228
1.590	1.748153	-1.761488	531.795570	4.120964	2.766447	-0.367762	-0.520209	0.774915
1.600	1.776285	-1.814426	531.698234	4.074580	2.687580	-0.372599	-0.505471	0.766333
1.610	1.816829	-1.878579	531.544042	4.018494	2.608518	-0.375260	-0.490743	0.756004
1.620	1.878607	-1.952909	531.365967	3.958161	2.531564	-0.374665	-0.476426	0.744903
1.630	1.965706	-2.033509	531.200487	3.899975	2.459535	-0.370793	-0.463014	0.734181
1.640	2.075611	-2.114504	531.078019	3.849728	2.395407	-0.364874	-0.451046	0.724889
1.650	2.198978	-2.189291	531.017469	3.811455	2.341725	-0.359061	-0.440988	0.717764
1.660	2.321215	-2.251848	531.025116	3.786809	2.300044	-0.355697	-0.433133	0.713113
1.670	2.425761	-2.297878	531.096014	3.774991	2.270720	-0.356486	-0.427554	0.710793
1.680	2.498342	-2.325534	531.216286	3.773267	2.253190	-0.361952	-0.424157	0.710307
1.690	2.530947	-2.335538	531.365940	3.778024	2.246503	-0.371373	-0.422779	0.711002
1.700	2.524018	-2.330615	531.522235	3.786153	2.249720	-0.383170	-0.423260	0.712323
1.710	2.485953	-2.314290	531.663241	3.796248	2.261934	-0.395502	-0.425445	0.714032
1.720	2.430153	-2.289335	531.770647	3.809111	2.282017	-0.406784	-0.429136	0.716307
1.730	2.370844	-2.256491	531.831173	3.827280	2.308377	-0.415958	-0.434043	0.719642
1.740	2.319190	-2.214240	531.837006	3.853819	2.338944	-0.422511	-0.439786	0.724624
1.750	2.280906	-2.159976	531.786625	3.890932	2.371395	-0.426360	-0.445930	0.731672
1.760	2.255978	-2.092085	531.686410	3.939010	2.403495	-0.427713	-0.452051	0.740852
1.770	2.240322	-2.011790	531.551479	3.996491	2.433456	-0.426988	-0.457803	0.751854
1.780	2.228343	-1.923684	531.403889	4.060523	2.460220	-0.424779	-0.462966	0.764112
1.790	2.215025	-1.834698	531.268181	4.128043	2.483575	-0.421848	-0.467480	0.777017
1.800	2.196761	-1.752024	531.165777	4.196750	2.504059	-0.419086	-0.471427	0.790102
1.810	2.171190	-1.680921	531.109564	4.265576	2.522684	-0.417387	-0.474984	0.803144
1.820	2.136940	-1.623174	531.099924	4.334602	2.540622	-0.417390	-0.478370	0.816156
1.830	2.093909	-1.576659	531.124194	4.404590	2.558972	-0.419199	-0.481803	0.829296
1.840	2.043827	-1.536060	531.161065	4.476414	2.578673	-0.422267	-0.485479	0.842760
1.850	1.990269	-1.494396	531.188883	4.550627	2.600523	-0.425573	-0.489566	0.856687
1.860	1.937604	-1.444807	531.194156	4.627383	2.625244	-0.428004	-0.494216	0.871128
1.870	1.889336	-1.382207	531.176283	4.706750	2.653488	-0.428722	-0.499549	0.886099
1.880	1.846876	-1.304573	531.146809	4.789141	2.685681	-0.427338	-0.505638	0.901660
1.890	1.809453	-1.213669	531.124180	4.875460	2.721807	-0.423887	-0.512461	0.917951
1.900	1.775137	-1.114838	531.126474	4.966749	2.761319	-0.418710	-0.519899	0.935135
1.910	1.742448	-1.015584	531.164785	5.063518	2.803284	-0.412322	-0.527762	0.953286
1.920	1.711781	-0.923137	531.239485	5.165209	2.846696	-0.405280	-0.535859	0.972294
1.930	1.685871	-0.841864	531.340632	5.270024	2.890757	-0.398046	-0.544050	0.991835
1.940	1.668732	-0.771816	531.452386	5.375121	2.935020	-0.390889	-0.552264	1.011402
1.950	1.663330	-0.709259	531.559485	5.476946	2.979327	-0.383917	-0.560488	1.030354
1.960	1.669135	-0.648969	531.652205	5.571575	3.023604	-0.377224	-0.568718	1.047974
1.970	1.680956	-0.586952	531.726433	5.655102	3.067609	-0.371006	-0.576915	1.063536
1.980	1.689824	-0.522164	531.778479	5.724203	3.110722	-0.365510	-0.584966	1.076426
1.990	1.685631	-0.456554	531.798473	5.776865	3.151833	-0.360852	-0.592674	1.086288
2.000	1.660463	-0.393859	531.768230	5.812983	3.189382	-0.356847	-0.599769	1.093142
2.010	1.611444	-0.338008	531.667332	5.834498	3.221545	-0.353027	-0.605932	1.097396
2.020	1.542135	-0.291910	531.486150	5.844957	3.246483	-0.348842	-0.610831	1.099738
2.030	1.462029	-0.257029	531.239381	5.848648	3.262547	-0.343901	-0.614139	1.100944
2.040	1.384181	-0.233787	530.971524	5.849593	3.268504	-0.338078	-0.615571	1.101677
2.050	1.321652	-0.222393	530.748395	5.850654	3.263948	-0.331475	-0.614971	1.102340
2.060	1.283889	-0.223480	530.635820	5.852958	3.249797	-0.324341	-0.612435	1.103009
2.070	1.274241	-0.238052	530.674107	5.855859	3.228500	-0.317030	-0.608377	1.103476
2.080	1.289420	-0.266877	530.860241	5.857466	3.203535	-0.309955	-0.603461	1.103391
2.090	1.321093	-0.309712	531.146482	5.855549	3.178274	-0.303477	-0.598380	1.102436
2.100	1.359101	-0.364677	531.456173	5.848329	3.154810	-0.297759	-0.593616	1.100435
2.110	1.395122	-0.428016	531.709816	5.834780	3.133451	-0.292732	-0.589316	1.097362
2.120	1.425300	-0.494566	531.850742	5.814445	3.113135	-0.288220	-0.585340	1.093248
2.130	1.450800	-0.558992	531.860767	5.787126	3.092439	-0.284160	-0.581438	1.088090
2.140	1.476293	-0.617197	531.760919	5.752851	3.070578	-0.280755	-0.577436	1.081849
2.150	1.507408	-0.667080	531.598752	5.712208	3.047963	-0.278490	-0.573358	1.074534
2.160	1.548306	-0.708350	531.428846	5.666773	3.026175	-0.277986	-0.569441	1.066328
2.170	1.600124	-0.741751	531.294417	5.619228	3.007440	-0.279768	-0.566059	1.057649
2.180	1.660429	-0.768323	531.215806	5.572901	2.993899	-0.284009	-0.563594	1.049084
2.190	1.723608	-0.789112	531.188138	5.530851	2.986995	-0.290378	-0.562323	1.041223
2.200	1.782074	-0.805388	531.187455	5.494971	2.987177	-0.298107	-0.562358	1.034469
2.210	1.828103	-0.819097	531.182809	5.465632	2.993830	-0.306271	-0.563616	1.028955
2.220	1.855869	-0.833024	531.150702	5.442044	3.005262	-0.314085	-0.565802	1.024576
2.230	1.863140	-0.850215	531.087096	5.423024	3.018786	-0.321035	-0.568416	1.021118
2.240	1.852122	-0.872724	531.011548	5.407579	3.031106	-0.326766	-0.570817	1.018354
2.250	1.829226	-0.900361	530.960027	5.394930	3.039037	-0.330909	-0.572367	1.016071
2.260	1.803737	-0.930375	530.968163	5.384129	3.040264	-0.333029	-0.572589	1.014021
2.270	1.785483	-0.958547	531.052174	5.373773	3.033738	-0.332804	-0.571269	1.011910
2.280	1.781988	-0.981258	531.196995	5.362199	3.019650	-0.330343	-0.568462	1.009456
2.290	1.795944	-0.997337	531.358356	5.348087	2.999245	-0.326469	-0.564449	1.006493
2.300	1.824016	-1.008495	531.478858	5.330930	2.974677	-0.322754	-0.559698	1.003037
2.310	1.857599	-1.018063	531.511354	5.310969	2.948884	-0.321178	-0.554811	0.999220
2.320	1.885427	-1.029042	531.439491	5.288641	2.925289	-0.323490	-0.550446	0.995154
2.330	1.897208	-1.042862	531.286476	5.264031	2.907327	-0.330516	-0.547224	0.990808
2.340	1.886982	-1.059542	531.108041	5.236797	2.897921	-0.341744	-0.545637	0.986014
2.350	1.854951	-1.078746	530.972183	5.206728	2.899070	-0.355401	-0.545993	0.980603
2.360	1.807200	-1.100634	530.933722	5.174624	2.911494	-0.369004	-0.548372	0.974627
2.370	1.753556	-1.125867	531.013586	5.142945	2.934308	-0.380159	-0.552586	0.968515
2.380	1.704483	-1.154809	531.190633	5.115693	2.964824	-0.387266	-0.558147	0.963062
2.390	1.667989	-1.186541	531.409198	5.097377	2.998831	-0.389894	-0.564317	0.959219
2.400	1.647283	-1.218299	531.600006	5.091403	3.031632	-0.388766	-0.570284	0.957751
