Time[s]	Fx[N]	Fy[N]	Fz[N]	Mx[Nm]	My[Nm]	Mz[Nm]	COPx[cm]	COPy[cm]
0.010	-1.511191	-5.771297	557.322363	11.963175	21.956235	0.194171	-3.939593	2.146545
0.020	-2.355710	-5.809919	558.282975	11.972678	22.518241	0.267539	-4.033482	2.144554
0.030	-3.121795	-5.863039	560.051681	12.014459	23.053926	0.336887	-4.116393	2.145241
0.040	-3.743304	-5.938815	563.222423	12.111413	23.538448	0.397784	-4.179246	2.150378
0.050	-4.176746	-6.035104	568.007388	12.269801	23.950035	0.445433	-4.216501	2.160148
0.060	-4.408498	-6.139656	574.195310	12.478443	24.271615	0.475525	-4.227066	2.173205
0.070	-4.454545	-6.234369	581.221037	12.713025	24.491691	0.485469	-4.213834	2.187296
0.080	-4.351452	-6.301794	588.311248	12.943177	24.604306	0.475379	-4.182192	2.200056
0.090	-4.141302	-6.330959	594.655964	13.139703	24.608304	0.448303	-4.138242	2.209631
0.100	-3.856567	-6.320180	599.560231	13.280118	24.506277	0.409559	-4.087375	2.214977
0.110	-3.511017	-6.276305	602.547600	13.351825	24.303567	0.365381	-4.033468	2.215896
0.120	-3.099731	-6.211510	603.407410	13.353090	24.007511	0.321356	-3.978657	2.212948
0.130	-2.607078	-6.139241	602.193515	13.292207	23.626863	0.281202	-3.923467	2.207298
0.140	-2.018216	-6.070537	599.188375	13.185254	23.171247	0.246264	-3.867106	2.200519
0.150	-1.328795	-6.011629	594.844955	13.052898	22.650613	0.215853	-3.807818	2.194336
0.160	-0.549227	-5.963422	589.714654	12.916941	22.074874	0.188165	-3.743315	2.190371
0.170	0.296900	-5.922978	584.367333	12.797146	21.454045	0.161293	-3.671329	2.189915
0.180	1.177775	-5.886202	579.311171	12.708714	20.798984	0.133892	-3.590296	2.193763
0.190	2.058315	-5.850337	574.924358	12.660659	20.122540	0.105362	-3.500033	2.202143
0.200	2.902983	-5.815069	571.413229	12.655356	19.440651	0.075722	-3.402205	2.214747
0.210	3.676622	-5.781912	568.807406	12.689302	18.772873	0.045446	-3.300392	2.230861
0.220	4.345102	-5.752409	566.992030	12.754746	18.141884	0.015392	-3.199672	2.249546
0.230	4.877585	-5.726063	565.766097	12.841644	17.571634	-0.013198	-3.105812	2.269780
0.240	5.250948	-5.698946	564.909772	12.939558	17.084299	-0.038733	-3.024253	2.290553
0.250	5.455007	-5.663721	564.243184	13.039362	16.696875	-0.059495	-2.959163	2.310947
0.260	5.496040	-5.611335	563.663172	13.134626	16.418542	-0.074056	-2.912829	2.330226
0.270	5.396294	-5.533904	563.152194	13.222432	16.249685	-0.081745	-2.885487	2.347932
0.280	5.188908	-5.427703	562.762690	13.303255	16.182789	-0.082903	-2.875597	2.363919
0.290	4.909957	-5.295131	562.586526	13.379860	16.204884	-0.078745	-2.880425	2.378276
0.300	4.590720	-5.144963	562.720782	13.455674	16.300784	-0.070812	-2.896780	2.391181
0.310	4.252889	-4.990926	563.239565	13.533385	16.456116	-0.060249	-2.921690	2.402776
0.320	3.907715	-4.849316	564.178353	13.614325	16.659112	-0.047231	-2.952809	2.413124
0.330	3.558316	-4.736374	565.532972	13.698575	16.900600	-0.030864	-2.988438	2.422242
0.340	3.203523	-4.665735	567.269834	13.785394	17.172494	-0.009657	-3.027218	2.430130
0.350	2.841826	-4.646273	569.339856	13.873584	17.465803	0.017604	-3.067729	2.436784
0.360	2.474642	-4.680921	571.688434	13.961728	17.769270	0.050990	-3.108209	2.442192
0.370	2.108644	-4.766911	574.257384	14.048398	18.069215	0.088900	-3.146536	2.446359
0.380	1.757095	-4.897042	576.978505	14.132329	18.350476	0.128133	-3.180444	2.449368
0.390	1.439946	-5.061053	579.760748	14.212355	18.597948	0.164538	-3.207866	2.451417
0.400	1.181923	-5.246431	582.476087	14.286960	18.798242	0.194057	-3.227299	2.452798
0.410	1.007997	-5.438648	584.952876	14.353699	18.941198	0.213810	-3.238072	2.453821
0.420	0.936874	-5.621380	586.985663	14.409007	19.021103	0.222816	-3.240471	2.454746
0.430	0.974771	-5.777443	588.363919	14.448718	19.037539	0.222082	-3.235674	2.455745
0.440	1.112283	-5.890805	588.912507	14.469200	18.995644	0.214058	-3.225546	2.456935
0.450	1.325750	-5.949340	588.530593	14.468653	18.905560	0.201735	-3.212333	2.458437
0.460	1.582256	-5.947470	587.216367	14.448026	18.780943	0.187780	-3.198300	2.460426
0.470	1.845981	-5.887813	585.070947	14.411056	18.636830	0.174038	-3.185397	2.463130
0.480	2.083717	-5.781206	582.282195	14.363310	18.487528	0.161498	-3.175012	2.466727
0.490	2.268455	-5.644846	579.094471	14.310542	18.345186	0.150662	-3.167909	2.471193
0.500	2.380921	-5.498900	575.772642	14.257118	18.219341	0.142037	-3.164329	2.476171
0.510	2.409361	-5.362514	572.568949	14.205228	18.117297	0.136460	-3.164212	2.480964
0.520	2.348218	-5.250286	569.700276	14.155216	18.044784	0.135076	-3.167417	2.484678
0.530	2.196638	-5.169985	567.339963	14.106790	18.006300	0.139020	-3.173811	2.486479
0.540	1.957841	-5.121970	565.622388	14.060535	18.004728	0.148977	-3.183171	2.485852
0.550	1.639814	-5.100391	564.652651	14.019105	18.040234	0.164841	-3.194926	2.482784
0.560	1.256888	-5.095817	564.511538	13.987519	18.108933	0.185600	-3.207894	2.477809
0.570	0.831087	-5.098426	565.249035	13.972383	18.202064	0.209487	-3.220185	2.471899
0.580	0.392080	-5.100868	566.866241	13.980208	18.306221	0.234297	-3.229372	2.466227
0.590	-0.024912	-5.100074	569.292021	14.015398	18.404740	0.257727	-3.232917	2.461900
0.600	-0.383099	-5.097668	572.364834	14.078512	18.479810	0.277686	-3.228677	2.459710
0.610	-0.649237	-5.099077	575.830773	14.165243	18.514727	0.292606	-3.215307	2.459966
0.620	-0.798675	-5.111829	579.365599	14.266389	18.495890	0.301755	-3.192438	2.462416
0.630	-0.819120	-5.143549	582.620724	14.369066	18.414323	0.305480	-3.160602	2.466281
0.640	-0.712068	-5.199889	585.282614	14.459203	18.266502	0.305201	-3.120971	2.470465
0.650	-0.491364	-5.282559	587.127384	14.524905	18.054281	0.303058	-3.075019	2.473893
0.660	-0.179173	-5.387976	588.053517	14.559733	17.783869	0.301242	-3.024192	2.475920
0.670	0.199339	-5.507189	588.085353	14.564818	17.464186	0.301169	-2.969669	2.476650
0.680	0.620813	-5.627300	587.351662	14.549030	17.105060	0.302801	-2.912235	2.477056
0.690	1.066672	-5.733900	586.050269	14.526999	16.715625	0.304416	-2.852251	2.478797
0.700	1.524216	-5.813597	584.409468	14.515515	16.303166	0.303008	-2.789682	2.483792
0.710	1.986536	-5.855827	582.652357	14.529313	15.872585	0.295205	-2.724195	2.493650
0.720	2.451634	-5.853723	580.965654	14.577475	15.426640	0.278358	-2.655345	2.509180
0.730	2.920306	-5.804331	579.473796	14.661399	14.966976	0.251420	-2.582856	2.530123
0.740	3.392285	-5.708531	578.222260	14.774789	14.495672	0.215383	-2.506938	2.555209
0.750	3.861242	-5.570729	577.176945	14.905549	14.016817	0.173203	-2.428513	2.582492
0.760	4.310778	-5.398152	576.244476	15.039005	13.537478	0.129249	-2.349259	2.609831
0.770	4.714213	-5.199787	575.310854	15.161607	13.067605	0.088374	-2.271399	2.635376
0.780	5.039735	-4.985405	574.287471	15.264161	12.618698	0.054841	-2.197279	2.657930
0.790	5.259833	-4.765112	573.149494	15.343795	12.201480	0.031420	-2.128848	2.677102
0.800	5.361478	-4.549289	571.954174	15.404234	11.823307	0.018922	-2.067177	2.693264
0.810	5.352756	-4.348351	570.833371	15.454422	11.486223	0.016275	-2.012185	2.707344
0.820	5.262944	-4.171809	569.962196	15.505990	11.186355	0.021017	-1.962649	2.720530
0.830	5.135586	-4.026707	569.512634	15.570247	10.914832	0.030015	-1.916521	2.733960
0.840	5.016821	-3.915933	569.606205	15.655342	10.659893	0.040213	-1.871450	2.748450
0.850	4.942972	-3.837110	570.280449	15.764090	10.409576	0.049241	-1.825343	2.764270
0.860	4.931649	-3.782554	571.478717	15.892933	10.154248	0.055785	-1.776837	2.781019
0.870	4.979311	-3.740502	573.063533	16.032313	9.888226	0.059684	-1.725503	2.797650
0.880	5.065932	-3.697600	574.846101	16.168381	9.609990	0.061805	-1.671750	2.812645
0.890	5.164763	-3.642418	576.621808	16.285627	9.321105	0.063698	-1.616502	2.824317
0.900	5.253181	-3.569238	578.203197	16.369888	9.024547	0.067071	-1.560792	2.831165
0.910	5.320284	-3.480823	579.445281	16.411247	8.723155	0.073145	-1.505432	2.832234
0.920	5.368803	-3.388752	580.261222	16.406272	8.418522	0.082119	-1.450816	2.827394
0.930	5.412001	-3.310679	580.628488	16.358989	8.110291	0.092944	-1.396813	2.817462
0.940	5.468442	-3.265193	580.586139	16.280078	7.795915	0.103548	-1.342766	2.804076
0.950	5.557412	-3.266071	580.223453	16.184179	7.471083	0.111453	-1.287622	2.789301
0.960	5.695930	-3.317919	579.660146	16.085958	7.130904	0.114583	-1.230187	2.775067
0.970	5.896705	-3.414503	579.020317	15.996256	6.771507	0.111962	-1.169477	2.762642
0.980	6.166271	-3.540031	578.405082	15.919679	6.391500	0.103992	-1.105021	2.752341
0.990	6.503427	-3.672872	577.870659	15.854430	5.992794	0.092244	-1.037048	2.743595
1.000	6.898758	-3.790727	577.417841	15.794218	5.580588	0.078910	-0.966473	2.735319
1.010	7.335769	-3.875954	576.996271	15.731387	5.162558	0.066196	-0.894730	2.726428
1.020	7.793485	-3.919560	576.523469	15.660033	4.747530	0.055871	-0.823476	2.716287
1.030	8.249776	-3.922616	575.914642	15.578074	4.344059	0.049037	-0.754289	2.704928
1.040	8.684524	-3.894632	575.115331	15.487810	3.959406	0.046114	-0.688454	2.692992
1.050	9.082027	-3.849479	574.126306	15.395092	3.599161	0.046913	-0.626894	2.681482
1.060	9.432405	-3.800375	573.010919	15.307538	3.267340	0.050646	-0.570205	2.671422
1.070	9.731920	-3.755911	571.880489	15.232286	2.966610	0.055847	-0.518747	2.663544
1.080	9.982293	-3.718625	570.861876	15.173805	2.698466	0.060377	-0.472700	2.658052
1.090	10.189287	-3.686254	570.058797	15.132426	2.463447	0.061773	-0.432139	2.654538
1.100	10.360800	-3.654289	569.520889	15.104188	2.261633	0.057979	-0.397111	2.652087
1.110	10.504459	-3.617939	569.231003	15.082057	2.093444	0.048187	-0.367767	2.649549
1.120	10.624828	-3.572742	569.113780	15.057926	1.960479	0.033322	-0.344479	2.645855
1.130	10.720899	-3.514720	569.060850	15.024504	1.865936	0.015890	-0.327897	2.640228
1.140	10.784952	-3.441453	568.963600	14.976432	1.814284	-0.000734	-0.318875	2.632230
1.150	10.803787	-3.354350	568.744128	14.910531	1.810281	-0.013254	-0.318294	2.621659
1.160	10.762464	-3.260919	568.377186	14.825397	1.857802	-0.019288	-0.326861	2.608373
1.170	10.649235	-3.175292	567.898575	14.720633	1.959038	-0.017876	-0.344963	2.592124
1.180	10.459283	-3.116044	567.397918	14.596069	2.114279	-0.009541	-0.372627	2.572457
1.190	10.195288	-3.101576	566.996937	14.451289	2.322130	0.004119	-0.409549	2.548742
1.200	9.864893	-3.144645	566.819099	14.285601	2.579740	0.021218	-0.455126	2.520310
1.210	9.477212	-3.248283	566.961039	14.098395	2.882735	0.040403	-0.508454	2.486660
1.220	9.041004	-3.404968	567.476673	13.889655	3.224870	0.061299	-0.568282	2.447617
1.230	8.565689	-3.599468	568.378957	13.660499	3.597666	0.084271	-0.632970	2.403414
1.240	8.064110	-3.814113	569.654443	13.413687	3.990469	0.109624	-0.700507	2.354706
1.250	7.554400	-4.034368	571.278918	13.154062	4.391132	0.136713	-0.768649	2.302564
1.260	7.058627	-4.252612	573.223418	12.888755	4.787236	0.163497	-0.835143	2.248470
1.270	6.597934	-4.468856	575.447453	12.626689	5.167406	0.186811	-0.897981	2.194238
1.280	6.186320	-4.688316	577.884487	12.376989	5.522263	0.203237	-0.955600	2.141776
1.290	5.826596	-4.917015	580.429226	12.146477	5.844748	0.210165	-1.006970	2.092671
1.300	5.511080	-5.157311	582.936002	11.937266	6.129845	0.206637	-1.051547	2.047783
1.310	5.227031	-5.405197	585.233288	11.745862	6.373927	0.193622	-1.089126	2.007039
1.320	4.964248	-5.650285	587.152575	11.564519	6.573974	0.173651	-1.119636	1.969593
1.330	4.721389	-5.878300	588.562934	11.384431	6.726872	0.149972	-1.142932	1.934276
1.340	4.508710	-6.075150	589.398562	11.199345	6.829023	0.125583	-1.158643	1.900131
1.350	4.346789	-6.231253	589.667750	11.007841	6.876533	0.102523	-1.166171	1.866787
1.360	4.262261	-6.344590	589.438634	10.813247	6.865982	0.081604	-1.164834	1.834499
1.370	4.281944	-6.421108	588.807359	10.621365	6.795478	0.062577	-1.154109	1.803878
1.380	4.426595	-6.472042	587.862993	10.437309	6.665526	0.044571	-1.133857	1.775466
1.390	4.705474	-6.509135	586.665085	10.263001	6.479410	0.026619	-1.104448	1.749380
1.400	5.112883	-6.539951	585.242288	10.096333	6.243123	0.008109	-1.066759	1.725154
1.410	5.627657	-6.565533	583.608541	9.932162	5.965039	-0.010943	-1.022096	1.701853
1.420	6.215999	-6.581519	581.784494	9.764522	5.655566	-0.029812	-0.972107	1.678374
1.430	6.837130	-6.582059	579.811220	9.588994	5.326811	-0.047177	-0.918715	1.653813
1.440	7.450172	-6.564667	577.749902	9.404310	4.992199	-0.061410	-0.864076	1.627748
1.450	8.020242	-6.533709	575.669833	9.212697	4.665897	-0.070973	-0.810516	1.600344
1.460	8.522176	-6.500805	573.632705	9.019007	4.361961	-0.074827	-0.760410	1.572262
1.470	8.941377	-6.481817	571.681628	8.829032	4.093242	-0.072751	-0.716000	1.544397
1.480	9.272235	-6.491854	569.839633	8.647634	3.870353	-0.065478	-0.679200	1.517556
1.490	9.515210	-6.540670	568.117256	8.477344	3.701076	-0.054503	-0.651463	1.492182
1.500	9.673884	-6.630280	566.525339	8.317905	3.590389	-0.041569	-0.633756	1.468232
1.510	9.753293	-6.755097	565.088564	8.166950	3.540878	-0.028025	-0.626606	1.445251
1.520	9.760168	-6.903816	563.855500	8.021537	3.553154	-0.014449	-0.630153	1.422623
1.530	9.704580	-7.062030	562.901010	7.879952	3.626042	-0.000730	-0.644171	1.399882
1.540	9.601359	-7.214839	562.317883	7.743063	3.756651	0.013448	-0.668065	1.376990
1.550	9.469458	-7.348928	562.197219	7.614595	3.940592	0.027991	-0.700927	1.354435
1.560	9.328446	-7.453779	562.600285	7.499990	4.172686	0.041978	-0.741679	1.333094
1.570	9.192914	-7.522105	563.527952	7.403956	4.448226	0.053652	-0.789353	1.313858
1.580	9.066800	-7.550054	564.897152	7.327429	4.764523	0.060956	-0.843432	1.297126
1.590	8.939714	-7.537646	566.535124	7.265222	5.122204	0.062517	-0.904128	1.282396
1.600	8.786554	-7.489239	568.198994	7.205698	5.525712	0.058654	-0.972496	1.268165
1.610	8.570895	-7.413423	569.620442	7.133122	5.982682	0.051882	-1.050293	1.252259
1.620	8.252225	-7.322143	570.566404	7.032225	6.502140	0.046480	-1.139594	1.232499
1.630	7.796655	-7.229519	570.900758	6.893392	7.091722	0.047249	-1.242199	1.207459
1.640	7.189238	-7.151016	570.630073	6.716506	7.754561	0.057980	-1.358947	1.177033
1.650	6.443911	-7.102881	569.918847	6.512069	8.486854	0.080330	-1.489134	1.142631
1.660	5.606025	-7.100968	569.066359	6.299304	9.277160	0.113494	-1.630242	1.106954
1.670	4.744210	-7.158024	568.447598	6.101915	10.107935	0.154609	-1.778165	1.073435
1.680	3.932517	-7.279566	568.432034	5.942692	10.958875	0.199529	-1.927913	1.045453
1.690	3.228284	-7.459790	569.301602	5.838279	11.810841	0.243594	-2.074619	1.025516
1.700	2.653789	-7.679626	571.189962	5.795423	12.648799	0.282255	-2.214465	1.014623
1.710	2.189157	-7.908482	574.058514	5.809772	13.462625	0.311700	-2.345166	1.012052
1.720	1.780272	-8.109842	577.713178	5.867536	14.245557	0.329515	-2.465853	1.015649
1.730	1.359841	-8.249322	581.853303	5.949376	14.991209	0.335262	-2.576459	1.022487
1.740	0.874217	-8.302969	586.134270	6.035181	15.690622	0.330596	-2.676967	1.029658
1.750	0.305576	-8.263542	590.222424	6.108312	16.330757	0.318729	-2.766882	1.034917
1.760	-0.319381	-8.142985	593.827290	6.158300	16.895112	0.303311	-2.845122	1.037052
1.770	-0.937311	-7.970101	596.709176	6.181548	17.366308	0.287157	-2.910347	1.035940
1.780	-1.468815	-7.783656	598.672682	6.180102	17.729740	0.271355	-2.961508	1.032301
1.790	-1.843003	-7.622663	599.561221	6.159083	17.977107	0.255158	-2.998377	1.027265
1.800	-2.016658	-7.516868	599.263097	6.123777	18.108711	0.236704	-3.021830	1.021885
1.810	-1.982110	-7.480531	597.729600	6.077469	18.133926	0.214221	-3.033801	1.016759
1.820	-1.763600	-7.511206	594.996161	6.020717	18.069891	0.187105	-3.036976	1.011892
1.830	-1.406679	-7.593050	591.194522	5.952061	17.939118	0.156445	-3.034385	1.006786
1.840	-0.966624	-7.702702	586.548282	5.869614	17.766947	0.124863	-3.029068	1.000704
1.850	-0.499928	-7.815452	581.351973	5.772785	17.579439	0.095877	-3.023889	0.992993
1.860	-0.059652	-7.910053	575.940314	5.663449	17.401744	0.073050	-3.021449	0.983340
1.870	0.307049	-7.971564	570.657488	5.546215	17.256507	0.059182	-3.023969	0.971899
1.880	0.561505	-7.992381	565.834690	5.427947	17.162076	0.055710	-3.033055	0.959281
1.890	0.677398	-7.972063	561.777943	5.317007	17.130690	0.062430	-3.049370	0.946461
1.900	0.645099	-7.916517	558.760759	5.222557	17.167211	0.077564	-3.072372	0.934668
1.910	0.474259	-7.836772	557.012776	5.153947	17.268865	0.098131	-3.100264	0.925284
1.920	0.192687	-7.747134	556.697842	5.119967	17.426091	0.120475	-3.130260	0.919703
1.930	-0.158624	-7.662462	557.882218	5.127746	17.624246	0.140857	-3.159134	0.919145
1.940	-0.532795	-7.594834	560.502646	5.181273	17.845686	0.155974	-3.183872	0.924398
1.950	-0.884530	-7.550451	564.349558	5.279825	18.071844	0.163388	-3.202243	0.935559
1.960	-1.176039	-7.527910	569.077733	5.416863	18.285076	0.161831	-3.213107	0.951867
1.970	-1.380425	-7.518743	574.246055	5.580027	18.470158	0.151395	-3.216419	0.971714
1.980	-1.482440	-7.510416	579.376734	5.752720	18.615300	0.133600	-3.212987	0.992915
1.990	-1.477248	-7.490911	584.019104	5.917229	18.712565	0.111244	-3.204102	1.013191
2.000	-1.368285	-7.453012	587.805239	6.058611	18.757716	0.088004	-3.191145	1.030717
2.010	-1.165094	-7.396368	590.489712	6.168177	18.749584	0.067746	-3.175260	1.044587
2.020	-0.881594	-7.326508	591.969948	6.245549	18.689156	0.053642	-3.157112	1.055045
2.030	-0.534655	-7.251519	592.286237	6.298695	18.578550	0.047390	-3.136752	1.063455
2.040	-0.142440	-7.178217	591.602234	6.341732	18.420014	0.048846	-3.113581	1.071959
2.050	0.277961	-7.109797	590.168634	6.390861	18.215108	0.056293	-3.086424	1.082887
2.060	0.713405	-7.045967	588.275569	6.459568	17.964143	0.067194	-3.053695	1.098051
2.070	1.156904	-6.985012	586.202901	6.554751	17.666132	0.079059	-3.013655	1.118171
2.080	1.607755	-6.926204	584.178859	6.675094	17.319604	0.090076	-2.964778	1.142646
2.090	2.068975	-6.871002	582.354192	6.812014	16.924370	0.099387	-2.906199	1.169737
2.100	2.542761	-6.822417	580.792934	6.952532	16.483786	0.107092	-2.838152	1.197076
2.110	3.025879	-6.783057	579.476707	7.082932	16.006546	0.114089	-2.762242	1.222298
2.120	3.507180	-6.753201	578.319799	7.192121	15.507096	0.121817	-2.681405	1.243624
2.130	3.968560	-6.730252	577.194738	7.273955	15.004274	0.131841	-2.599517	1.260226
2.140	4.389098	-6.710163	575.968182	7.328112	14.518473	0.145317	-2.520708	1.272312
2.150	4.750562	-6.690151	574.542351	7.359476	14.068210	0.162439	-2.448594	1.280928
2.160	5.042050	-6.671147	572.891142	7.376352	13.667160	0.182102	-2.385647	1.287566
2.170	5.262178	-6.658457	571.078126	7.388195	13.322535	0.201911	-2.332874	1.293727
2.180	5.418492	-6.660044	569.248590	7.403706	13.035178	0.218555	-2.289892	1.300610
2.190	5.524618	-6.682945	567.596906	7.429768	12.801185	0.228457	-2.255330	1.308987
2.200	5.596092	-6.729181	566.319115	7.471194	12.614408	0.228548	-2.227438	1.319255
2.210	5.646066	-6.792754	565.565458	7.530882	12.468951	0.216950	-2.204687	1.331567
2.220	5.682232	-6.859056	565.406943	7.610000	12.360905	0.193395	-2.186196	1.345933
2.230	5.705942	-6.907274	565.824107	7.708023	12.288963	0.159308	-2.171870	1.362265
2.240	5.713447	-6.915261	566.717891	7.822565	12.253989	0.117642	-2.162273	1.380328
2.250	5.698111	-6.865450	567.936267	7.949178	12.257943	0.072522	-2.158331	1.399660
2.260	5.652228	-6.750169	569.308005	8.081478	12.302623	0.028665	-2.160978	1.419527
2.270	5.567907	-6.575001	570.675901	8.211988	12.388615	-0.009392	-2.170867	1.438993
2.280	5.437732	-6.359251	571.924260	8.333735	12.514521	-0.038119	-2.188143	1.457140
2.290	5.256500	-6.132889	572.997762	8.442172	12.676340	-0.055590	-2.212284	1.473334
2.300	5.024566	-5.930052	573.909323	8.536719	12.866942	-0.061686	-2.241982	1.487468
2.310	4.751726	-5.780474	574.733297	8.621347	13.075813	-0.057911	-2.275110	1.500060
2.320	4.459297	-5.701431	575.581012	8.703924	13.289422	-0.046952	-2.308871	1.512198
2.330	4.178267	-5.693007	576.561550	8.794400	13.492465	-0.032050	-2.340160	1.525319
2.340	3.943059	-5.738432	577.738771	8.902288	13.669977	-0.016251	-2.366117	1.540885
2.350	3.782597	-5.809313	579.099773	9.034220	13.809911	-0.001718	-2.384721	1.560045
2.360	3.711891	-5.873722	580.547039	9.192414	13.905408	0.010640	-2.395225	1.583406
2.370	3.727404	-5.904056	581.917816	9.374494	13.955904	0.021051	-2.398260	1.610965
2.380	3.808147	-5.882056	583.024063	9.574488	13.966539	0.030386	-2.395534	1.642211
