Time[s]	Fx[N]	Fy[N]	Fz[N]	Mx[Nm]	My[Nm]	Mz[Nm]	COPx[cm]	COPy[cm]
0.010	2.699698	-4.024344	703.070017	4.733057	19.495239	0.370733	-2.772873	0.673199
0.020	2.548629	-4.036158	703.608095	4.668460	19.492190	0.377347	-2.770319	0.663503
0.030	2.431444	-4.045077	704.104666	4.606410	19.489217	0.383156	-2.767943	0.654222
0.040	2.373346	-4.050995	704.525835	4.549545	19.486697	0.388167	-2.765931	0.645760
0.050	2.384304	-4.056468	704.846156	4.500552	19.485434	0.393317	-2.764495	0.638516
0.060	2.456741	-4.065811	705.052298	4.462256	19.486785	0.400055	-2.763878	0.632897
0.070	2.568252	-4.082756	705.146193	4.437368	19.492474	0.409516	-2.764317	0.629283
0.080	2.688645	-4.107746	705.145023	4.427701	19.503881	0.421766	-2.765939	0.627914
0.090	2.789051	-4.136284	705.074802	4.433129	19.520966	0.435567	-2.768638	0.628746
0.100	2.850010	-4.159358	704.958374	4.451039	19.541480	0.448836	-2.772005	0.631390
0.110	2.865801	-4.166005	704.804545	4.476863	19.561161	0.459528	-2.775402	0.635192
0.120	2.843799	-4.147231	704.606413	4.505561	19.575102	0.466446	-2.778161	0.639444
0.130	2.799769	-4.099745	704.351380	4.533276	19.579725	0.469617	-2.779823	0.643610
0.140	2.751537	-4.027856	704.037814	4.558391	19.574474	0.470162	-2.780316	0.647464
0.150	2.713543	-3.942507	703.689445	4.581719	19.562522	0.469868	-2.779994	0.651100
0.160	2.693628	-3.857731	703.359580	4.606012	19.550189	0.470628	-2.779544	0.654859
0.170	2.692088	-3.786021	703.121666	4.635052	19.545168	0.473881	-2.779770	0.659211
0.180	2.702637	-3.734571	703.048397	4.672529	19.554123	0.480198	-2.781334	0.664610
0.190	2.715134	-3.703839	703.186238	4.720960	19.580532	0.489137	-2.784544	0.671367
0.200	2.719821	-3.688714	703.534509	4.780922	19.623539	0.499449	-2.789279	0.679558
0.210	2.712079	-3.681334	704.037351	4.850885	19.678142	0.509533	-2.795042	0.689010
0.220	2.695748	-3.674073	704.593023	4.927684	19.736530	0.517927	-2.801125	0.699366
0.230	2.683000	-3.661556	705.078835	5.007390	19.790178	0.523606	-2.806804	0.710189
0.240	2.690001	-3.641314	705.384288	5.086235	19.832148	0.526023	-2.811538	0.721059
0.250	2.729779	-3.613210	705.442025	5.161376	19.859072	0.524984	-2.815125	0.731651
0.260	2.805336	-3.578093	705.246600	5.231367	19.872295	0.520539	-2.817780	0.741778
0.270	2.906223	-3.536553	704.854600	5.296268	19.877858	0.513007	-2.820136	0.751399
0.280	3.010465	-3.488542	704.365854	5.357342	19.885241	0.503131	-2.823141	0.760591
0.290	3.091457	-3.434035	703.892666	5.416419	19.905102	0.492127	-2.827860	0.769495
0.300	3.127094	-3.374102	703.528353	5.475130	19.946517	0.481435	-2.835212	0.778239
0.310	3.107291	-3.311508	703.325336	5.534334	20.014432	0.472190	-2.845686	0.786881
0.320	3.036733	-3.250256	703.288081	5.593981	20.108109	0.464681	-2.859157	0.795404
0.330	2.932041	-3.194134	703.380948	5.653457	20.221203	0.458193	-2.874858	0.803755
0.340	2.815044	-3.145004	703.546975	5.712241	20.343599	0.451319	-2.891576	0.811920
0.350	2.705389	-3.101765	703.730688	5.770525	20.464399	0.442601	-2.907987	0.819991
0.360	2.615649	-3.060719	703.896553	5.829525	20.574987	0.431173	-2.923013	0.828179
0.370	2.550478	-3.017305	704.036249	5.891337	20.671019	0.417099	-2.936073	0.836795
0.380	2.509042	-2.968344	704.162582	5.958463	20.752740	0.401269	-2.947152	0.846177
0.390	2.488062	-2.913564	704.293701	6.033140	20.823696	0.384922	-2.956678	0.856623
0.400	2.482999	-2.855474	704.435624	6.116578	20.888594	0.369103	-2.965295	0.868295
0.410	2.487044	-2.797624	704.572086	6.208217	20.951313	0.354362	-2.973622	0.881133
0.420	2.489923	-2.742227	704.667087	6.305400	21.013744	0.340874	-2.982081	0.894805
0.430	2.478901	-2.688801	704.678476	6.403821	21.075666	0.328793	-2.990820	0.908758
0.440	2.442639	-2.634991	704.575233	6.498747	21.135395	0.318514	-2.999736	0.922364
0.450	2.376215	-2.579140	704.350684	6.586447	21.190768	0.310590	-3.008554	0.935109
0.460	2.284392	-2.522644	704.027525	6.665063	21.240097	0.305409	-3.016941	0.946705
0.470	2.180974	-2.470256	703.654323	6.734561	21.282764	0.302923	-3.024605	0.957084
0.480	2.084079	-2.428148	703.295337	6.796007	21.319395	0.302657	-3.031357	0.966309
0.490	2.009290	-2.401041	703.016419	6.850812	21.351677	0.303960	-3.037152	0.974488
0.500	1.963784	-2.389986	702.870150	6.900406	21.382033	0.306316	-3.042103	0.981747
0.510	1.944154	-2.391672	702.883454	6.946324	21.413267	0.309541	-3.046489	0.988261
0.520	1.938809	-2.399383	703.050701	6.990358	21.448137	0.313815	-3.050724	0.994289
0.530	1.933621	-2.405232	703.334657	7.034514	21.488830	0.319528	-3.055278	1.000166
0.540	1.918050	-2.402801	703.676070	7.080718	21.536337	0.326983	-3.060547	1.006247
0.550	1.889022	-2.389097	704.009494	7.130378	21.589920	0.336081	-3.066709	1.012824
0.560	1.851163	-2.365050	704.279503	7.183831	21.646852	0.346199	-3.073617	1.020026
0.570	1.813807	-2.334416	704.451084	7.239846	21.702645	0.356376	-3.080788	1.027729
0.580	1.786620	-2.301657	704.511663	7.295524	21.751825	0.365698	-3.087504	1.035543
0.590	1.775924	-2.269809	704.466803	7.346961	21.789082	0.373669	-3.092989	1.042911
0.600	1.782943	-2.239339	704.333616	7.390578	21.810603	0.380378	-3.096630	1.049301
0.610	1.804075	-2.208505	704.135054	7.424554	21.815391	0.386438	-3.098183	1.054422
0.620	1.832582	-2.175076	703.896895	7.449556	21.806128	0.392723	-3.097915	1.058331
0.630	1.860956	-2.138619	703.647895	7.468369	21.789010	0.400015	-3.096579	1.061379
0.640	1.883167	-2.102015	703.421416	7.484694	21.772194	0.408683	-3.095185	1.064041
0.650	1.896135	-2.071009	703.254484	7.501814	21.763299	0.418527	-3.094655	1.066728
0.660	1.900196	-2.051657	703.180851	7.521688	21.767018	0.428809	-3.095508	1.069666
0.670	1.898725	-2.047074	703.219505	7.544614	21.784034	0.438430	-3.097757	1.072868
0.680	1.897184	-2.055460	703.365155	7.569343	21.811731	0.446173	-3.101054	1.076161
0.690	1.901641	-2.070614	703.587354	7.593488	21.846191	0.450957	-3.104972	1.079253
0.700	1.916788	-2.084517	703.839602	7.614090	21.884290	0.452043	-3.109272	1.081793
0.710	1.943904	-2.090524	704.073965	7.628221	21.924829	0.449171	-3.113995	1.083440
0.720	1.979653	-2.085634	704.254646	7.633606	21.968335	0.442594	-3.119374	1.083927
0.730	2.016619	-2.071011	704.366005	7.629264	22.015971	0.433012	-3.125644	1.083139
0.740	2.045742	-2.050886	704.413680	7.616067	22.068326	0.421413	-3.132864	1.081192
0.750	2.059954	-2.030654	704.419366	7.596870	22.124757	0.408902	-3.140850	1.078458
0.760	2.057554	-2.015140	704.410656	7.575864	22.183437	0.396549	-3.149219	1.075490
0.770	2.043708	-2.007583	704.408575	7.557183	22.241897	0.385277	-3.157528	1.072841
0.780	2.029033	-2.009336	704.417302	7.543231	22.297735	0.375749	-3.165416	1.070847
0.790	2.025453	-2.020044	704.421063	7.533514	22.349242	0.368250	-3.172711	1.069462
0.800	2.040906	-2.038112	704.390784	7.524612	22.395796	0.362652	-3.179456	1.068244
0.810	2.075345	-2.061271	704.298604	7.511447	22.438010	0.358519	-3.185866	1.066515
0.820	2.120095	-2.086970	704.134189	7.489393	22.477653	0.355319	-3.192240	1.063632
0.830	2.161073	-2.112442	703.915455	7.456392	22.517342	0.352598	-3.198870	1.059274
0.840	2.184474	-2.134815	703.688544	7.414190	22.560058	0.350033	-3.205972	1.053618
0.850	2.182345	-2.151836	703.516628	7.368096	22.608537	0.347437	-3.213646	1.047324
0.860	2.155559	-2.163335	703.461675	7.325295	22.664725	0.344805	-3.221885	1.041321
0.870	2.112877	-2.172573	703.565595	7.292488	22.729380	0.342422	-3.230599	1.036504
0.880	2.066605	-2.186215	703.836873	7.273956	22.801842	0.340939	-3.239649	1.033472
0.890	2.026860	-2.212259	704.246038	7.270817	22.879975	0.341247	-3.248861	1.032426
0.900	1.996999	-2.256377	704.729576	7.281458	22.960315	0.344064	-3.258032	1.033227
0.910	1.972231	-2.318125	705.199316	7.302472	23.038425	0.349398	-3.266938	1.035519
0.920	1.942028	-2.388991	705.554908	7.329451	23.109448	0.356216	-3.275358	1.038821
0.930	1.895371	-2.453792	705.699684	7.357437	23.168810	0.362643	-3.283098	1.042573
0.940	1.826640	-2.495397	705.561262	7.381199	23.213098	0.366717	-3.290019	1.046146
0.950	1.739569	-2.501020	705.115097	7.395659	23.241057	0.367389	-3.296066	1.048858
0.960	1.647248	-2.467502	704.403510	7.396585	23.254434	0.365187	-3.301294	1.050049
0.970	1.567626	-2.403433	703.539800	7.381450	23.258182	0.362122	-3.305880	1.049187
0.980	1.516058	-2.327294	702.690684	7.350115	23.259691	0.360841	-3.310090	1.045996
0.990	1.498223	-2.262214	702.039195	7.304990	23.267137	0.363467	-3.314222	1.040539
1.000	1.506976	-2.229051	701.738599	7.250563	23.287430	0.370733	-3.318533	1.033229
1.010	1.524862	-2.240080	701.871237	7.192458	23.324419	0.381777	-3.323176	1.024755
1.020	1.531166	-2.295375	702.424298	7.136245	23.377870	0.394574	-3.328169	1.015945
1.030	1.510290	-2.383176	703.289731	7.086235	23.443400	0.406728	-3.333391	1.007584
1.040	1.457931	-2.484135	704.289078	7.044477	23.513284	0.416280	-3.338584	1.000225
1.050	1.382902	-2.577924	705.216479	7.010310	23.577918	0.422266	-3.343359	0.994065
1.060	1.304395	-2.649755	705.887258	6.980833	23.627670	0.424847	-3.347230	0.988944
1.070	1.246021	-2.694464	706.178770	6.952269	23.654814	0.424999	-3.349692	0.984491
1.080	1.228621	-2.716805	706.054524	6.921688	23.655095	0.424009	-3.350321	0.980333
1.090	1.263852	-2.728120	705.568272	6.888188	23.628566	0.423066	-3.348870	0.976261
1.100	1.350205	-2.740923	704.848594	6.853023	23.579455	0.423146	-3.345322	0.972269
1.110	1.472669	-2.763712	704.067173	6.818785	23.515063	0.425052	-3.339889	0.968485
1.120	1.606520	-2.798025	703.397384	6.788298	23.443912	0.429397	-3.332954	0.965073
1.130	1.724499	-2.838569	702.973476	6.763829	23.373699	0.436380	-3.324976	0.962174
1.140	1.805269	-2.875836	702.861333	6.746914	23.309725	0.445465	-3.316405	0.959921
1.150	1.840301	-2.899710	703.048374	6.738672	23.254295	0.455234	-3.307638	0.958493
1.160	1.836685	-2.902567	703.454160	6.740220	23.207103	0.463578	-3.299021	0.958160
1.170	1.814448	-2.881132	703.957368	6.752800	23.166317	0.468231	-3.290869	0.959263
1.180	1.798815	-2.837130	704.430779	6.777463	23.129977	0.467502	-3.283499	0.962119
1.190	1.809960	-2.776911	704.774530	6.814383	23.097298	0.460983	-3.277261	0.966888
1.200	1.854314	-2.710059	704.938899	6.862164	23.069439	0.449977	-3.272544	0.973441
1.210	1.921209	-2.647065	704.930646	6.917614	23.049304	0.437358	-3.269726	0.981318
1.220	1.986646	-2.596481	704.801372	6.976282	23.040317	0.426744	-3.269051	0.989822
1.230	2.023052	-2.562424	704.622283	7.033534	23.044670	0.421225	-3.270500	0.998199
1.240	2.011248	-2.543336	704.455428	7.085561	23.061879	0.422150	-3.273717	1.005821
1.250	1.949615	-2.532569	704.332990	7.129851	23.088362	0.428543	-3.278046	1.012284
1.260	1.856099	-2.520725	704.251688	7.165141	23.118255	0.437438	-3.282669	1.017412
1.270	1.761521	-2.499001	704.181782	7.191237	23.145144	0.445030	-3.286814	1.021219
1.280	1.696855	-2.462462	704.085120	7.208876	23.164011	0.448158	-3.289945	1.023864
1.290	1.680458	-2.412144	703.935306	7.219523	23.172644	0.445451	-3.291871	1.025595
1.300	1.711481	-2.355403	703.733252	7.224885	23.172067	0.437645	-3.292734	1.026651
1.310	1.772162	-2.304410	703.512282	7.226277	23.166009	0.426976	-3.292908	1.027171
1.320	1.836998	-2.273014	703.329819	7.224205	23.159686	0.416026	-3.292863	1.027143
1.330	1.883688	-2.272502	703.247769	7.218423	23.158340	0.406612	-3.293056	1.026441
1.340	1.900876	-2.307273	703.308874	7.208380	23.165981	0.399193	-3.293856	1.024924
1.350	1.890140	-2.372029	703.518586	7.193640	23.184649	0.393013	-3.295528	1.022523
1.360	1.862579	-2.451994	703.839734	7.173955	23.214291	0.386750	-3.298235	1.019260
1.370	1.832478	-2.526673	704.201704	7.148988	23.253103	0.379272	-3.302052	1.015190
1.380	1.811187	-2.576128	704.520455	7.118040	23.298132	0.370138	-3.306949	1.010338
1.390	1.803671	-2.587605	704.722661	7.080141	23.345987	0.359736	-3.312791	1.004671
1.400	1.808425	-2.560023	704.766540	7.034665	23.393581	0.349164	-3.319338	0.998155
1.410	1.819680	-2.504518	704.653039	6.982189	23.438851	0.339948	-3.326297	0.990869
1.420	1.830034	-2.440623	704.423992	6.925064	23.481314	0.333617	-3.333406	0.983082
1.430	1.832177	-2.389551	704.148234	6.867212	23.522254	0.331205	-3.340526	0.975251
1.440	1.819545	-2.367394	703.900679	6.813017	23.564332	0.332864	-3.347679	0.967895
1.450	1.786605	-2.381021	703.741411	6.765699	23.610659	0.337779	-3.355019	0.961390
1.460	1.729531	-2.427698	703.701046	6.725915	23.663608	0.344444	-3.362736	0.955791
1.470	1.647563	-2.497530	703.775982	6.691306	23.723768	0.351183	-3.370926	0.950772
1.480	1.544569	-2.577107	703.933842	6.657350	23.789328	0.356660	-3.379483	0.945735
1.490	1.429776	-2.653241	704.126415	6.619202	23.856025	0.360155	-3.388032	0.940059
1.500	1.316767	-2.716263	704.305089	6.573696	23.917721	0.361544	-3.395932	0.933359
1.510	1.220686	-2.762267	704.433248	6.520484	23.967559	0.361091	-3.402389	0.925635
1.520	1.154533	-2.793459	704.491980	6.461722	23.999535	0.359313	-3.406644	0.917217
1.530	1.125883	-2.816307	704.478858	6.400527	24.010088	0.357016	-3.408206	0.908548
1.540	1.135099	-2.838359	704.402707	6.339153	23.999211	0.355403	-3.407030	0.899933
1.550	1.175495	-2.865487	704.278593	6.278000	23.970606	0.355995	-3.403569	0.891409
1.560	1.235181	-2.900755	704.125924	6.215955	23.930668	0.360204	-3.398635	0.882790
1.570	1.299912	-2.944630	703.969301	6.151663	23.886614	0.368666	-3.393133	0.873854
1.580	1.356114	-2.995450	703.838513	6.084914	23.844516	0.380700	-3.387782	0.864533
1.590	1.393365	-3.049645	703.763776	6.017452	23.808070	0.394249	-3.382963	0.855039
1.600	1.405961	-3.102187	703.765953	5.952921	23.778414	0.406467	-3.378739	0.845867
1.610	1.393546	-3.147854	703.846188	5.895923	23.754679	0.414694	-3.374982	0.837672
1.620	1.360880	-3.182989	703.981138	5.850498	23.734679	0.417387	-3.371494	0.831059
1.630	1.316788	-3.206732	704.127489	5.818687	23.715299	0.414537	-3.368041	0.826368
1.640	1.272251	-3.220914	704.235134	5.799888	23.692631	0.407474	-3.364307	0.823573
1.650	1.237946	-3.228699	704.264777	5.791371	23.662205	0.398272	-3.359845	0.822329
1.660	1.221977	-3.232775	704.203547	5.789649	23.619615	0.389141	-3.354089	0.822156
1.670	1.228759	-3.233962	704.072044	5.792014	23.561493	0.382042	-3.346460	0.822645
1.680	1.259471	-3.230846	703.919177	5.797570	23.486492	0.378497	-3.336533	0.823613
1.690	1.313514	-3.220602	703.806414	5.807354	23.395868	0.379437	-3.324191	0.825135
1.700	1.389689	-3.200655	703.787587	5.823518	23.293371	0.385063	-3.309716	0.827454
1.710	1.486005	-3.170319	703.891585	5.847835	23.184449	0.394798	-3.293753	0.830786
1.720	1.598199	-3.131544	704.113193	5.880210	23.074949	0.407440	-3.277165	0.835123
1.730	1.718276	-3.088489	704.413556	5.917968	22.969652	0.421480	-3.260819	0.840127
1.740	1.834748	-3.046178	704.728271	5.956346	22.871015	0.435459	-3.245366	0.845198
1.750	1.935272	-3.008808	704.979760	5.989964	22.778504	0.448171	-3.231086	0.849665
1.760	2.010715	-2.978403	705.091613	6.014569	22.688861	0.458689	-3.217860	0.853019
1.770	2.058601	-2.954433	705.004589	6.028299	22.597366	0.466303	-3.205279	0.855072
1.780	2.084177	-2.934430	704.694376	6.031992	22.499787	0.470565	-3.192843	0.855973
1.790	2.098598	-2.915054	704.187793	6.028589	22.394356	0.471411	-3.180168	0.856105
1.800	2.114962	-2.892939	703.569134	6.022009	22.282971	0.469239	-3.167133	0.855923
1.810	2.143677	-2.865182	702.968060	6.015982	22.171067	0.464785	-3.153922	0.855797
1.820	2.188902	-2.829930	702.527978	6.013140	22.066148	0.458897	-3.140964	0.855929
1.830	2.247409	-2.787416	702.364603	6.014595	21.975492	0.452371	-3.128787	0.856335
1.840	2.310336	-2.741169	702.530394	6.020078	21.903854	0.445944	-3.117851	0.856914
1.850	2.367083	-2.698423	702.998422	6.028503	21.851914	0.440378	-3.108387	0.857541
1.860	2.409712	-2.668953	703.670847	6.038667	21.815966	0.436447	-3.100308	0.858166
1.870	2.435925	-2.662252	704.407561	6.049783	21.788904	0.434785	-3.093224	0.858847
1.880	2.449417	-2.683769	705.064021	6.061731	21.762238	0.435620	-3.086562	0.859742
1.890	2.457781	-2.731461	705.525835	6.075029	21.728519	0.438562	-3.079762	0.861064
1.900	2.469223	-2.794440	705.730784	6.090531	21.683472	0.442566	-3.072485	0.863011
1.910	2.489569	-2.855252	705.674568	6.108856	21.627114	0.446157	-3.064743	0.865676
1.920	2.520537	-2.895704	705.402158	6.129661	21.563453	0.447877	-3.056902	0.868960
1.930	2.559591	-2.903765	704.990061	6.151127	21.498931	0.446740	-3.049537	0.872513
1.940	2.601088	-2.877987	704.525715	6.170091	21.440300	0.442422	-3.043225	0.875779
1.950	2.638127	-2.827162	704.089401	6.183016	21.392859	0.435133	-3.038373	0.878158
1.960	2.664515	-2.765696	703.742264	6.187531	21.359665	0.425340	-3.035154	0.879233
1.970	2.676461	-2.707434	703.521354	6.183727	21.341651	0.413596	-3.033547	0.878968
1.980	2.673527	-2.661042	703.439826	6.174364	21.338194	0.400529	-3.033407	0.877739
1.990	2.658399	-2.628821	703.489467	6.163760	21.347643	0.386912	-3.034536	0.876169
2.000	2.635450	-2.608860	703.644090	6.155994	21.367638	0.373679	-3.036711	0.874873
2.010	2.608743	-2.598676	703.864294	6.153443	21.395223	0.361819	-3.039680	0.874237
2.020	2.580451	-2.597979	704.104319	6.156289	21.426849	0.352167	-3.043136	0.874343
2.030	2.550470	-2.609082	704.319963	6.162988	21.458397	0.345159	-3.046683	0.875027
2.040	2.517387	-2.634999	704.475013	6.171174	21.485383	0.340674	-3.049843	0.875996
2.050	2.480320	-2.676520	704.544520	6.178430	21.503476	0.338023	-3.052110	0.876940
2.060	2.440672	-2.729929	704.516121	6.182656	21.509323	0.336120	-3.053063	0.877575
2.070	2.402802	-2.786755	704.392031	6.182199	21.501446	0.333795	-3.052483	0.877665
2.080	2.372897	-2.836052	704.192161	6.176064	21.480795	0.330178	-3.050417	0.877042
2.090	2.356211	-2.868343	703.954980	6.164282	21.450538	0.325044	-3.047146	0.875664
2.100	2.354003	-2.879314	703.731542	6.148153	21.415042	0.318954	-3.043070	0.873650
2.110	2.362182	-2.871364	703.571503	6.130046	21.378350	0.313076	-3.038547	0.871275
2.120	2.372875	-2.852303	703.505896	6.112686	21.342792	0.308742	-3.033776	0.868889
2.130	2.378332	-2.831980	703.535569	6.098239	21.308340	0.306945	-3.028751	0.866799
2.140	2.374988	-2.818584	703.632585	6.087595	21.273023	0.308011	-3.023314	0.865167
2.150	2.365300	-2.816343	703.754654	6.080194	21.234220	0.311583	-3.017276	0.863965
2.160	2.356183	-2.825430	703.864925	6.074404	21.190162	0.316841	-3.010544	0.863007
2.170	2.354954	-2.843470	703.946740	6.068215	21.140873	0.322857	-3.003192	0.862028
2.180	2.365137	-2.867228	704.006538	6.059940	21.088129	0.328949	-2.995445	0.860779
2.190	2.384486	-2.893413	704.064775	6.048714	21.034512	0.334904	-2.987582	0.859113
2.200	2.406393	-2.918696	704.140589	6.034712	20.982137	0.340979	-2.979822	0.857032
2.210	2.424028	-2.939746	704.238642	6.019031	20.931757	0.347600	-2.972253	0.854686
2.220	2.435027	-2.953865	704.345407	6.003217	20.882644	0.354921	-2.964830	0.852312
2.230	2.443980	-2.959964	704.436783	5.988547	20.833227	0.362552	-2.957430	0.850118
2.240	2.460983	-2.959211	704.492020	5.975396	20.782098	0.369699	-2.949941	0.848185
2.250	2.496712	-2.954831	704.505132	5.963024	20.729003	0.375694	-2.942349	0.846413
2.260	2.556380	-2.951078	704.487109	5.949893	20.675411	0.380526	-2.934818	0.844571
2.270	2.635676	-2.951796	704.458094	5.934373	20.624376	0.384987	-2.927694	0.842403
2.280	2.720952	-2.959022	704.434670	5.915535	20.579648	0.390335	-2.921442	0.839756
2.290	2.793951	-2.972125	704.420581	5.893704	20.544416	0.397688	-2.916499	0.836674
2.300	2.839019	-2.988011	704.407029	5.870598	20.520316	0.407518	-2.913133	0.833410
2.310	2.849266	-3.002577	704.381574	5.848963	20.507218	0.419484	-2.911379	0.830369
2.320	2.828604	-3.012684	704.338416	5.831739	20.503766	0.432596	-2.911067	0.827974
2.330	2.788951	-3.017559	704.283084	5.820969	20.508207	0.445558	-2.911927	0.826510
2.340	2.744627	-3.018988	704.229790	5.816923	20.518945	0.457104	-2.913672	0.825998
2.350	2.707134	-3.020537	704.194083	5.817907	20.534559	0.466232	-2.916037	0.826179
2.360	2.682588	-3.026233	704.184627	5.820965	20.553440	0.472297	-2.918757	0.826625
2.370	2.671965	-3.039010	704.197557	5.823081	20.573392	0.475000	-2.921537	0.826910
2.380	2.672864	-3.059234	704.216119	5.822173	20.591543	0.474318	-2.924037	0.826759
2.390	2.681449	-3.084075	704.216633	5.817340	20.604660	0.470440	-2.925898	0.826072
2.400	2.694019	-3.108553	704.179228	5.808401	20.609835	0.463728	-2.926788	0.824847
