Time[s]	Fx[N]	Fy[N]	Fz[N]	Mx[Nm]	My[Nm]	Mz[Nm]	COPx[cm]	COPy[cm]
0.010	4.287641	-3.290510	682.814856	0.764945	19.296943	-0.337702	-2.826087	0.112028
0.020	4.353909	-3.258026	682.814555	0.681583	19.165479	-0.338192	-2.806835	0.099820
0.030	4.423201	-3.232686	682.825532	0.611130	19.036871	-0.339464	-2.787955	0.089500
0.040	4.497927	-3.219443	682.852609	0.562635	18.913279	-0.342077	-2.769745	0.082395
0.050	4.578872	-3.218868	682.893159	0.539036	18.795447	-0.346182	-2.752326	0.078934
0.060	4.664271	-3.227459	682.940876	0.537285	18.683003	-0.351412	-2.735669	0.078672
0.070	4.749335	-3.239427	682.989885	0.550310	18.575249	-0.356898	-2.719696	0.080574
0.080	4.827029	-3.249029	683.036008	0.569740	18.472003	-0.361448	-2.704397	0.083413
0.090	4.890271	-3.252637	683.075959	0.588445	18.374062	-0.363912	-2.689900	0.086146
0.100	4.934627	-3.249834	683.106765	0.602143	18.283049	-0.363579	-2.676456	0.088148
0.110	4.960076	-3.243163	683.126136	0.609716	18.200723	-0.360447	-2.664328	0.089254
0.120	4.971017	-3.236531	683.132744	0.612328	18.128094	-0.355248	-2.653671	0.089635
0.130	4.974674	-3.233030	683.125276	0.611935	18.064808	-0.349234	-2.644436	0.089579
0.140	4.978624	-3.233312	683.100443	0.609984	18.009121	-0.343798	-2.636380	0.089296
0.150	4.988333	-3.235364	683.051671	0.606851	17.958535	-0.340020	-2.629162	0.088844
0.160	5.005511	-3.235563	682.970893	0.602100	17.910759	-0.338302	-2.622478	0.088159
0.170	5.027812	-3.230159	682.854116	0.595184	17.864453	-0.338317	-2.616145	0.087161
0.180	5.049871	-3.216379	682.708328	0.586186	17.819296	-0.339295	-2.610089	0.085862
0.190	5.065203	-3.192894	682.555393	0.576356	17.775307	-0.340504	-2.604229	0.084441
0.200	5.068354	-3.159885	682.429351	0.568309	17.731843	-0.341619	-2.598341	0.083277
0.210	5.056884	-3.118906	682.366492	0.565753	17.686981	-0.342800	-2.592006	0.082910
0.220	5.032967	-3.072670	682.391412	0.572673	17.637719	-0.344456	-2.584692	0.083922
0.230	5.004132	-3.024743	682.505456	0.592130	17.580899	-0.346889	-2.575935	0.086758
0.240	4.982477	-2.979121	682.683947	0.625047	17.514305	-0.350012	-2.565507	0.091557
0.250	4.981933	-2.939594	682.884283	0.669496	17.437421	-0.353288	-2.553496	0.098040
0.260	5.014188	-2.908916	683.060927	0.720863	17.351613	-0.355912	-2.540273	0.105534
0.270	5.084791	-2.887958	683.179943	0.772986	17.259701	-0.357123	-2.526377	0.113145
0.280	5.191001	-2.875173	683.227279	0.819936	17.165051	-0.356499	-2.512349	0.120009
0.290	5.322241	-2.866702	683.209323	0.857803	17.070544	-0.354071	-2.498582	0.125555
0.300	5.462972	-2.857329	683.147765	0.885825	16.977909	-0.350247	-2.485247	0.129668
0.310	5.596947	-2.842137	683.071692	0.906470	16.887824	-0.345661	-2.472335	0.132705
0.320	5.711295	-2.818288	683.009045	0.924451	16.800697	-0.341068	-2.459806	0.135350
0.330	5.799040	-2.786075	682.979042	0.945058	16.717554	-0.337259	-2.447740	0.138373
0.340	5.859429	-2.748681	682.987454	0.972397	16.640444	-0.334930	-2.436420	0.142374
0.350	5.896349	-2.710804	683.026919	1.008150	16.572190	-0.334412	-2.426287	0.147600
0.360	5.915767	-2.676890	683.082711	1.051176	16.515745	-0.335396	-2.417825	0.153887
0.370	5.923343	-2.649804	683.141025	1.097980	16.473533	-0.336832	-2.411440	0.160725
0.380	5.923008	-2.630317	683.194814	1.143759	16.446957	-0.337164	-2.407360	0.167413
0.390	5.916665	-2.617253	683.243682	1.183646	16.436079	-0.334863	-2.405595	0.173239
0.400	5.904649	-2.608066	683.288208	1.213797	16.439461	-0.329068	-2.405934	0.177641
0.410	5.886503	-2.599746	683.322570	1.232134	16.454238	-0.320065	-2.407975	0.180315
0.420	5.861782	-2.589908	683.330606	1.238655	16.476474	-0.309404	-2.411201	0.181267
0.430	5.830818	-2.577590	683.288781	1.235342	16.501752	-0.299531	-2.415048	0.180794
0.440	5.795349	-2.563319	683.175833	1.225643	16.525840	-0.293001	-2.418973	0.179404
0.450	5.758638	-2.548484	682.985047	1.213626	16.545342	-0.291523	-2.422504	0.177694
0.460	5.724574	-2.534604	682.733173	1.202919	16.558257	-0.295213	-2.425290	0.176192
0.470	5.695841	-2.523081	682.460723	1.195668	16.564278	-0.302408	-2.427140	0.175199
0.480	5.672063	-2.515457	682.221919	1.191867	16.564622	-0.310189	-2.428040	0.174704
0.490	5.649273	-2.513713	682.067479	1.189391	16.561436	-0.315459	-2.428123	0.174380
0.500	5.621385	-2.520033	682.027462	1.184763	16.557134	-0.316149	-2.427635	0.173712
0.510	5.583174	-2.535920	682.101730	1.174387	16.554009	-0.312005	-2.426912	0.172172
0.520	5.533237	-2.561111	682.261862	1.155746	16.554145	-0.304565	-2.426362	0.169399
0.530	5.475427	-2.593067	682.462925	1.128186	16.559339	-0.296375	-2.426409	0.165311
0.540	5.418020	-2.627535	682.659339	1.093016	16.570707	-0.289836	-2.427376	0.160111
0.550	5.371006	-2.660018	682.817913	1.052890	16.588088	-0.286295	-2.429357	0.154198
0.560	5.342682	-2.687450	682.923550	1.010713	16.609712	-0.285786	-2.432148	0.147998
0.570	5.336976	-2.709279	682.977678	0.968556	16.632607	-0.287407	-2.435307	0.141814
0.580	5.352424	-2.727518	682.992809	0.927154	16.653694	-0.290010	-2.438341	0.135749
0.590	5.382838	-2.745812	682.986581	0.886252	16.671028	-0.292751	-2.440901	0.129761
0.600	5.419042	-2.767927	682.976684	0.845528	16.684530	-0.295254	-2.442913	0.123800
0.610	5.451058	-2.796177	682.976898	0.805352	16.695920	-0.297455	-2.444580	0.117918
0.620	5.470439	-2.830319	682.994239	0.766760	16.707990	-0.299346	-2.446286	0.112265
0.630	5.472465	-2.867377	683.027383	0.730627	16.723625	-0.300881	-2.448456	0.106969
0.640	5.457602	-2.902672	683.067117	0.696635	16.744992	-0.302066	-2.451442	0.101986
0.650	5.431462	-2.931806	683.100075	0.662769	16.773086	-0.303080	-2.455436	0.097024
0.660	5.402958	-2.952727	683.115297	0.625793	16.807567	-0.304266	-2.460429	0.091609
0.670	5.381270	-2.966766	683.110186	0.582598	16.846830	-0.305965	-2.466195	0.085286
0.680	5.372765	-2.978102	683.091788	0.531759	16.888344	-0.308309	-2.472339	0.077846
0.690	5.379020	-2.991882	683.072341	0.474465	16.929351	-0.311115	-2.478413	0.069460
0.700	5.396606	-3.011770	683.061916	0.414225	16.967793	-0.313948	-2.484078	0.060642
0.710	5.418545	-3.037990	683.062573	0.355425	17.003086	-0.316290	-2.489243	0.052034
0.720	5.436708	-3.066863	683.067414	0.301490	17.036320	-0.317713	-2.494091	0.044138
0.730	5.444210	-3.092277	683.065049	0.253646	17.069768	-0.317982	-2.498996	0.037133
0.740	5.437159	-3.108564	683.046611	0.210859	17.105907	-0.317066	-2.504354	0.030870
0.750	5.415384	-3.113349	683.010950	0.170856	17.146411	-0.315093	-2.510415	0.025015
0.760	5.382077	-3.109025	682.965360	0.131589	17.191550	-0.312300	-2.517192	0.019267
0.770	5.342614	-3.102290	682.922405	0.092359	17.240230	-0.309017	-2.524479	0.013524
0.780	5.303005	-3.102164	682.895098	0.054043	17.290625	-0.305651	-2.531959	0.007914
0.790	5.268349	-3.117287	682.892422	0.018325	17.341072	-0.302643	-2.539356	0.002683
0.800	5.241575	-3.153242	682.916240	-0.013613	17.390834	-0.300362	-2.546554	-0.001993
0.810	5.222804	-3.210624	682.960272	-0.042174	17.440477	-0.298980	-2.553659	-0.006175
0.820	5.209559	-3.284602	683.011933	-0.069562	17.491748	-0.298401	-2.560973	-0.010185
0.830	5.197668	-3.366409	683.057257	-0.099025	17.547074	-0.298351	-2.568902	-0.014497
0.840	5.182436	-3.446173	683.087417	-0.133527	17.608890	-0.298593	-2.577838	-0.019548
0.850	5.159672	-3.515662	683.103689	-0.174453	17.678940	-0.299139	-2.588032	-0.025538
0.860	5.126402	-3.569703	683.117631	-0.220880	17.757665	-0.300245	-2.599503	-0.032334
0.870	5.081242	-3.606022	683.145339	-0.269646	17.843835	-0.302148	-2.612012	-0.039471
0.880	5.024327	-3.624253	683.198010	-0.316083	17.934617	-0.304715	-2.625098	-0.046265
0.890	4.956898	-3.625186	683.273465	-0.355044	18.026158	-0.307303	-2.638205	-0.051962
0.900	4.880905	-3.610888	683.353309	-0.381910	18.114521	-0.308990	-2.650828	-0.055888
0.910	4.799017	-3.585411	683.407987	-0.393473	18.196649	-0.309107	-2.662633	-0.057575
0.920	4.714878	-3.555179	683.408414	-0.388606	18.271059	-0.307736	-2.673520	-0.056863
0.930	4.633055	-3.528130	683.339103	-0.368517	18.338097	-0.305864	-2.683601	-0.053929
0.940	4.558316	-3.511544	683.206019	-0.336379	18.399701	-0.305012	-2.693141	-0.049235
0.950	4.494472	-3.509389	683.034854	-0.296386	18.458751	-0.306486	-2.702461	-0.043393
0.960	4.443429	-3.520453	682.860935	-0.252537	18.518124	-0.310626	-2.711844	-0.036982
0.970	4.404893	-3.538278	682.716445	-0.207589	18.579648	-0.316461	-2.721430	-0.030406
0.980	4.376784	-3.553182	682.620871	-0.162570	18.643256	-0.321972	-2.731129	-0.023816
0.990	4.356159	-3.555656	682.577583	-0.117025	18.706745	-0.324849	-2.740604	-0.017145
1.000	4.340213	-3.539717	682.576239	-0.069823	18.766448	-0.323374	-2.749356	-0.010229
1.010	4.326870	-3.504743	682.598911	-0.020024	18.818659	-0.317047	-2.756913	-0.002934
1.020	4.314783	-3.455030	682.626861	0.032640	18.861186	-0.306729	-2.763030	0.004782
1.030	4.303172	-3.397394	682.644886	0.087808	18.894221	-0.294325	-2.767796	0.012863
1.040	4.292029	-3.337981	682.642367	0.144842	18.920145	-0.282233	-2.771604	0.021218
1.050	4.282568	-3.279895	682.613362	0.203239	18.942493	-0.272738	-2.774996	0.029774
1.060	4.277252	-3.222782	682.558548	0.262995	18.964673	-0.267525	-2.778468	0.038531
1.070	4.278901	-3.164411	682.488238	0.324821	18.989056	-0.267349	-2.782327	0.047594
1.080	4.289124	-3.103070	682.422274	0.390034	19.016641	-0.271888	-2.786638	0.057154
1.090	4.306825	-3.039289	682.383919	0.460011	19.047220	-0.279792	-2.791276	0.067412
1.100	4.327733	-2.975899	682.390006	0.535428	19.079743	-0.288973	-2.796017	0.078464
1.110	4.345546	-2.916414	682.442976	0.615689	19.112734	-0.297134	-2.800635	0.090218
1.120	4.354415	-2.862576	682.529132	0.698851	19.144703	-0.302445	-2.804965	0.102391
1.130	4.351571	-2.812453	682.623521	0.782057	19.174658	-0.304123	-2.808965	0.114566
1.140	4.338619	-2.760454	682.698919	0.862338	19.202649	-0.302649	-2.812755	0.126313
1.150	4.320662	-2.699701	682.735476	0.937528	19.230071	-0.299498	-2.816621	0.137319
1.160	4.303596	-2.625735	682.727698	1.006933	19.259476	-0.296508	-2.820960	0.147487
1.170	4.291009	-2.539450	682.686005	1.071432	19.293824	-0.295180	-2.826164	0.156944
1.180	4.282400	-2.447420	682.631594	1.132891	19.335500	-0.296231	-2.832494	0.165959
1.190	4.273703	-2.359303	682.586089	1.193159	19.385504	-0.299553	-2.840009	0.174800
1.200	4.259694	-2.283861	682.560822	1.253184	19.443138	-0.304522	-2.848558	0.183600
1.210	4.236680	-2.225797	682.551968	1.312736	19.506216	-0.310458	-2.857836	0.192328
1.220	4.203925	-2.184745	682.545258	1.370766	19.571668	-0.316975	-2.867454	0.200832
1.230	4.163339	-2.156232	682.527956	1.426013	19.636325	-0.324040	-2.876999	0.208931
1.240	4.118134	-2.133557	682.500355	1.477398	19.697618	-0.331756	-2.886096	0.216468
1.250	4.071526	-2.109709	682.478456	1.524053	19.753894	-0.340071	-2.894435	0.223312
1.260	4.026122	-2.078912	682.484912	1.565190	19.804250	-0.348683	-2.901786	0.229337
1.270	3.983966	-2.037822	682.533414	1.600084	19.848146	-0.357223	-2.908011	0.234433
1.280	3.946773	-1.986297	682.616710	1.628301	19.885175	-0.365546	-2.913081	0.238538
1.290	3.915864	-1.927521	682.706628	1.650007	19.915164	-0.373835	-2.917090	0.241686
1.300	3.891766	-1.867259	682.767069	1.666114	19.938541	-0.382447	-2.920255	0.244024
1.310	3.873835	-1.812324	682.773070	1.678094	19.956732	-0.391578	-2.922894	0.245776
1.320	3.860327	-1.768690	682.725574	1.687524	19.972239	-0.400998	-2.925369	0.247175
1.330	3.848906	-1.739942	682.653884	1.695593	19.988092	-0.410018	-2.927998	0.248383
1.340	3.837264	-1.726587	682.604055	1.702782	20.006715	-0.417718	-2.930940	0.249454
1.350	3.823631	-1.726261	682.618592	1.708855	20.028722	-0.423286	-2.934101	0.250338
1.360	3.807283	-1.734326	682.717240	1.713219	20.052339	-0.426264	-2.937137	0.250941
1.370	3.788950	-1.744501	682.887989	1.715543	20.073756	-0.426615	-2.939539	0.251219
1.380	3.770673	-1.749650	683.091711	1.716329	20.088105	-0.424675	-2.940762	0.251259
1.390	3.754924	-1.743117	683.276723	1.717116	20.090532	-0.421100	-2.940321	0.251306
1.400	3.743614	-1.720529	683.395815	1.720176	20.077065	-0.416847	-2.937838	0.251710
1.410	3.737796	-1.681323	683.419441	1.727717	20.045253	-0.413124	-2.933082	0.252805
1.420	3.738213	-1.629099	683.342342	1.740845	19.994631	-0.411193	-2.926005	0.254754
1.430	3.746115	-1.570525	683.183339	1.758687	19.926937	-0.412010	-2.916777	0.257425
1.440	3.763650	-1.513451	682.979191	1.778140	19.845954	-0.415821	-2.905792	0.260350
1.450	3.793443	-1.465267	682.774904	1.794565	19.757040	-0.421946	-2.893639	0.262834
1.460	3.837357	-1.431906	682.614067	1.803274	19.666492	-0.428923	-2.881056	0.264172
1.470	3.894902	-1.416996	682.531204	1.801147	19.580842	-0.435004	-2.868857	0.263892
1.480	3.962045	-1.420795	682.545236	1.787629	19.506035	-0.438734	-2.857838	0.261906
1.490	4.031196	-1.439439	682.653374	1.764663	19.446475	-0.439328	-2.848660	0.258501
1.500	4.092635	-1.465488	682.828099	1.735692	19.404155	-0.436720	-2.841734	0.254192
1.510	4.136955	-1.490060	683.021470	1.704272	19.378242	-0.431356	-2.837135	0.249520
1.520	4.157658	-1.505780	683.178215	1.672842	19.365341	-0.423947	-2.834596	0.244862
1.530	4.153086	-1.509355	683.254081	1.642108	19.360439	-0.415266	-2.833564	0.240336
1.540	4.127248	-1.502772	683.231972	1.611189	19.358209	-0.406032	-2.833329	0.235819
1.550	4.089344	-1.492662	683.128130	1.578376	19.354287	-0.396853	-2.833185	0.231051
1.560	4.051875	-1.488069	682.984871	1.542041	19.346162	-0.388187	-2.832590	0.225780
1.570	4.027438	-1.497521	682.852898	1.501217	19.333479	-0.380318	-2.831280	0.219845
1.580	4.024891	-1.526441	682.771052	1.455643	19.317737	-0.373341	-2.829314	0.213196
1.590	4.046247	-1.575560	682.752372	1.405375	19.301585	-0.367173	-2.827026	0.205840
1.600	4.085691	-1.640613	682.782680	1.350229	19.287953	-0.361631	-2.824904	0.197754
1.610	4.131299	-1.713501	682.832139	1.289455	19.279294	-0.356567	-2.823431	0.188839
1.620	4.168807	-1.784825	682.873349	1.221840	19.277054	-0.352009	-2.822933	0.178926
1.630	4.185793	-1.847026	682.895745	1.146166	19.281456	-0.348199	-2.823485	0.167839
1.640	4.174696	-1.896778	682.908288	1.061704	19.291495	-0.345495	-2.824903	0.155468
1.650	4.133908	-1.935569	682.929763	0.968515	19.305081	-0.344220	-2.826803	0.141818
1.660	4.067276	-1.968449	682.973976	0.867595	19.319269	-0.344550	-2.828698	0.127032
1.670	3.982750	-2.001792	683.039963	0.760912	19.330631	-0.346460	-2.830088	0.111401
1.680	3.890693	-2.041044	683.112597	0.651213	19.335754	-0.349643	-2.830537	0.095330
1.690	3.802044	-2.089185	683.171075	0.541420	19.331734	-0.353383	-2.829706	0.079251
1.700	3.726500	-2.146237	683.198897	0.433718	19.316537	-0.356459	-2.827367	0.063483
1.710	3.671217	-2.209862	683.190651	0.328828	19.289133	-0.357270	-2.823390	0.048131
1.720	3.640513	-2.276784	683.154070	0.225947	19.249422	-0.354235	-2.817728	0.033074
1.730	3.636352	-2.344471	683.107093	0.123340	19.198000	-0.346419	-2.810394	0.018056
1.740	3.658689	-2.412188	683.070548	0.019192	19.135879	-0.334088	-2.801450	0.002810
1.750	3.705067	-2.480714	683.059148	-0.087734	19.064241	-0.318906	-2.791009	-0.012844
1.760	3.769996	-2.550819	683.075171	-0.197804	18.984286	-0.303564	-2.779238	-0.028958
1.770	3.845331	-2.621594	683.108373	-0.310563	18.897087	-0.290968	-2.766338	-0.045463
1.780	3.922223	-2.689818	683.142070	-0.424953	18.803360	-0.283327	-2.752482	-0.062206
1.790	3.993934	-2.750784	683.161633	-0.539595	18.703215	-0.281572	-2.737744	-0.078985
1.800	4.058016	-2.800073	683.160735	-0.653076	18.596049	-0.285302	-2.722061	-0.095596
1.810	4.116698	-2.835402	683.143103	-0.764269	18.480711	-0.293131	-2.705247	-0.111875
1.820	4.175388	-2.857923	683.120571	-0.872664	18.355864	-0.303138	-2.687061	-0.127747
1.830	4.240167	-2.872630	683.108747	-0.978641	18.220479	-0.313265	-2.667288	-0.143263
1.840	4.315540	-2.887575	683.120577	-1.083542	18.074324	-0.321697	-2.645847	-0.158617
1.850	4.403453	-2.911790	683.158773	-1.189450	17.918363	-0.327269	-2.622870	-0.174110
1.860	4.503714	-2.952553	683.210602	-1.298673	17.754927	-0.329777	-2.598749	-0.190084
1.870	4.614891	-3.013259	683.249498	-1.413061	17.587567	-0.329973	-2.574106	-0.206815
1.880	4.734624	-3.093015	683.244789	-1.533401	17.420613	-0.329192	-2.549688	-0.224429
1.890	4.859106	-3.187957	683.175682	-1.659106	17.258533	-0.328790	-2.526222	-0.242852
1.900	4.982487	-3.293256	683.042511	-1.788247	17.105324	-0.329682	-2.504284	-0.261806
1.910	5.097081	-3.404488	682.869457	-1.917760	16.964136	-0.332195	-2.484243	-0.280838
1.920	5.194587	-3.517658	682.697512	-2.043711	16.837212	-0.336204	-2.466277	-0.299358
1.930	5.267975	-3.628269	682.571286	-2.161756	16.726011	-0.341387	-2.450442	-0.316708
1.940	5.313366	-3.730505	682.525343	-2.267998	16.631325	-0.347453	-2.436734	-0.332295
1.950	5.331107	-3.817480	682.574536	-2.360120	16.553226	-0.354235	-2.425116	-0.345767
1.960	5.325429	-3.882719	682.710435	-2.438331	16.490910	-0.361678	-2.415506	-0.357155
1.970	5.302788	-3.922374	682.904411	-2.505555	16.442629	-0.369773	-2.407750	-0.366897
1.980	5.269904	-3.937135	683.116607	-2.566673	16.405929	-0.378502	-2.401629	-0.375730
1.990	5.232581	-3.932803	683.307836	-2.627058	16.378253	-0.387799	-2.396907	-0.384462
2.000	5.195493	-3.919004	683.449823	-2.690944	16.357671	-0.397481	-2.393398	-0.393730
2.010	5.162119	-3.906446	683.529793	-2.760192	16.343359	-0.407149	-2.391024	-0.403814
2.020	5.134104	-3.903790	683.548447	-2.833798	16.335612	-0.416122	-2.389825	-0.414572
2.030	5.110277	-3.915307	683.514334	-2.908142	16.335434	-0.423509	-2.389918	-0.425469
2.040	5.086272	-3.940084	683.439543	-2.977796	16.343981	-0.428459	-2.391430	-0.435707
2.050	5.055528	-3.972936	683.339095	-3.036747	16.362137	-0.430455	-2.394439	-0.444398
2.060	5.011588	-4.006404	683.231312	-3.079897	16.390344	-0.429401	-2.398945	-0.450784
2.070	4.950747	-4.032862	683.134825	-3.104529	16.428567	-0.425424	-2.404879	-0.454453
2.080	4.873791	-4.045946	683.062160	-3.111220	16.476141	-0.418564	-2.412100	-0.455481
2.090	4.785934	-4.041282	683.014857	-3.103689	16.531487	-0.408665	-2.420370	-0.454410
2.100	4.695034	-4.016988	682.984531	-3.087463	16.591999	-0.395554	-2.429337	-0.452055
2.110	4.609007	-3.974210	682.959721	-3.067808	16.654442	-0.379367	-2.438569	-0.449193
2.120	4.533541	-3.917201	682.934568	-3.047810	16.715782	-0.360802	-2.447640	-0.446281
2.130	4.470876	-3.852297	682.914460	-3.027505	16.773988	-0.341137	-2.456236	-0.443321
2.140	4.419875	-3.785884	682.914728	-3.004436	16.828380	-0.322005	-2.464199	-0.439943
2.150	4.377121	-3.722357	682.951743	-2.975240	16.879409	-0.305017	-2.471538	-0.435644
2.160	4.338569	-3.663197	683.030992	-2.937428	16.928080	-0.291336	-2.478377	-0.430058
2.170	4.301104	-3.607435	683.140014	-2.890517	16.975298	-0.281373	-2.484893	-0.423122
2.180	4.263376	-3.552924	683.251582	-2.836143	17.021322	-0.274704	-2.491223	-0.415095
2.190	4.225422	-3.497481	683.335727	-2.777340	17.065468	-0.270262	-2.497377	-0.406439
2.200	4.187255	-3.439474	683.373651	-2.717551	17.106218	-0.266779	-2.503201	-0.397667
2.210	4.147340	-3.378052	683.365915	-2.659900	17.141826	-0.263245	-2.508440	-0.389235
2.220	4.102129	-3.313404	683.330907	-2.606896	17.171325	-0.259143	-2.512886	-0.381498
2.230	4.047078	-3.247029	683.294739	-2.560498	17.195498	-0.254354	-2.516556	-0.374728
2.240	3.978498	-3.181702	683.277957	-2.522332	17.217192	-0.248835	-2.519793	-0.369152
2.250	3.894949	-3.120997	683.285890	-2.493900	17.240545	-0.242381	-2.523182	-0.364986
2.260	3.797370	-3.068613	683.307532	-2.476623	17.269267	-0.234665	-2.527305	-0.362446
2.270	3.688138	-3.027805	683.323399	-2.471596	17.304695	-0.225567	-2.532431	-0.361702
2.280	3.570118	-3.001038	683.318062	-2.479097	17.344475	-0.215578	-2.538273	-0.362803
2.290	3.446682	-2.989819	683.290483	-2.498153	17.382492	-0.205992	-2.543939	-0.365606
2.300	3.322894	-2.994747	683.256543	-2.526661	17.409999	-0.198646	-2.548091	-0.369797
2.310	3.207040	-3.015875	683.242429	-2.562228	17.417489	-0.195291	-2.549240	-0.375010
2.320	3.111216	-3.053279	683.272491	-2.603363	17.396561	-0.196869	-2.546065	-0.381014
2.330	3.050047	-3.107437	683.357870	-2.650319	17.341254	-0.203077	-2.537653	-0.387838
2.340	3.037594	-3.179058	683.490850	-2.705127	17.248588	-0.212382	-2.523602	-0.395781
2.350	3.083501	-3.268425	683.645650	-2.770725	17.118418	-0.222439	-2.503990	-0.405287
