Time[s]	Fx[N]	Fy[N]	Fz[N]	Mx[Nm]	My[Nm]	Mz[Nm]	COPx[cm]	COPy[cm]
0.010	5.421554	-1.491866	607.041665	-12.562699	-12.452067	-0.412252	2.051270	-2.069495
0.020	5.757437	-1.544995	608.853732	-12.582298	-12.754388	-0.380457	2.094820	-2.066555
0.030	6.072744	-1.599189	610.646696	-12.592540	-13.049633	-0.349716	2.137019	-2.062165
0.040	6.350451	-1.655053	612.388750	-12.584905	-13.331025	-0.321137	2.176889	-2.055052
0.050	6.580801	-1.711547	614.030972	-12.552734	-13.593591	-0.295808	2.213828	-2.044316
0.060	6.762640	-1.765404	615.517235	-12.492588	-13.835016	-0.274733	2.247706	-2.029608
0.070	6.903077	-1.811268	616.801401	-12.405007	-14.056430	-0.258706	2.278923	-2.011183
0.080	7.015634	-1.842877	617.862242	-12.293972	-14.262790	-0.248170	2.308409	-1.989759
0.090	7.116844	-1.854947	618.708544	-12.165114	-14.462430	-0.243116	2.337519	-1.966211
0.100	7.221502	-1.844761	619.372025	-12.023461	-14.665633	-0.243086	2.367823	-1.941234
0.110	7.337724	-1.812647	619.890878	-11.871832	-14.882435	-0.247277	2.400815	-1.915149
0.120	7.463707	-1.761265	620.290638	-11.710564	-15.120238	-0.254652	2.437605	-1.887916
0.130	7.587887	-1.694338	620.570789	-11.538510	-15.381985	-0.263969	2.478683	-1.859338
0.140	7.692719	-1.615560	620.703622	-11.354675	-15.665508	-0.273723	2.523831	-1.829323
0.150	7.760552	-1.528038	620.645848	-11.159680	-15.964361	-0.282175	2.572218	-1.798075
0.160	7.779136	-1.434139	620.357207	-10.956417	-16.269850	-0.287642	2.622658	-1.766147
0.170	7.744829	-1.335436	619.817926	-10.749604	-16.573558	-0.289093	2.673940	-1.734316
0.180	7.662993	-1.232470	619.038792	-10.544470	-16.869543	-0.286783	2.725119	-1.703362
0.190	7.546233	-1.124240	618.061538	-10.345242	-17.155583	-0.282460	2.775708	-1.673821
0.200	7.411469	-1.007708	616.950988	-10.154158	-17.433181	-0.278878	2.825700	-1.645861
0.210	7.276849	-0.877924	615.782889	-9.971265	-17.706446	-0.278728	2.875436	-1.619283
0.220	7.159465	-0.729352	614.631928	-9.794738	-17.980337	-0.283534	2.925383	-1.593594
0.230	7.074566	-0.558236	613.563120	-9.621221	-18.258952	-0.293102	2.975888	-1.568090
0.240	7.036003	-0.364953	612.627448	-9.445906	-18.544462	-0.305793	3.027037	-1.541868
0.250	7.056731	-0.154985	611.861346	-9.262566	-18.836978	-0.319389	3.078635	-1.513834
0.260	7.148088	0.062209	611.289809	-9.064074	-19.135244	-0.332065	3.130306	-1.482778
0.270	7.317443	0.275970	610.932896	-8.843829	-19.437730	-0.342987	3.181647	-1.447594
0.280	7.564971	0.477625	610.813268	-8.597993	-19.743722	-0.352398	3.232366	-1.407630
0.290	7.881215	0.662979	610.959725	-8.327759	-20.054048	-0.361249	3.282385	-1.363062
0.300	8.247081	0.833485	611.402198	-8.040555	-20.371184	-0.370622	3.331879	-1.315101
0.310	8.637055	0.995716	612.157923	-7.749319	-20.698588	-0.381167	3.381250	-1.265902
0.320	9.024985	1.158844	613.213514	-7.469777	-21.039327	-0.392766	3.430995	-1.218136
0.330	9.390780	1.330343	614.510022	-7.216659	-21.394377	-0.404483	3.481534	-1.174376
0.340	9.726061	1.511234	615.937033	-7.000317	-21.761188	-0.414789	3.533022	-1.136531
0.350	10.037019	1.693110	617.338500	-6.825022	-22.133073	-0.421903	3.585241	-1.105556
0.360	10.343171	1.859072	618.529182	-6.689378	-22.499604	-0.424129	3.637598	-1.081497
0.370	10.671562	1.988935	619.318178	-6.588416	-22.847808	-0.420164	3.689187	-1.063818
0.380	11.047264	2.066614	619.535228	-6.516417	-23.163682	-0.409364	3.738881	-1.051823
0.390	11.482641	2.086037	619.055944	-6.469434	-23.433637	-0.391944	3.785383	-1.045048
0.400	11.969086	2.052550	617.823223	-6.446681	-23.645681	-0.369019	3.827257	-1.043451
0.410	12.474883	1.979213	615.862708	-6.450275	-23.790348	-0.342430	3.862930	-1.047356
0.420	12.951012	1.880108	613.289256	-6.483465	-23.861489	-0.314404	3.890740	-1.057163
0.430	13.343640	1.764206	610.300424	-6.548188	-23.856998	-0.287142	3.909058	-1.072945
0.440	13.609185	1.632728	607.154230	-6.643197	-23.779275	-0.262475	3.916513	-1.094153
0.450	13.726603	1.481092	604.132067	-6.763787	-23.634922	-0.241731	3.912211	-1.119588
0.460	13.702269	1.304227	601.492532	-6.903358	-23.433154	-0.225833	3.895835	-1.147705
0.470	13.565198	1.102471	599.426999	-7.055981	-23.182938	-0.215447	3.867516	-1.177121
0.480	13.353768	0.884763	598.030770	-7.218643	-22.889699	-0.210951	3.827512	-1.207069
0.490	13.098714	0.666936	597.301020	-7.392024	-22.552976	-0.212152	3.775814	-1.237571
0.500	12.809491	0.465320	597.163362	-7.579502	-22.166308	-0.217977	3.711934	-1.269251
0.510	12.470428	0.288699	597.517110	-7.784857	-21.719851	-0.226458	3.635017	-1.302868
0.520	12.049225	0.132962	598.281696	-8.009610	-21.205091	-0.235109	3.544332	-1.338769
0.530	11.514629	-0.018579	599.427001	-8.251087	-20.619969	-0.241552	3.439947	-1.376496
0.540	10.855388	-0.189357	600.977974	-8.501976	-19.972382	-0.244147	3.323313	-1.414690
0.550	10.091515	-0.401147	602.994604	-8.751383	-19.280541	-0.242462	3.197465	-1.451320
0.560	9.272218	-0.666780	605.536677	-8.986807	-18.569926	-0.237482	3.066689	-1.484106
0.570	8.461146	-0.986428	608.625439	-9.196370	-17.867949	-0.231490	2.935787	-1.511006
0.580	7.715708	-1.347927	612.212022	-9.370828	-17.198187	-0.227602	2.809188	-1.530651
0.590	7.069819	-1.730010	616.158973	-9.505021	-16.575906	-0.229024	2.690200	-1.542625
0.600	6.526988	-2.106745	620.238858	-9.598319	-16.005932	-0.238180	2.580608	-1.547520
0.610	6.065014	-2.451727	624.152088	-9.653761	-15.483150	-0.255916	2.480669	-1.546700
0.620	5.648212	-2.741261	627.563510	-9.676128	-14.995270	-0.281046	2.389443	-1.541856
0.630	5.241008	-2.956401	630.153542	-9.669701	-14.527040	-0.310469	2.305318	-1.534499
0.640	4.818059	-3.083921	631.675617	-9.636679	-14.064749	-0.339939	2.226578	-1.525574
0.650	4.368859	-3.116552	632.008214	-9.576869	-13.599930	-0.365244	2.151860	-1.515308
0.660	3.897087	-3.053126	631.188121	-9.488602	-13.131522	-0.383377	2.080445	-1.503292
0.670	3.416193	-2.899313	629.413603	-9.370225	-12.666315	-0.393287	2.012399	-1.488723
0.680	2.943491	-2.668877	627.013161	-9.221356	-12.217999	-0.395997	1.948603	-1.470680
0.690	2.495281	-2.384196	624.385639	-9.043360	-11.805258	-0.394096	1.890700	-1.448361
0.700	2.084871	-2.074518	621.926248	-8.838964	-11.449258	-0.390883	1.840935	-1.421224
0.710	1.723751	-1.771351	619.956594	-8.611373	-11.170686	-0.389457	1.801850	-1.389028
0.720	1.424396	-1.501911	618.673594	-8.363356	-10.986447	-0.392013	1.775807	-1.351820
0.730	1.202195	-1.282569	618.125042	-8.096723	-10.906416	-0.399462	1.764435	-1.309884
0.740	1.074680	-1.114441	618.213225	-7.812356	-10.931027	-0.411401	1.768164	-1.263699
0.750	1.058168	-0.982660	618.724446	-7.510795	-11.050656	-0.426388	1.786038	-1.213916
0.760	1.163724	-0.859762	619.379427	-7.193105	-11.247339	-0.442404	1.815904	-1.161341
0.770	1.394662	-0.712280	619.894737	-6.861706	-11.498544	-0.457391	1.854919	-1.106915
0.780	1.746317	-0.508771	620.040721	-6.520788	-11.781867	-0.469709	1.900176	-1.051671
0.790	2.207189	-0.227273	619.680920	-6.176222	-12.078986	-0.478395	1.949227	-0.996678
0.800	2.759967	0.139507	618.783360	-5.835034	-12.377411	-0.483209	2.000282	-0.942985
0.810	3.381654	0.582324	617.402894	-5.504764	-12.669470	-0.484508	2.052059	-0.891600
0.820	4.042995	1.077161	615.642786	-5.193063	-12.949195	-0.483037	2.103362	-0.843519
0.830	4.708106	1.590174	613.610272	-4.907654	-13.208579	-0.479636	2.152601	-0.799800
0.840	5.335506	2.084521	611.383262	-4.656312	-13.434911	-0.474897	2.197461	-0.761603
0.850	5.881627	2.527157	609.001936	-4.446329	-13.610496	-0.468902	2.234886	-0.730101
0.860	6.307311	2.893641	606.489186	-4.283332	-13.715354	-0.461210	2.261434	-0.706250
0.870	6.586612	3.169870	603.890818	-4.170068	-13.732354	-0.451182	2.273980	-0.690533
0.880	6.715359	3.350869	601.316364	-4.106068	-13.652997	-0.438503	2.270518	-0.682847
0.890	6.715358	3.437796	598.959083	-4.088681	-13.481255	-0.423608	2.250781	-0.682631
0.900	6.630302	3.434894	597.080107	-4.115122	-13.233362	-0.407737	2.216346	-0.689208
0.910	6.512391	3.348117	595.954665	-4.184616	-12.932970	-0.392504	2.170126	-0.702170
0.920	6.403278	3.186452	595.794025	-4.299608	-12.603162	-0.379136	2.115356	-0.721660
0.930	6.316685	2.965159	596.669636	-4.465470	-12.258175	-0.367676	2.054432	-0.748399
0.940	6.230617	2.708219	598.469758	-4.688897	-11.897981	-0.356590	1.988067	-0.783481
0.950	6.094003	2.446806	600.909868	-4.975627	-11.507933	-0.343109	1.915085	-0.828016
0.960	5.847003	2.212409	603.599099	-5.328051	-11.063834	-0.324350	1.832977	-0.882714
0.970	5.448357	2.026177	606.143720	-5.742994	-10.540814	-0.298845	1.738996	-0.947464
0.980	4.899321	1.888260	608.254511	-6.210002	-9.923032	-0.267824	1.631395	-1.020954
0.990	4.253521	1.771741	609.822717	-6.710742	-9.210848	-0.235642	1.510414	-1.100441
1.000	3.606266	1.625016	610.938963	-7.220300	-8.422960	-0.209048	1.378691	-1.181837
1.010	3.064378	1.384134	611.848235	-7.710661	-7.592526	-0.195411	1.240917	-1.260224
1.020	2.706084	0.992788	612.856832	-8.155658	-6.758362	-0.200405	1.102764	-1.330761
1.030	2.546322	0.423901	614.225359	-8.535732	-5.954251	-0.225905	0.969392	-1.389674
1.040	2.522844	-0.304922	616.085903	-8.840699	-5.200387	-0.268931	0.844101	-1.434978
1.050	2.511574	-1.128492	618.409190	-9.069681	-4.500319	-0.322202	0.727725	-1.466615
1.060	2.367784	-1.946064	621.025688	-9.228684	-3.844503	-0.376206	0.619057	-1.486039
1.070	1.978119	-2.645426	623.684540	-9.327283	-3.218804	-0.422055	0.516095	-1.495513
1.080	1.303126	-3.131763	626.124085	-9.375843	-2.614215	-0.453963	0.417523	-1.497442
1.090	0.394092	-3.352241	628.129538	-9.384062	-2.033708	-0.470468	0.323772	-1.493969
1.100	-0.620933	-3.308816	629.563455	-9.360724	-1.493539	-0.474070	0.237234	-1.486859
1.110	-1.574903	-3.055841	630.366422	-9.313981	-1.018709	-0.469713	0.161606	-1.477550
1.120	-2.309006	-2.683885	630.534804	-9.251486	-0.634511	-0.462866	0.100631	-1.467244
1.130	-2.714332	-2.295202	630.088317	-9.179982	-0.357402	-0.457927	0.056723	-1.456936
1.140	-2.757304	-1.978280	629.042362	-9.104552	-0.188316	-0.457351	0.029937	-1.447367
1.150	-2.484385	-1.788583	627.397380	-9.028064	-0.110514	-0.461542	0.017615	-1.438971
1.160	-2.007210	-1.740266	625.150128	-8.951289	-0.092444	-0.469356	0.014788	-1.431862
1.170	-1.473640	-1.809976	622.322586	-8.873675	-0.094644	-0.478999	0.015208	-1.425896
1.180	-1.032817	-1.950040	618.996487	-8.794260	-0.078543	-0.488999	0.012689	-1.420729
1.190	-0.802923	-2.105659	615.338307	-8.712226	-0.014657	-0.498831	0.002382	-1.415843
1.200	-0.848888	-2.230286	611.602418	-8.627017	0.111938	-0.508911	-0.018302	-1.410560
1.210	-1.174173	-2.294987	608.108045	-8.538288	0.299824	-0.519990	-0.049304	-1.404074
1.220	-1.726780	-2.290375	605.194542	-8.446054	0.533050	-0.532388	-0.088079	-1.395593
1.230	-2.416207	-2.222458	603.165546	-8.351149	0.785838	-0.545570	-0.130286	-1.384553
1.240	-3.136246	-2.105615	602.234550	-8.255803	1.029117	-0.558252	-0.170883	-1.370862
1.250	-3.788186	-1.956001	602.484079	-8.163855	1.237454	-0.568885	-0.205392	-1.355032
1.260	-4.299660	-1.787522	603.848660	-8.080072	1.394619	-0.576177	-0.230955	-1.338096
1.270	-4.635650	-1.610656	606.127687	-8.008513	1.496174	-0.579421	-0.246841	-1.321258
1.280	-4.799834	-1.433145	609.027257	-7.950577	1.548177	-0.578578	-0.254205	-1.305455
1.290	-4.826301	-1.261134	612.221523	-7.903759	1.562318	-0.574149	-0.255188	-1.290997
1.300	-4.763680	-1.099809	615.416953	-7.861696	1.549139	-0.566948	-0.251722	-1.277458
1.310	-4.655943	-0.953245	618.400075	-7.815333	1.511932	-0.557878	-0.244491	-1.263799
1.320	-4.525796	-0.823627	621.053273	-7.754672	1.443923	-0.547762	-0.232496	-1.248632
1.330	-4.366465	-0.710042	623.334742	-7.670637	1.330053	-0.537277	-0.213377	-1.230581
1.340	-4.145216	-0.606979	625.234062	-7.556651	1.152740	-0.526975	-0.184369	-1.208612
1.350	-3.817688	-0.503012	626.725535	-7.409578	0.899197	-0.517313	-0.143475	-1.182268
1.360	-3.347831	-0.380671	627.741161	-7.229823	0.567270	-0.508579	-0.090367	-1.151720
1.370	-2.725855	-0.218806	628.174575	-7.020826	0.167520	-0.500722	-0.026668	-1.117655
1.380	-1.977335	0.001956	627.913052	-6.788553	-0.279018	-0.493240	0.044436	-1.081129
1.390	-1.160102	0.291527	626.883242	-6.541425	-0.746196	-0.485255	0.119033	-1.043484
1.400	-0.350253	0.643008	625.091320	-6.290612	-1.208973	-0.475772	0.193407	-1.006351
1.410	0.377248	1.029097	622.640209	-6.050158	-1.648122	-0.464017	0.264699	-0.971694
1.420	0.965998	1.404819	619.714737	-5.836330	-2.051857	-0.449689	0.331097	-0.941777
1.430	1.387409	1.716654	616.537891	-5.665938	-2.414089	-0.433032	0.391556	-0.918993
1.440	1.639404	1.915470	613.313924	-5.553893	-2.730415	-0.414745	0.445190	-0.905555
1.450	1.736724	1.969160	610.181334	-5.510676	-2.993772	-0.395881	0.490637	-0.903121
1.460	1.698136	1.871177	607.196393	-5.540480	-3.191903	-0.377838	0.525679	-0.912469
1.470	1.536553	1.642661	604.355752	-5.640598	-3.308131	-0.362424	0.547381	-0.933324
1.480	1.256397	1.327852	601.649172	-5.802269	-3.325661	-0.351776	0.552758	-0.964394
1.490	0.859020	0.984232	599.118635	-6.012811	-3.233868	-0.348021	0.539771	-1.003609
1.500	0.352768	0.669852	596.895743	-6.258489	-3.033793	-0.352718	0.508262	-1.048506
1.510	-0.238831	0.430653	595.198407	-6.527396	-2.740120	-0.366305	0.460371	-1.096676
1.520	-0.876922	0.290654	594.286944	-6.811549	-2.378519	-0.387757	0.400231	-1.146172
1.530	-1.516796	0.247516	594.399682	-7.107477	-1.979652	-0.414621	0.333051	-1.195740
1.540	-2.122213	0.275021	595.697965	-7.414990	-1.572929	-0.443533	0.264048	-1.244757
1.550	-2.675941	0.332028	598.243380	-7.734652	-1.183260	-0.471160	0.197789	-1.292894
1.560	-3.179396	0.375095	602.009906	-8.065257	-0.832204	-0.495227	0.138238	-1.339722
1.570	-3.640501	0.370437	606.912903	-8.402598	-0.542351	-0.515100	0.089362	-1.384482
1.580	-4.055939	0.301254	612.828255	-8.739979	-0.341800	-0.531579	0.055774	-1.426171
1.590	-4.397580	0.168697	619.583725	-9.069871	-0.265474	-0.545932	0.042847	-1.463865
1.600	-4.610747	-0.012723	626.925516	-9.385575	-0.351673	-0.558652	0.056095	-1.497080
1.610	-4.625717	-0.222795	634.483120	-9.681853	-0.634701	-0.568585	0.100034	-1.525943
1.620	-4.377342	-0.443332	641.762161	-9.954168	-1.136498	-0.572910	0.177090	-1.551068
1.630	-3.824437	-0.663449	648.183936	-10.197083	-1.860695	-0.568031	0.287063	-1.573177
1.640	-2.961765	-0.881034	653.167611	-10.402883	-2.791316	-0.550962	0.427351	-1.592682
1.650	-1.821528	-1.100613	656.228724	-10.561339	-3.896145	-0.520591	0.593717	-1.609399
1.660	-0.465976	-1.328997	657.058803	-10.660840	-5.132905	-0.478318	0.781194	-1.622509
1.670	1.024210	-1.570493	655.560957	-10.690589	-6.455665	-0.427812	0.984754	-1.630754
1.680	2.561113	-1.823092	651.838139	-10.643306	-7.819470	-0.374018	1.199603	-1.632814
1.690	4.058149	-2.076538	646.150122	-10.517739	-9.182603	-0.321814	1.421125	-1.627755
1.700	5.436601	-2.312628	638.862174	-10.320127	-10.507259	-0.274892	1.644683	-1.615392
1.710	6.631668	-2.507655	630.402677	-10.063867	-11.759943	-0.235268	1.865465	-1.596419
1.720	7.598615	-2.636530	621.235258	-9.767431	-12.912523	-0.203480	2.078524	-1.572260
1.730	8.318074	-2.677869	611.841014	-9.451396	-13.943999	-0.179206	2.279023	-1.544747
1.740	8.798862	-2.619048	602.702790	-9.135797	-14.842406	-0.161891	2.462641	-1.515805
1.750	9.076983	-2.459963	594.285754	-8.838618	-15.606045	-0.151080	2.626017	-1.487267
1.760	9.210440	-2.214273	587.013091	-8.575473	-16.243385	-0.146354	2.767125	-1.460866
1.770	9.270280	-1.907508	581.238800	-8.359883	-16.771295	-0.146998	2.885440	-1.438287
1.780	9.328913	-1.572569	577.221254	-8.203333	-17.211631	-0.151612	2.981808	-1.421177
1.790	9.447456	-1.243995	575.102279	-8.114696	-17.586753	-0.157980	3.058022	-1.411000
1.800	9.664727	-0.952556	574.896991	-8.099237	-17.915020	-0.163399	3.116214	-1.408815
1.810	9.990847	-0.721275	576.498392	-8.157832	-18.207572	-0.165445	3.158304	-1.415066
1.820	10.407602	-0.563325	579.697962	-8.286922	-18.467493	-0.162862	3.185710	-1.429524
1.830	10.875770	-0.481774	584.219357	-8.479260	-18.691697	-0.156123	3.199431	-1.451383
1.840	11.347515	-0.470946	589.757466	-8.724988	-18.874944	-0.147366	3.200459	-1.479420
1.850	11.780215	-0.518991	596.011596	-9.012431	-19.014456	-0.139751	3.190283	-1.512123
1.860	12.147295	-0.610936	602.702541	-9.328306	-19.113267	-0.136508	3.171260	-1.547746
1.870	12.442371	-0.731256	609.570389	-9.657601	-19.180959	-0.140039	3.146636	-1.584329
1.880	12.675454	-0.865282	616.360109	-9.983732	-19.231607	-0.151351	3.120190	-1.619789
1.890	12.863311	-0.999449	622.808380	-10.289363	-19.280064	-0.169962	3.095666	-1.652091
1.900	13.018595	-1.120895	628.643541	-10.557779	-19.338339	-0.194224	3.076201	-1.679454
1.910	13.142731	-1.217124	633.602539	-10.774450	-19.413648	-0.221839	3.064010	-1.700506
1.920	13.225723	-1.276348	637.459409	-10.928476	-19.508773	-0.250304	3.060395	-1.714380
1.930	13.252790	-1.288933	640.053620	-11.013733	-19.624145	-0.277119	3.066016	-1.720752
1.940	13.214543	-1.250042	641.306810	-11.029469	-19.760299	-0.299834	3.081255	-1.719843
1.950	13.115752	-1.162847	641.223458	-10.980116	-19.919403	-0.316094	3.106468	-1.712370
1.960	12.978614	-1.040897	639.880099	-10.874343	-20.105223	-0.323888	3.142030	-1.699435
1.970	12.839229	-0.907840	637.411993	-10.723728	-20.321680	-0.322028	3.188155	-1.682386
1.980	12.738910	-0.793314	634.002626	-10.541451	-20.570718	-0.310742	3.244579	-1.662683
1.990	12.713617	-0.725356	629.873973	-10.341267	-20.850363	-0.292022	3.310244	-1.641799
2.000	12.784898	-0.721579	625.270894	-10.136700	-21.153550	-0.269399	3.383102	-1.621169
2.010	12.954612	-0.782565	620.435388	-9.940248	-21.467881	-0.247051	3.460132	-1.602141
2.020	13.204081	-0.890584	615.573841	-9.762483	-21.776121	-0.228537	3.537532	-1.585916
2.030	13.497026	-1.014844	610.827991	-9.611182	-22.057182	-0.215682	3.611030	-1.573468
2.040	13.785312	-1.121652	606.263403	-9.490950	-22.287511	-0.208115	3.676209	-1.565483
2.050	14.016948	-1.185408	601.885461	-9.403650	-22.443126	-0.203619	3.728803	-1.562365
2.060	14.145972	-1.195818	597.683269	-9.349577	-22.502668	-0.199138	3.764982	-1.564303
2.070	14.143099	-1.158620	593.689836	-9.328733	-22.451477	-0.191984	3.781685	-1.571314
2.080	14.004803	-1.090409	590.036553	-9.341526	-22.285756	-0.180769	3.777013	-1.583211
2.090	13.757503	-1.010841	586.975701	-9.388756	-22.015016	-0.165671	3.750584	-1.599513
2.100	13.453805	-0.936032	584.850946	-9.471380	-21.660866	-0.148017	3.703656	-1.619452
2.110	13.159789	-0.875326	584.013688	-9.590521	-21.251260	-0.129453	3.638829	-1.642174
2.120	12.935680	-0.831320	584.707050	-9.747714	-20.811182	-0.111165	3.559249	-1.667111
2.130	12.815368	-0.801941	586.957458	-9.944991	-20.352623	-0.093534	3.467478	-1.694329
2.140	12.791650	-0.783640	590.515816	-10.184404	-19.867487	-0.076302	3.364429	-1.724662
2.150	12.812647	-0.775366	594.875112	-10.466717	-19.326426	-0.059047	3.248821	-1.759481
2.160	12.791072	-0.782845	599.366122	-10.789406	-18.684569	-0.041679	3.117388	-1.800136
2.170	12.623648	-0.821990	603.307484	-11.144576	-17.892682	-0.024784	2.965765	-1.847246
2.180	12.215094	-0.919642	606.168657	-11.517760	-16.910400	-0.009802	2.789719	-1.900092
2.190	11.500446	-1.109976	607.699040	-11.888409	-15.717576	0.000958	2.586408	-1.956299
2.200	10.460428	-1.426019	607.985288	-12.232319	-14.320629	0.004520	2.355424	-2.011943
2.210	9.126159	-1.887513	607.419540	-12.525514	-12.752331	-0.002375	2.099427	-2.062086
2.220	7.571293	-2.488272	606.588407	-12.748526	-11.065271	-0.022791	1.824181	-2.101676
2.230	5.892324	-3.187571	606.117564	-12.889799	-9.320934	-0.059089	1.537810	-2.126617
2.240	4.181644	-3.909907	606.519948	-12.947118	-7.577580	-0.112441	1.249354	-2.134657
2.250	2.502108	-4.555328	608.091492	-12.926582	-5.880634	-0.182366	0.967064	-2.125763
2.260	0.873643	-5.019069	610.879083	-12.839633	-4.258510	-0.266357	0.697112	-2.101829
2.270	-0.720638	-5.215597	614.719277	-12.699517	-2.724926	-0.359761	0.443280	-2.065905
2.280	-2.309459	-5.099884	619.322675	-12.518596	-1.286249	-0.456098	0.207686	-2.021337
2.290	-3.899457	-4.679093	624.366130	-12.307147	0.049492	-0.547967	-0.007927	-1.971143
2.300	-5.447681	-4.011042	629.558453	-12.073259	1.265751	-0.628381	-0.201054	-1.917734
2.310	-6.854293	-3.190483	634.663150	-11.823097	2.335442	-0.692126	-0.367981	-1.862893
