Time[s]	Fx[N]	Fy[N]	Fz[N]	Mx[Nm]	My[Nm]	Mz[Nm]	COPx[cm]	COPy[cm]
0.010	6.210945	0.926777	626.207721	-10.990422	-5.682631	-0.281532	0.907467	-1.755076
0.020	5.791908	1.062699	626.657362	-11.021504	-5.380369	-0.311783	0.858582	-1.758777
0.030	5.399925	1.178308	627.124660	-11.054697	-5.075455	-0.338129	0.809322	-1.762759
0.040	5.057383	1.257531	627.618588	-11.092038	-4.765402	-0.357881	0.759283	-1.767321
0.050	4.777449	1.292383	628.139851	-11.135801	-4.447806	-0.370281	0.708092	-1.772822
0.060	4.560446	1.283659	628.681645	-11.188288	-4.120958	-0.376214	0.655492	-1.779643
0.070	4.392846	1.239171	629.234196	-11.251623	-3.784536	-0.377327	0.601451	-1.788145
0.080	4.250302	1.170489	629.791183	-11.327821	-3.440030	-0.375174	0.546218	-1.798663
0.090	4.104697	1.089274	630.355040	-11.419204	-3.090700	-0.370815	0.490311	-1.811551
0.100	3.933241	1.004065	630.938034	-11.528793	-2.741132	-0.364911	0.434453	-1.827247
0.110	3.726205	0.918127	631.557484	-11.660093	-2.396583	-0.358027	0.379472	-1.846244
0.120	3.489977	0.828720	632.226274	-11.815911	-2.062294	-0.350791	0.326195	-1.868937
0.130	3.244133	0.727949	632.942577	-11.996584	-1.742804	-0.343723	0.275350	-1.895367
0.140	3.013911	0.604999	633.683210	-12.198588	-1.441279	-0.336824	0.227445	-1.925029
0.150	2.821287	0.449270	634.402887	-12.414522	-1.158940	-0.329283	0.182682	-1.956883
0.160	2.677795	0.253912	635.038899	-12.634645	-0.894772	-0.319645	0.140900	-1.989586
0.170	2.581119	0.019316	635.519588	-12.849221	-0.645626	-0.306492	0.101590	-2.021845
0.180	2.516130	-0.244346	635.775556	-13.050580	-0.406787	-0.289282	0.063983	-2.052702
0.190	2.459889	-0.516955	635.752744	-13.234212	-0.172960	-0.268893	0.027206	-2.081660
0.200	2.389119	-0.771842	635.425275	-13.398830	0.060553	-0.247551	-0.009530	-2.108640
0.210	2.287799	-0.982348	634.804330	-13.545730	0.296915	-0.228180	-0.046773	-2.133843
0.220	2.152381	-1.129149	633.939136	-13.677784	0.537452	-0.213487	-0.084780	-2.157586
0.230	1.992755	-1.205356	632.908084	-13.798356	0.782136	-0.205207	-0.123578	-2.180152
0.240	1.828248	-1.217772	631.801701	-13.910392	1.030616	-0.203741	-0.163123	-2.201702
0.250	1.679422	-1.184542	630.702692	-14.015933	1.283370	-0.208209	-0.203483	-2.222273
0.260	1.558164	-1.130380	629.669970	-14.116204	1.542521	-0.216764	-0.244973	-2.241842
0.270	1.460164	-1.080554	628.732646	-14.212076	1.812070	-0.227094	-0.288210	-2.260432
0.280	1.363802	-1.054920	627.896052	-14.304427	2.097514	-0.237085	-0.334054	-2.278152
0.290	1.236874	-1.063779	627.156596	-14.394001	2.404971	-0.245538	-0.383472	-2.295121
0.300	1.048362	-1.107093	626.518494	-14.480789	2.740010	-0.252703	-0.437339	-2.311311
0.310	0.779585	-1.177090	626.005318	-14.563420	3.106381	-0.260429	-0.496223	-2.326405
0.320	0.429561	-1.262582	625.662006	-14.639205	3.504947	-0.271848	-0.560198	-2.339794
0.330	0.012847	-1.352990	625.546828	-14.705174	3.933172	-0.290674	-0.628757	-2.350771
0.340	-0.448180	-1.440945	625.716282	-14.759885	4.385396	-0.320227	-0.700860	-2.358878
0.350	-0.932614	-1.523158	626.207973	-14.805219	4.853825	-0.362345	-0.775114	-2.364266
0.360	-1.427881	-1.599534	627.027854	-14.847258	5.329824	-0.416439	-0.850014	-2.367878
0.370	-1.931202	-1.670809	628.147847	-14.895576	5.804956	-0.479040	-0.924138	-2.371349
0.380	-2.444712	-1.735738	629.515804	-14.960897	6.271290	-0.544199	-0.996208	-2.376572
0.390	-2.966067	-1.789438	631.072907	-15.051792	6.720893	-0.604827	-1.064995	-2.385111
0.400	-3.479130	-1.824169	632.768920	-15.171618	7.144840	-0.654679	-1.129139	-2.397655
0.410	-3.950158	-1.832573	634.566686	-15.316890	7.532390	-0.690228	-1.187013	-2.413756
0.420	-4.332826	-1.811870	636.433277	-15.477689	7.871045	-0.711597	-1.236743	-2.431942
0.430	-4.581328	-1.766749	638.322605	-15.639989	8.147913	-0.722097	-1.276457	-2.450170
0.440	-4.666875	-1.709155	640.159110	-15.789117	8.352198	-0.726543	-1.304706	-2.466436
0.450	-4.590829	-1.654842	641.832054	-15.913206	8.477915	-0.729199	-1.320893	-2.479341
0.460	-4.388155	-1.618278	643.205263	-16.005622	8.525570	-0.732324	-1.325482	-2.488416
0.470	-4.118129	-1.608180	644.140021	-16.065711	8.501933	-0.735870	-1.319889	-2.494133
0.480	-3.844741	-1.625298	644.522606	-16.097769	8.418053	-0.738220	-1.306091	-2.497627
0.490	-3.614797	-1.662919	644.286404	-16.108730	8.286537	-0.737371	-1.286157	-2.500244
0.500	-3.443542	-1.709555	643.422460	-16.105595	8.119214	-0.731952	-1.261879	-2.503114
0.510	-3.313919	-1.752747	641.978282	-16.093660	7.925854	-0.721708	-1.234599	-2.506885
0.520	-3.188356	-1.782838	640.048126	-16.076089	7.713946	-0.707416	-1.205213	-2.511700
0.530	-3.026211	-1.795759	637.758235	-16.054593	7.489226	-0.690444	-1.174305	-2.517348
0.540	-2.799135	-1.794162	635.249687	-16.030469	7.256574	-0.672212	-1.142318	-2.523491
0.550	-2.499650	-1.786436	632.661783	-16.005328	7.020975	-0.653810	-1.109752	-2.529840
0.560	-2.141974	-1.783589	630.119993	-15.981297	6.788251	-0.635863	-1.077295	-2.536231
0.570	-1.756481	-1.794864	627.732395	-15.960902	6.565335	-0.618617	-1.045881	-2.542628
0.580	-1.380188	-1.823765	625.594923	-15.946906	6.359826	-0.602089	-1.016604	-2.549079
0.590	-1.046193	-1.866309	623.800139	-15.942173	6.178801	-0.586113	-0.990510	-2.555654
0.600	-0.775193	-1.912453	622.441151	-15.949524	6.027177	-0.570286	-0.968313	-2.562415
0.610	-0.571752	-1.950253	621.604767	-15.971526	5.906283	-0.553940	-0.950167	-2.569402
0.620	-0.426390	-1.971088	621.354933	-16.010185	5.813354	-0.536286	-0.935593	-2.576657
0.630	-0.322433	-1.973810	621.714244	-16.066450	5.742249	-0.516746	-0.923615	-2.584218
0.640	-0.244658	-1.966161	622.653097	-16.139527	5.685146	-0.495313	-0.913052	-2.592058
0.650	-0.186267	-1.962703	624.092032	-16.226276	5.634493	-0.472761	-0.902831	-2.599981
0.660	-0.151561	-1.979752	625.916223	-16.321202	5.584445	-0.450543	-0.892203	-2.607570
0.670	-0.153419	-2.029045	627.995719	-16.417316	5.531279	-0.430431	-0.880783	-2.614240
0.680	-0.206520	-2.112667	630.203212	-16.507639	5.472838	-0.414036	-0.868424	-2.619415
0.690	-0.318961	-2.221396	632.423648	-16.586643	5.407447	-0.402391	-0.855036	-2.622711
0.700	-0.485845	-2.337094	634.555453	-16.651008	5.332897	-0.395726	-0.840415	-2.624043
0.710	-0.687962	-2.438043	636.507967	-16.699486	5.245872	-0.393488	-0.824164	-2.623610
0.720	-0.896508	-2.505027	638.200675	-16.732144	5.141938	-0.394546	-0.805693	-2.621768
0.730	-1.081836	-2.525967	639.566806	-16.749417	5.015994	-0.397492	-0.784280	-2.618869
0.740	-1.222042	-2.497991	640.559480	-16.751342	4.862903	-0.400907	-0.759165	-2.615111
0.750	-1.307479	-2.427130	641.156002	-16.737249	4.678102	-0.403553	-0.729635	-2.610480
0.760	-1.339778	-2.326453	641.356536	-16.706054	4.458149	-0.404504	-0.695112	-2.604800
0.770	-1.326898	-2.213034	641.176778	-16.657055	4.201345	-0.403289	-0.655255	-2.597888
0.780	-1.277124	-2.103871	640.638146	-16.590756	3.908376	-0.399998	-0.610075	-2.589723
0.790	-1.194786	-2.011549	639.761129	-16.509212	3.582742	-0.395314	-0.560012	-2.580527
0.800	-1.079332	-1.941203	638.566236	-16.415745	3.230670	-0.390376	-0.505926	-2.570719
0.810	-0.927928	-1.890114	637.083075	-16.314426	2.860326	-0.386498	-0.448972	-2.560800
0.820	-0.740151	-1.850129	635.363176	-16.209889	2.480426	-0.384768	-0.390395	-2.551279
0.830	-0.522207	-1.812018	633.489262	-16.107652	2.098516	-0.385645	-0.331263	-2.542687
0.840	-0.288107	-1.770135	631.575007	-16.014463	1.719365	-0.388663	-0.272234	-2.535639
0.850	-0.056543	-1.725499	629.754329	-15.937853	1.343943	-0.392371	-0.213407	-2.530805
0.860	0.155663	-1.685885	628.164085	-15.884479	0.969336	-0.394595	-0.154312	-2.528715
0.870	0.340843	-1.662648	626.925475	-15.857683	0.589679	-0.392994	-0.094059	-2.529437
0.880	0.505032	-1.665374	626.128076	-15.855458	0.197944	-0.385781	-0.031614	-2.532303
0.890	0.667292	-1.696429	625.818753	-15.869987	-0.211883	-0.372386	0.033857	-2.535876
0.900	0.853552	-1.747835	625.996811	-15.889258	-0.642843	-0.353836	0.102691	-2.538233
0.910	1.087289	-1.802229	626.616021	-15.900313	-1.093909	-0.332689	0.174574	-2.537489
0.920	1.380905	-1.837935	627.593110	-15.893014	-1.560100	-0.312418	0.248585	-2.532375
0.930	1.731399	-1.836001	628.820931	-15.862914	-2.033815	-0.296432	0.323433	-2.522644
0.940	2.122011	-1.786011	630.183503	-15.812033	-2.506943	-0.287100	0.397812	-2.509116
0.950	2.528982	-1.688474	631.569836	-15.747175	-2.973066	-0.285157	0.470742	-2.493339
0.960	2.930388	-1.553662	632.884055	-15.676626	-3.429002	-0.289687	0.541806	-2.477014
0.970	3.313382	-1.398169	634.050259	-15.606963	-3.875173	-0.298566	0.611178	-2.461471
0.980	3.677165	-1.240682	635.011791	-15.541538	-4.314654	-0.309044	0.679461	-2.447441
0.990	4.030994	-1.098033	635.726186	-15.480993	-4.751230	-0.318271	0.747370	-2.435167
1.000	4.388453	-0.982227	636.158767	-15.424972	-5.187171	-0.323697	0.815389	-2.424705
1.010	4.760380	-0.898710	636.277874	-15.373705	-5.621545	-0.323426	0.883505	-2.416194
1.020	5.149121	-0.845933	636.053260	-15.328442	-6.049627	-0.316511	0.951120	-2.409931
1.030	5.546007	-0.816157	635.458164	-15.290532	-6.463539	-0.303096	1.017146	-2.406222
1.040	5.932516	-0.797542	634.476014	-15.259720	-6.853796	-0.284349	1.080229	-2.405090
1.050	6.284231	-0.777406	633.112271	-15.232703	-7.211206	-0.262181	1.139009	-2.406003
1.060	6.576191	-0.745884	631.408845	-15.202954	-7.528554	-0.238857	1.192342	-2.407783
1.070	6.788593	-0.698579	629.454625	-15.162222	-7.801755	-0.216626	1.239447	-2.408787
1.080	6.912128	-0.637018	627.385011	-15.103313	-8.030410	-0.197463	1.279981	-2.407344
1.090	6.951637	-0.566905	625.367315	-15.023065	-8.217715	-0.182876	1.314062	-2.402279
1.100	6.925952	-0.495296	623.575296	-14.924391	-8.369702	-0.173723	1.342212	-2.393358
1.110	6.862383	-0.427982	622.161039	-14.816668	-8.493884	-0.170036	1.365223	-2.381484
1.120	6.786897	-0.367685	621.233907	-14.714309	-8.597662	-0.170979	1.383965	-2.368562
1.130	6.713978	-0.313261	620.853373	-14.633863	-8.686998	-0.175055	1.399203	-2.357056
1.140	6.641098	-0.260213	621.035887	-14.590354	-8.765865	-0.180544	1.411491	-2.349358
1.150	6.551031	-0.202924	621.768704	-14.593832	-8.836687	-0.185965	1.421218	-2.347148
1.160	6.421645	-0.138435	623.020247	-14.647137	-8.901442	-0.190300	1.428756	-2.350989
1.170	6.238947	-0.070488	624.739960	-14.745461	-8.962716	-0.192913	1.434631	-2.360256
1.180	6.006837	-0.011734	626.848761	-14.877730	-9.023959	-0.193271	1.439575	-2.373416
1.190	5.748123	0.017861	629.228924	-15.029277	-9.088746	-0.190713	1.444426	-2.388523
1.200	5.495847	-0.003093	631.723683	-15.185086	-9.159552	-0.184425	1.449930	-2.403754
1.210	5.279607	-0.088996	634.151033	-15.332722	-9.236938	-0.173616	1.456583	-2.417834
1.220	5.114534	-0.240038	636.327615	-15.464122	-9.319685	-0.157807	1.464605	-2.430214
1.230	4.998777	-0.439935	638.093721	-15.575814	-9.405741	-0.137114	1.474038	-2.440992
1.240	4.919803	-0.660089	639.331594	-15.667702	-9.493280	-0.112466	1.484876	-2.450638
1.250	4.864481	-0.868465	639.973931	-15.741206	-9.581158	-0.085716	1.497117	-2.459664
1.260	4.826389	-1.039324	640.004222	-15.797648	-9.668623	-0.059529	1.510712	-2.468366
1.270	4.806629	-1.159921	639.452854	-15.837653	-9.754730	-0.036996	1.525481	-2.476751
1.280	4.809210	-1.232058	638.391863	-15.861688	-9.838131	-0.021029	1.541080	-2.484632
1.290	4.835274	-1.268670	636.928578	-15.871182	-9.917522	-0.013702	1.557085	-2.491831
1.300	4.880407	-1.287343	635.196699	-15.869387	-9.992392	-0.015688	1.573118	-2.498342
1.310	4.936418	-1.303310	633.343484	-15.861413	-10.063437	-0.025905	1.588938	-2.504393
1.320	4.995645	-1.324268	631.512968	-15.853327	-10.132254	-0.041562	1.604441	-2.510372
1.330	5.054327	-1.348516	629.827048	-15.850617	-10.200352	-0.058788	1.619548	-2.516662
1.340	5.112535	-1.366800	628.368869	-15.856590	-10.267940	-0.073778	1.634062	-2.523453
1.350	5.170725	-1.367086	627.174384	-15.871435	-10.333034	-0.084074	1.647554	-2.530626
1.360	5.225326	-1.340410	626.236109	-15.892414	-10.391373	-0.089344	1.659338	-2.537767
1.370	5.266584	-1.285562	625.518408	-15.915108	-10.437273	-0.091272	1.668580	-2.544307
1.380	5.280358	-1.210891	624.979249	-15.935078	-10.465122	-0.092577	1.674475	-2.549697
1.390	5.252987	-1.132662	624.591605	-15.949162	-10.470817	-0.095660	1.676426	-2.553534
1.400	5.176181	-1.070603	624.358522	-15.955851	-10.452612	-0.101551	1.674136	-2.555559
1.410	5.048948	-1.042220	624.318003	-15.954733	-10.411293	-0.109645	1.667627	-2.555546
1.420	4.875552	-1.057706	624.536617	-15.945493	-10.350024	-0.118319	1.657232	-2.553172
1.430	4.661190	-1.116833	625.093629	-15.927238	-10.274154	-0.126053	1.643618	-2.547976
1.440	4.408585	-1.208413	626.059353	-15.898638	-10.191001	-0.132449	1.627801	-2.539478
1.450	4.117967	-1.312282	627.472260	-15.858672	-10.109451	-0.138654	1.611139	-2.527390
1.460	3.790645	-1.403511	629.319726	-15.807234	-10.039287	-0.147007	1.595260	-2.511797
1.470	3.434081	-1.458042	631.527510	-15.744945	-9.990260	-0.160184	1.581920	-2.493153
1.480	3.065558	-1.458134	633.961926	-15.672160	-9.971041	-0.180210	1.572814	-2.472098
1.490	2.712248	-1.395548	636.445371	-15.587790	-9.988244	-0.207728	1.569380	-2.449195
1.500	2.407241	-1.271293	638.781244	-15.488748	-10.045716	-0.241696	1.572638	-2.424734
1.510	2.182806	-1.092440	640.780811	-15.370543	-10.144120	-0.279607	1.583087	-2.398721
1.520	2.063142	-0.867935	642.284701	-15.228973	-10.280705	-0.318164	1.600646	-2.371063
1.530	2.058818	-0.605476	643.176163	-15.062286	-10.449248	-0.354162	1.624632	-2.341860
1.540	2.164284	-0.310667	643.388011	-14.872866	-10.640509	-0.385233	1.653825	-2.311648
1.550	2.358998	0.011575	642.906624	-14.667684	-10.843637	-0.410198	1.686658	-2.281464
1.560	2.611915	0.354263	641.774343	-14.457135	-11.048490	-0.428950	1.721554	-2.252682
1.570	2.888388	0.705646	640.089366	-14.252593	-11.248142	-0.442023	1.757277	-2.226657
1.580	3.157736	1.047844	638.001208	-14.063629	-11.440547	-0.450072	1.793186	-2.204326
1.590	3.399394	1.357765	635.699360	-13.896041	-11.628637	-0.453482	1.829267	-2.185945
1.600	3.606034	1.610670	633.392866	-13.751299	-11.818831	-0.452206	1.865956	-2.171054
1.610	3.783079	1.786082	631.280786	-13.627209	-12.018569	-0.445839	1.903839	-2.158660
1.620	3.944930	1.874675	629.518624	-13.519280	-12.233828	-0.433914	1.943362	-2.147558
1.630	4.108943	1.883714	628.190983	-13.422328	-12.467428	-0.416372	1.984656	-2.136664
1.640	4.288894	1.838301	627.301228	-13.331940	-12.718420	-0.394046	2.027482	-2.125285
1.650	4.490158	1.776797	626.783411	-13.245480	-12.982390	-0.368932	2.071272	-2.113247
1.660	4.708294	1.741353	626.532957	-13.162501	-13.252321	-0.343998	2.115183	-2.100847
1.670	4.931233	1.766747	626.445064	-13.084746	-13.519785	-0.322483	2.158176	-2.088730
1.680	5.143771	1.871635	626.446684	-13.016004	-13.776370	-0.306926	2.199129	-2.077751
1.690	5.332544	2.055067	626.511073	-12.961846	-14.015225	-0.298303	2.237028	-2.068893
1.700	5.490038	2.298644	626.652395	-12.929051	-14.232399	-0.295672	2.271179	-2.063193
1.710	5.616859	2.572338	626.906900	-12.924646	-14.427592	-0.296432	2.301393	-2.061653
1.720	5.721907	2.841077	627.311156	-12.954843	-14.603967	-0.297080	2.328026	-2.065138
1.730	5.820177	3.070061	627.885612	-13.024342	-14.766991	-0.294118	2.351860	-2.074318
1.740	5.927981	3.228362	628.627060	-13.136311	-14.922642	-0.284848	2.373847	-2.089683
1.750	6.056124	3.291573	629.509616	-13.292817	-15.075646	-0.267936	2.394824	-2.111615
1.760	6.203289	3.244188	630.491219	-13.495136	-15.228430	-0.243664	2.415328	-2.140416
1.770	6.353289	3.081577	631.521631	-13.743465	-15.381138	-0.213765	2.435568	-2.176246
1.780	6.479344	2.810791	632.548710	-14.036157	-15.532598	-0.180758	2.455558	-2.218984
1.790	6.555129	2.449619	633.522050	-14.368946	-15.681575	-0.146934	2.475301	-2.268105
1.800	6.567879	2.023955	634.395194	-14.734655	-15.827596	-0.113418	2.494911	-2.322630
1.810	6.526655	1.563970	635.127464	-15.123681	-15.970936	-0.079820	2.514603	-2.381204
1.820	6.461084	1.099612	635.684186	-15.525255	-16.111921	-0.044713	2.534580	-2.442291
1.830	6.411107	0.656010	636.033290	-15.929165	-16.250029	-0.006685	2.554902	-2.504455
1.840	6.412750	0.249511	636.139402	-16.327343	-16.383322	0.034577	2.575429	-2.566630
1.850	6.486233	-0.114598	635.961166	-16.714746	-16.508518	0.077677	2.595837	-2.628265
1.860	6.630772	-0.441609	635.458335	-17.089400	-16.621688	0.119625	2.615701	-2.689303
1.870	6.826917	-0.743661	634.609911	-17.451832	-16.719329	0.156605	2.634584	-2.750009
1.880	7.044300	-1.033805	633.436410	-17.804184	-16.799494	0.185089	2.652120	-2.810729
1.890	7.251310	-1.320354	632.014246	-18.149165	-16.862669	0.202914	2.668084	-2.871639
1.900	7.423545	-1.604144	630.472036	-18.488891	-16.912072	0.209995	2.682446	-2.932547
1.910	7.548866	-1.879560	628.966433	-18.823719	-16.953030	0.208473	2.695379	-2.992802
1.920	7.627910	-2.137998	627.644833	-19.151318	-16.991326	0.202258	2.707156	-3.051299
1.930	7.670066	-2.371298	626.608911	-19.466289	-17.030959	0.196055	2.717957	-3.106609
1.940	7.686517	-2.573307	625.893548	-19.760713	-17.072345	0.194130	2.727675	-3.157200
1.950	7.683456	-2.739390	625.470068	-20.025845	-17.112015	0.199097	2.735865	-3.201727
1.960	7.658723	-2.865314	625.273268	-20.254763	-17.144225	0.211056	2.741877	-3.239346
1.970	7.603529	-2.947408	625.241497	-20.445154	-17.163834	0.227448	2.745153	-3.269961
1.980	7.508574	-2.984853	625.352022	-20.601056	-17.169046	0.243820	2.745501	-3.294313
1.990	7.371747	-2.983128	625.634580	-20.732575	-17.162547	0.255370	2.743222	-3.313847
2.000	7.203477	-2.956340	626.156190	-20.853515	-17.150493	0.258703	2.739012	-3.330401
2.010	7.026249	-2.926382	626.985058	-20.977884	-17.140014	0.253025	2.733720	-3.345835
2.020	6.867409	-2.918401	628.151616	-21.116728	-17.136704	0.240178	2.728116	-3.361725
2.030	6.748180	-2.953844	629.624595	-21.276421	-17.143265	0.223483	2.722776	-3.379223
2.040	6.674578	-3.043665	631.311138	-21.458709	-17.159619	0.206060	2.718092	-3.399070
2.050	6.635456	-3.184512	633.078187	-21.661970	-17.184043	0.189563	2.714363	-3.421690
2.060	6.609203	-3.359665	634.783563	-21.882670	-17.214567	0.173978	2.711880	-3.447265
2.070	6.575801	-3.544406	636.302973	-22.116119	-17.249980	0.158409	2.710970	-3.475722
2.080	6.527955	-3.713590	637.544029	-22.356326	-17.290088	0.142204	2.711983	-3.506632
2.090	6.475439	-3.848491	638.446557	-22.595543	-17.335202	0.125675	2.715216	-3.539144
2.100	6.440598	-3.940811	638.974775	-22.824479	-17.385173	0.110103	2.720792	-3.572047
2.110	6.447558	-3.993029	639.108107	-23.033673	-17.438482	0.097233	2.728565	-3.604034
2.120	6.510682	-4.015556	638.835202	-23.215581	-17.491854	0.088654	2.738085	-3.634049
2.130	6.627663	-4.022183	638.152973	-23.366207	-17.540561	0.085330	2.748645	-3.661537
2.140	6.780158	-4.025846	637.070152	-23.485222	-17.579208	0.087304	2.759383	-3.686442
2.150	6.941323	-4.036223	635.612762	-23.574565	-17.602637	0.093637	2.769396	-3.708951
2.160	7.086438	-4.059207	633.828232	-23.636488	-17.606700	0.102587	2.777835	-3.729163
2.170	7.201614	-4.097281	631.786601	-23.672365	-17.588724	0.112002	2.783966	-3.746893
2.180	7.286860	-4.149840	629.579523	-23.682967	-17.547562	0.119761	2.787188	-3.761712
2.190	7.352741	-4.213139	627.317731	-23.669940	-17.483245	0.124162	2.786984	-3.773198
2.200	7.412765	-4.280115	625.126023	-23.637439	-17.396497	0.124198	2.782878	-3.781228
2.210	7.475226	-4.340786	623.134517	-23.592678	-17.288334	0.119698	2.774414	-3.786129
2.220	7.537992	-4.383823	621.466670	-23.544793	-17.159770	0.111272	2.761173	-3.788585
2.230	7.588073	-4.399172	620.226258	-23.502384	-17.011596	0.100031	2.742805	-3.789324
2.240	7.605821	-4.380884	619.485974	-23.470905	-16.844231	0.087111	2.719066	-3.788771
2.250	7.571910	-4.329040	619.279890	-23.451121	-16.657762	0.073145	2.689860	-3.786837
2.260	7.474362	-4.249892	619.601442	-23.439315	-16.452231	0.058000	2.655293	-3.782966
2.270	7.313001	-4.153729	620.407526	-23.429046	-16.228130	0.040992	2.615721	-3.776396
2.280	7.099886	-4.050819	621.628027	-23.413635	-15.986896	0.021548	2.571779	-3.766502
2.290	6.855667	-3.946957	623.178633	-23.388343	-15.731201	-0.000085	2.524349	-3.753072
2.300	6.603153	-3.840935	624.973585	-23.351577	-15.464920	-0.022542	2.474492	-3.736410
2.310	6.360293	-3.725607	626.935007	-23.305026	-15.192816	-0.043722	2.423348	-3.717295
