Time[s]	Fx[N]	Fy[N]	Fz[N]	Mx[Nm]	My[Nm]	Mz[Nm]	COPx[cm]	COPy[cm]
0.010	5.615157	1.844395	533.279555	-4.774219	-1.155256	0.104235	0.216632	-0.895256
0.020	5.667492	1.871690	533.383908	-4.805983	-1.137080	0.106494	0.213182	-0.901036
0.030	5.712932	1.891617	533.477993	-4.838016	-1.122140	0.109068	0.210344	-0.906882
0.040	5.747327	1.900393	533.555453	-4.870413	-1.112770	0.112257	0.208558	-0.912822
0.050	5.770639	1.899173	533.617475	-4.902767	-1.110090	0.116074	0.208031	-0.918779
0.060	5.786613	1.892790	533.671346	-4.934228	-1.113996	0.120290	0.208742	-0.924582
0.070	5.801011	1.886604	533.726441	-4.963918	-1.123600	0.124621	0.210520	-0.930049
0.080	5.819317	1.883319	533.790021	-4.991528	-1.137872	0.128941	0.213169	-0.935111
0.090	5.844896	1.881379	533.864343	-5.017644	-1.156231	0.133373	0.216578	-0.939872
0.100	5.878266	1.875570	533.945314	-5.043489	-1.178862	0.138146	0.220783	-0.944570
0.110	5.917617	1.859439	534.022497	-5.070216	-1.206689	0.143285	0.225962	-0.949439
0.120	5.960117	1.828325	534.080522	-5.098255	-1.241017	0.148329	0.232365	-0.954585
0.130	6.003292	1.781548	534.102238	-5.127160	-1.282943	0.152294	0.240205	-0.959959
0.140	6.045961	1.722661	534.073678	-5.155941	-1.332725	0.153994	0.249540	-0.965399
0.150	6.088503	1.657776	533.989875	-5.183527	-1.389320	0.152642	0.260177	-0.970716
0.160	6.132491	1.593074	533.859219	-5.209096	-1.450289	0.148441	0.271661	-0.975743
0.170	6.179762	1.532852	533.703720	-5.232202	-1.512176	0.142767	0.283336	-0.980357
0.180	6.231190	1.478935	533.554367	-5.252857	-1.571277	0.137737	0.294492	-0.984503
0.190	6.285768	1.431424	533.443222	-5.271629	-1.624600	0.135340	0.304550	-0.988227
0.200	6.340682	1.390147	533.394936	-5.289717	-1.670655	0.136613	0.313212	-0.991707
0.210	6.392497	1.355820	533.419905	-5.308840	-1.709794	0.141234	0.320534	-0.995246
0.220	6.438877	1.329986	533.510785	-5.330783	-1.743973	0.147650	0.326886	-0.999189
0.230	6.479892	1.313582	533.643555	-5.356671	-1.776022	0.153564	0.332811	-1.003792
0.240	6.518190	1.305125	533.783317	-5.386258	-1.808652	0.156584	0.338836	-1.009072
0.250	6.557875	1.299942	533.893597	-5.417627	-1.843527	0.154870	0.345299	-1.014739
0.260	6.602656	1.291207	533.946609	-5.447520	-1.880726	0.147642	0.352231	-1.020237
0.270	6.654166	1.272409	533.931161	-5.472235	-1.918828	0.135452	0.359377	-1.024895
0.280	6.711132	1.240208	533.855230	-5.488785	-1.955657	0.120090	0.366327	-1.028141
0.290	6.769493	1.196452	533.741908	-5.495890	-1.989304	0.104144	0.372709	-1.029691
0.300	6.823254	1.148334	533.620202	-5.494368	-2.018855	0.090323	0.378332	-1.029640
0.310	6.865860	1.106310	533.514724	-5.486766	-2.044387	0.080709	0.383192	-1.028419
0.320	6.891893	1.080290	533.438782	-5.476426	-2.066319	0.076165	0.387358	-1.026627
0.330	6.898685	1.075564	533.393262	-5.466422	-2.084671	0.076088	0.390832	-1.024839
0.340	6.887295	1.090254	533.370631	-5.458741	-2.098876	0.078661	0.393512	-1.023442
0.350	6.862470	1.115653	533.361413	-5.453824	-2.108318	0.081522	0.395289	-1.022538
0.360	6.831585	1.139478	533.360016	-5.450500	-2.113109	0.082605	0.396188	-1.021918
0.370	6.802851	1.150726	533.367282	-5.446401	-2.114371	0.080774	0.396419	-1.021135
0.380	6.783325	1.144050	533.388839	-5.438996	-2.113763	0.076049	0.396289	-1.019706
0.390	6.777319	1.121877	533.430949	-5.426969	-2.112632	0.069422	0.396046	-1.017370
0.400	6.785667	1.093403	533.496784	-5.411174	-2.111460	0.062418	0.395777	-1.014284
0.410	6.805898	1.070971	533.584660	-5.394410	-2.109953	0.056565	0.395430	-1.010975
0.420	6.833091	1.065342	533.687607	-5.380017	-2.107526	0.052957	0.394899	-1.008084
0.430	6.861196	1.081784	533.793400	-5.370140	-2.103691	0.051995	0.394102	-1.006033
0.440	6.884613	1.118478	533.885326	-5.364742	-2.098034	0.053374	0.392975	-1.004849
0.450	6.899739	1.167773	533.944894	-5.361887	-2.089847	0.056251	0.391397	-1.004202
0.460	6.905947	1.219594	533.956787	-5.359001	-2.077753	0.059528	0.389124	-1.003639
0.470	6.905480	1.265386	533.914294	-5.354273	-2.059693	0.062180	0.385772	-1.002834
0.480	6.902132	1.300748	533.822337	-5.347453	-2.033456	0.063589	0.380924	-1.001729
0.490	6.899236	1.325691	533.696513	-5.339750	-1.997654	0.063781	0.374305	-1.000522
0.500	6.897901	1.342797	533.558922	-5.333087	-1.952691	0.063431	0.365975	-0.999531
0.510	6.896327	1.354762	533.432659	-5.329079	-1.901125	0.063551	0.356395	-0.999016
0.520	6.890486	1.362897	533.336602	-5.328075	-1.847023	0.065007	0.346315	-0.999008
0.530	6.875811	1.367280	533.281795	-5.328635	-1.794508	0.068115	0.336503	-0.999216
0.540	6.849059	1.368068	533.270406	-5.327821	-1.746203	0.072564	0.327452	-0.999084
0.550	6.809438	1.366830	533.297574	-5.322327	-1.702262	0.077682	0.319195	-0.998003
0.560	6.758509	1.366879	533.355437	-5.309947	-1.660400	0.082867	0.311312	-0.995574
0.570	6.699155	1.372308	533.437282	-5.290566	-1.616859	0.087903	0.303102	-0.991788
0.580	6.634574	1.386231	533.539056	-5.266140	-1.567894	0.092983	0.293867	-0.987020
0.590	6.568030	1.409130	533.656593	-5.239716	-1.511151	0.098462	0.283169	-0.981852
0.600	6.503131	1.438172	533.780092	-5.214114	-1.446299	0.104534	0.270954	-0.976828
0.610	6.443763	1.467912	533.890429	-5.190963	-1.374683	0.111068	0.257484	-0.972290
0.620	6.393109	1.492248	533.961765	-5.170543	-1.298295	0.117719	0.243144	-0.968336
0.630	6.352072	1.506889	533.970950	-5.152335	-1.218694	0.124159	0.228232	-0.964909
0.640	6.317978	1.511338	533.908965	-5.135831	-1.136460	0.130181	0.212857	-0.961930
0.650	6.284469	1.509515	533.787303	-5.121075	-1.051388	0.135563	0.196968	-0.959385
0.660	6.242967	1.508624	533.635104	-5.108582	-0.963238	0.139866	0.180505	-0.957317
0.670	6.185302	1.516587	533.488880	-5.098738	-0.872514	0.142388	0.163549	-0.955735
0.680	6.106533	1.539006	533.380897	-5.091161	-0.780754	0.142404	0.146378	-0.954508
0.690	6.006843	1.576972	533.331720	-5.084482	-0.690083	0.139570	0.129391	-0.953343
0.700	5.891760	1.626581	533.348425	-5.076692	-0.602312	0.134225	0.112930	-0.951853
0.710	5.770589	1.680221	533.426396	-5.065773	-0.518119	0.127396	0.097130	-0.949667
0.720	5.653779	1.728960	533.551742	-5.050267	-0.436859	0.120511	0.081878	-0.946537
0.730	5.550500	1.765131	533.702802	-5.029572	-0.357160	0.114973	0.066921	-0.942392
0.740	5.467436	1.784304	533.851569	-5.003948	-0.278016	0.111800	0.052077	-0.937329
0.750	5.408866	1.786100	533.967231	-4.974342	-0.199762	0.111430	0.037411	-0.931582
0.760	5.377281	1.773817	534.022803	-4.942127	-0.124382	0.113698	0.023291	-0.925452
0.770	5.373476	1.753252	534.002907	-4.908767	-0.054970	0.117914	0.010294	-0.919240
0.780	5.395626	1.731268	533.908627	-4.875441	0.005354	0.123038	-0.001003	-0.913160
0.790	5.437997	1.714526	533.756296	-4.842791	0.054549	0.127917	-0.010220	-0.907304
0.800	5.490688	1.708389	533.570676	-4.810982	0.092326	0.131565	-0.017303	-0.901658
0.810	5.541241	1.715886	533.376751	-4.780026	0.120169	0.133401	-0.022530	-0.896182
0.820	5.577506	1.736887	533.195073	-4.750138	0.140682	0.133393	-0.026385	-0.890882
0.830	5.590257	1.767957	533.042198	-4.721974	0.156565	0.132065	-0.029372	-0.885854
0.840	5.574439	1.803235	532.933180	-4.696653	0.169679	0.130361	-0.031839	-0.881284
0.850	5.529105	1.836230	532.881654	-4.675591	0.180614	0.129340	-0.033894	-0.877416
0.860	5.456803	1.861939	532.895926	-4.660158	0.188843	0.129766	-0.035437	-0.874497
0.870	5.363032	1.878417	532.973591	-4.651230	0.193219	0.131770	-0.036253	-0.872694
0.880	5.255820	1.887018	533.098875	-4.648726	0.192546	0.134800	-0.036118	-0.872020
0.890	5.145138	1.891229	533.245281	-4.651209	0.185977	0.137902	-0.034876	-0.872246
0.900	5.041904	1.894868	533.382875	-4.655754	0.173120	0.140208	-0.032457	-0.872873
0.910	4.956695	1.900706	533.487243	-4.658283	0.153871	0.141345	-0.028843	-0.873176
0.920	4.898585	1.909997	533.546537	-4.654404	0.128141	0.141556	-0.024017	-0.872352
0.930	4.874380	1.922670	533.563674	-4.640559	0.095692	0.141524	-0.017934	-0.869729
0.940	4.888099	1.937770	533.552476	-4.615078	0.056183	0.142032	-0.010530	-0.864972
0.950	4.940376	1.954027	533.529460	-4.578805	0.009366	0.143620	-0.001755	-0.858210
0.960	5.027765	1.970461	533.505733	-4.535049	-0.044660	0.146353	0.008371	-0.850047
0.970	5.142395	1.986652	533.483795	-4.488844	-0.105237	0.149742	0.019726	-0.841421
0.980	5.272551	2.002343	533.460853	-4.445757	-0.171085	0.152886	0.032071	-0.833380
0.990	5.404480	2.016572	533.435261	-4.410596	-0.240482	0.154817	0.045082	-0.826829
1.000	5.525073	2.027102	533.410361	-4.386328	-0.311666	0.154929	0.058429	-0.822318
1.010	5.624575	2.030930	533.392948	-4.373432	-0.383241	0.153240	0.071850	-0.819927
1.020	5.698291	2.025880	533.388799	-4.369888	-0.454350	0.150318	0.085182	-0.819269
1.030	5.746765	2.012308	533.399673	-4.371930	-0.524515	0.146934	0.098334	-0.819635
1.040	5.774539	1.993706	533.423381	-4.375391	-0.593328	0.143679	0.111230	-0.820247
1.050	5.788165	1.975767	533.455174	-4.377182	-0.660320	0.140750	0.123782	-0.820534
1.060	5.794330	1.964514	533.488364	-4.376262	-0.725142	0.137945	0.135925	-0.820311
1.070	5.798662	1.964445	533.514552	-4.373718	-0.787878	0.134779	0.147677	-0.819794
1.080	5.805407	1.977312	533.525392	-4.371929	-0.849190	0.130690	0.159166	-0.819442
1.090	5.817749	2.001738	533.516476	-4.373195	-0.910104	0.125308	0.170586	-0.819693
1.100	5.838342	2.033552	533.491191	-4.378451	-0.971591	0.118687	0.182119	-0.820717
1.110	5.869404	2.066720	533.461502	-4.386682	-1.034198	0.111361	0.193866	-0.822305
1.120	5.911974	2.094783	533.444397	-4.395402	-1.097927	0.104153	0.205818	-0.823966
1.130	5.964715	2.112627	533.455224	-4.401986	-1.162306	0.097841	0.217883	-0.825184
1.140	6.023336	2.118054	533.500839	-4.405130	-1.226532	0.092910	0.229903	-0.825702
1.150	6.081540	2.112440	533.575787	-4.405610	-1.289646	0.089516	0.241699	-0.825676
1.160	6.133166	2.100041	533.663877	-4.405991	-1.350804	0.087596	0.253119	-0.825612
1.170	6.174257	2.086123	533.745169	-4.409511	-1.409535	0.086915	0.264084	-0.826145
1.180	6.203984	2.074684	533.805227	-4.418772	-1.465779	0.087019	0.274591	-0.827787
1.190	6.224364	2.066819	533.841164	-4.434925	-1.519615	0.087232	0.284657	-0.830757
1.200	6.239383	2.060657	533.860229	-4.457642	-1.570919	0.086828	0.294257	-0.834983
1.210	6.253943	2.053000	533.871698	-4.485661	-1.619248	0.085355	0.303303	-0.840213
1.220	6.272702	2.041774	533.878062	-4.517390	-1.664054	0.082891	0.311692	-0.846146
1.230	6.298913	2.027749	533.871992	-4.551195	-1.705023	0.080080	0.319369	-0.852488
1.240	6.333584	2.014352	533.840942	-4.585451	-1.742306	0.077926	0.326372	-0.858955
1.250	6.375298	2.005632	533.775904	-4.618686	-1.776496	0.077437	0.332817	-0.865286
1.260	6.420651	2.003667	533.679143	-4.649902	-1.808388	0.079261	0.338853	-0.871292
1.270	6.465070	2.007162	533.567328	-4.678824	-1.838677	0.083422	0.344601	-0.876895
1.280	6.503721	2.012122	533.468864	-4.705778	-1.867832	0.089301	0.350130	-0.882109
1.290	6.532255	2.014062	533.416253	-4.731256	-1.896196	0.095867	0.355482	-0.886973
1.300	6.547280	2.010274	533.435936	-4.755573	-1.924159	0.102079	0.360710	-0.891498
1.310	6.546839	2.000720	533.538866	-4.778907	-1.952221	0.107240	0.365900	-0.895700
1.320	6.531245	1.987184	533.714512	-4.801594	-1.980917	0.111106	0.371157	-0.899656
1.330	6.504194	1.971557	533.930254	-4.824327	-2.010686	0.113739	0.376582	-0.903550
1.340	6.473214	1.954503	534.137789	-4.848095	-2.041762	0.115225	0.382254	-0.907649
1.350	6.448402	1.935256	534.286642	-4.873972	-2.074113	0.115474	0.388202	-0.912239
1.360	6.439232	1.912504	534.340883	-4.902939	-2.107418	0.114219	0.394396	-0.917568
1.370	6.450595	1.885749	534.291507	-4.935823	-2.141056	0.111223	0.400728	-0.923807
1.380	6.480027	1.856302	534.158238	-4.973269	-2.174085	0.106563	0.407011	-0.931048
1.390	6.517820	1.827205	533.980553	-5.015649	-2.205241	0.100855	0.412981	-0.939294
1.400	6.550337	1.801956	533.803232	-5.062956	-2.233109	0.095228	0.418339	-0.948469
1.410	6.565078	1.782572	533.662955	-5.114805	-2.256586	0.090969	0.422849	-0.958434
1.420	6.555226	1.768015	533.580129	-5.170555	-2.275565	0.088964	0.426471	-0.969031
1.430	6.521813	1.753940	533.557104	-5.229348	-2.291422	0.089239	0.429461	-0.980091
1.440	6.472935	1.734216	533.581423	-5.289918	-2.306907	0.090833	0.432344	-0.991398
1.450	6.420565	1.703693	533.631554	-5.350371	-2.325301	0.092077	0.435750	-1.002634
1.460	6.376325	1.660873	533.682953	-5.408358	-2.349238	0.091147	0.440194	-1.013403
1.470	6.347897	1.608970	533.713565	-5.461816	-2.379802	0.086733	0.445895	-1.023361
1.480	6.337393	1.554599	533.708419	-5.509968	-2.416349	0.078632	0.452747	-1.032393
1.490	6.341967	1.504673	533.662748	-5.553946	-2.457026	0.068031	0.460408	-1.040722
1.500	6.355907	1.463201	533.582950	-5.596590	-2.499525	0.057305	0.468442	-1.048870
1.510	6.373007	1.429819	533.485213	-5.641332	-2.541600	0.049298	0.476414	-1.057449
1.520	6.388287	1.400778	533.392342	-5.690626	-2.581201	0.046316	0.483922	-1.066874
1.530	6.398764	1.371626	533.329525	-5.744675	-2.616467	0.049241	0.490591	-1.077134
1.540	6.403504	1.339806	533.319231	-5.801105	-2.645886	0.057133	0.496117	-1.087736
1.550	6.403294	1.305629	533.375035	-5.855655	-2.668743	0.067536	0.500350	-1.097850
1.560	6.400186	1.271368	533.495138	-5.903528	-2.685610	0.077419	0.503399	-1.106576
1.570	6.397127	1.239441	533.658567	-5.940899	-2.698537	0.084350	0.505667	-1.113240
1.580	6.397666	1.210962	533.828001	-5.966179	-2.710739	0.087333	0.507793	-1.117622
1.590	6.405465	1.185264	533.960247	-5.980569	-2.725796	0.086914	0.510487	-1.120040
1.600	6.423583	1.160331	534.020069	-5.987620	-2.746613	0.084579	0.514328	-1.121235
1.610	6.453786	1.133771	533.990366	-5.991934	-2.774535	0.081880	0.519585	-1.122105
1.620	6.496116	1.103945	533.874697	-5.997621	-2.808946	0.079791	0.526143	-1.123414
1.630	6.548405	1.070825	533.693391	-6.007134	-2.847539	0.078494	0.533553	-1.125578
1.640	6.605406	1.036190	533.477085	-6.020807	-2.887137	0.077540	0.541192	-1.128597
1.650	6.658025	1.003042	533.260739	-6.037133	-2.924750	0.076216	0.548465	-1.132116
1.660	6.694071	0.974622	533.079284	-6.053636	-2.958464	0.073980	0.554976	-1.135598
1.670	6.701476	0.953629	532.964318	-6.068009	-2.987813	0.070802	0.560603	-1.138539
1.680	6.673102	0.941923	532.940248	-6.079070	-3.013523	0.067295	0.565452	-1.140666
1.690	6.610709	0.940372	533.018828	-6.087148	-3.036877	0.064504	0.569750	-1.142014
1.700	6.525791	0.948449	533.193395	-6.093721	-3.059182	0.063402	0.573747	-1.142873
1.710	6.436718	0.963797	533.436489	-6.100557	-3.081628	0.064322	0.577693	-1.143633
1.720	6.363515	0.982424	533.704215	-6.108834	-3.105430	0.066668	0.581864	-1.144610
1.730	6.322306	0.999887	533.947068	-6.118630	-3.131928	0.069108	0.586562	-1.145925
1.740	6.321231	1.012944	534.122933	-6.128860	-3.162454	0.070219	0.592084	-1.147462
1.750	6.358913	1.020648	534.206579	-6.137598	-3.198086	0.069269	0.598661	-1.148918
1.760	6.425804	1.024170	534.192382	-6.142713	-3.239479	0.066744	0.606426	-1.149907
1.770	6.507800	1.025459	534.091122	-6.142643	-3.286879	0.064294	0.615415	-1.150111
1.780	6.590749	1.025649	533.924421	-6.137005	-3.340219	0.064053	0.625598	-1.149415
1.790	6.664240	1.024360	533.719903	-6.126786	-3.399109	0.067652	0.636871	-1.147940
1.800	6.723539	1.020475	533.508117	-6.114009	-3.462581	0.075431	0.649021	-1.146001
1.810	6.769385	1.013802	533.320633	-6.101031	-3.528689	0.086237	0.661645	-1.143971
1.820	6.806193	1.006329	533.187998	-6.089826	-3.594236	0.097882	0.674103	-1.142154
1.830	6.839662	1.002093	533.136086	-6.081582	-3.655002	0.108003	0.685566	-1.140719
1.840	6.874666	1.005644	533.180003	-6.076636	-3.706593	0.114906	0.695186	-1.139697
1.850	6.913893	1.019889	533.316896	-6.074497	-3.745680	0.118040	0.702337	-1.139003
1.860	6.957297	1.044436	533.521783	-6.073812	-3.771151	0.117987	0.706841	-1.138437
1.870	7.002364	1.075290	533.750737	-6.072472	-3.784677	0.116079	0.709072	-1.137698
1.880	7.045257	1.106159	533.952171	-6.068111	-3.790453	0.113885	0.709886	-1.136452
1.890	7.082621	1.130862	534.082286	-6.058934	-3.794143	0.112719	0.710404	-1.134457
1.900	7.113206	1.145870	534.118473	-6.044478	-3.801375	0.113307	0.711710	-1.131674
1.910	7.138289	1.151913	534.065484	-6.025876	-3.816244	0.115664	0.714565	-1.128303
1.920	7.160536	1.153982	533.951983	-6.005457	-3.840280	0.119216	0.719218	-1.124719
1.930	7.181998	1.159715	533.818670	-5.985821	-3.872128	0.123072	0.725364	-1.121321
1.940	7.202492	1.176804	533.702830	-5.968823	-3.908009	0.126321	0.732244	-1.118380
1.950	7.219317	1.210290	533.626372	-5.954917	-3.942833	0.128265	0.738875	-1.115934
1.960	7.228320	1.260542	533.592762	-5.943135	-3.971690	0.128553	0.744330	-1.113796
1.970	7.225669	1.322629	533.593231	-5.931598	-3.991295	0.127192	0.748003	-1.111633
1.980	7.209467	1.387632	533.617461	-5.918182	-4.000918	0.124494	0.749773	-1.109068
1.990	7.180615	1.445753	533.661853	-5.901095	-4.002472	0.120985	0.750002	-1.105774
2.000	7.142696	1.489963	533.730483	-5.879263	-3.999766	0.117356	0.749398	-1.101542
2.010	7.100993	1.518391	533.828473	-5.852571	-3.997240	0.114410	0.748787	-1.096339
2.020	7.061139	1.534332	533.952502	-5.821902	-3.998661	0.112994	0.748880	-1.090341
2.030	7.027975	1.544121	534.085510	-5.788959	-4.006208	0.113832	0.750106	-1.083901
2.040	7.004972	1.554085	534.200102	-5.755823	-4.020106	0.117242	0.752547	-1.077466
2.050	6.994213	1.567962	534.268858	-5.724305	-4.038801	0.122867	0.755949	-1.071428
2.060	6.996658	1.585693	534.274902	-5.695328	-4.059545	0.129616	0.759823	-1.065992
2.070	7.012300	1.603924	534.217104	-5.668682	-4.079257	0.135966	0.763595	-1.061120
2.080	7.039989	1.617968	534.109324	-5.643313	-4.095390	0.140513	0.766770	-1.056584
2.090	7.076945	1.624464	533.976314	-5.617966	-4.106493	0.142481	0.769040	-1.052100
2.100	7.118420	1.623549	533.848132	-5.591781	-4.112221	0.141913	0.770298	-1.047448
2.110	7.158061	1.619421	533.753366	-5.564588	-4.112871	0.139480	0.770556	-1.042539
2.120	7.189216	1.618910	533.712086	-5.536934	-4.108775	0.136116	0.769849	-1.037438
2.130	7.206880	1.628717	533.730883	-5.509969	-4.099859	0.132720	0.768151	-1.032350
2.140	7.209507	1.652500	533.802128	-5.485194	-4.085581	0.130016	0.765374	-1.027571
2.150	7.199747	1.689007	533.907390	-5.464096	-4.065267	0.128473	0.761418	-1.023416
2.160	7.183403	1.732119	534.022811	-5.447773	-4.038674	0.128195	0.756274	-1.020139
2.170	7.166972	1.773093	534.123939	-5.436774	-4.006507	0.128820	0.750108	-1.017886
2.180	7.155142	1.804288	534.189045	-5.431233	-3.970544	0.129587	0.743284	-1.016725
2.190	7.149593	1.822631	534.201733	-5.431154	-3.933241	0.129609	0.736284	-1.016686
2.200	7.149378	1.830843	534.153875	-5.436583	-3.896910	0.128211	0.729548	-1.017793
2.210	7.152152	1.835482	534.048352	-5.447436	-3.862786	0.125138	0.723303	-1.020027
2.220	7.155441	1.842827	533.899754	-5.463113	-3.830456	0.120562	0.717449	-1.023247
2.230	7.157496	1.854972	533.731992	-5.482239	-3.797946	0.114966	0.711583	-1.027152
2.240	7.157496	1.868462	533.573658	-5.502890	-3.762425	0.109037	0.705137	-1.031327
2.250	7.155143	1.876183	533.452593	-5.523264	-3.721113	0.103601	0.697553	-1.035381
2.260	7.149954	1.871380	533.390419	-5.542337	-3.671925	0.099523	0.688412	-1.039077
2.270	7.140730	1.851517	533.397398	-5.560016	-3.613663	0.097514	0.677480	-1.042378
2.280	7.125404	1.819998	533.468541	-5.576655	-3.545848	0.097858	0.664678	-1.045358
2.290	7.101301	1.784905	533.582621	-5.592267	-3.468501	0.100195	0.650040	-1.048060
2.300	7.065814	1.755418	533.705716	-5.606027	-3.382145	0.103523	0.633710	-1.050397
2.310	7.017444	1.737655	533.799840	-5.616423	-3.288082	0.106502	0.615977	-1.052159
2.320	6.956813	1.731952	533.835176	-5.621984	-3.188708	0.107976	0.597321	-1.053131
2.330	6.886998	1.732825	533.802509	-5.622140	-3.087476	0.107437	0.578393	-1.053225
2.340	6.812831	1.731549	533.720948	-5.617750	-2.988235	0.105199	0.559887	-1.052563
2.350	6.739374	1.720073	533.635517	-5.610973	-2.894095	0.102187	0.542336	-1.051462
2.360	6.670308	1.694554	533.601971	-5.604561	-2.806346	0.099469	0.525925	-1.050326
2.370	6.607062	1.656990	533.663099	-5.600893	-2.724045	0.097800	0.510443	-1.049519
2.380	6.549116	1.614202	533.827728	-5.601200	-2.644566	0.097355	0.495397	-1.049252
2.390	6.495156	1.574733	534.064007	-5.605206	-2.564862	0.097771	0.480254	-1.049538
2.400	6.444205	1.545328	534.310873	-5.611216	-2.482833	0.098395	0.464679	-1.050178
