Time[s]	Fx[N]	Fy[N]	Fz[N]	Mx[Nm]	My[Nm]	Mz[Nm]	COPx[cm]	COPy[cm]
0.010	6.327525	-0.932626	529.186788	3.024780	39.135389	1.352836	-7.395383	0.571590
0.020	6.336682	-1.005650	529.296984	2.954525	39.163882	1.355799	-7.399226	0.558198
0.030	6.341018	-1.067787	529.397008	2.891382	39.196813	1.359478	-7.404049	0.546165
0.040	6.336464	-1.111946	529.474182	2.840266	39.237048	1.363972	-7.410569	0.536431
0.050	6.319503	-1.136298	529.514294	2.802797	39.285813	1.368449	-7.419217	0.529315
0.060	6.287368	-1.143487	529.506133	2.777523	39.342878	1.371514	-7.430108	0.524550
0.070	6.238514	-1.138416	529.446909	2.761057	39.407162	1.371938	-7.443081	0.521498
0.080	6.173287	-1.126151	529.344424	2.749480	39.477318	1.369286	-7.457775	0.519412
0.090	6.094260	-1.110899	529.214525	2.739519	39.552124	1.364145	-7.473741	0.517658
0.100	6.005806	-1.095982	529.076388	2.729182	39.630691	1.357894	-7.490542	0.515839
0.110	5.912995	-1.084172	528.949038	2.717661	39.712551	1.352145	-7.507822	0.513785
0.120	5.820298	-1.077757	528.849849	2.704660	39.797617	1.348113	-7.525315	0.511423
0.130	5.730602	-1.078119	528.793078	2.689685	39.885989	1.346160	-7.542835	0.508646
0.140	5.644903	-1.085144	528.786682	2.671838	39.977560	1.345742	-7.560243	0.505277
0.150	5.562826	-1.097049	528.828483	2.650251	40.071410	1.345768	-7.577393	0.501155
0.160	5.483802	-1.111087	528.904965	2.624752	40.165201	1.345218	-7.594030	0.496262
0.170	5.408420	-1.124921	528.994750	2.596269	40.254914	1.343715	-7.609700	0.490793
0.180	5.339253	-1.137837	529.075179	2.566739	40.335213	1.341752	-7.623721	0.485137
0.190	5.280666	-1.150962	529.128431	2.538663	40.400337	1.340460	-7.635261	0.479782
0.200	5.237551	-1.166288	529.144849	2.514573	40.445154	1.341007	-7.643494	0.475215
0.210	5.213573	-1.185040	529.123675	2.496577	40.466046	1.343950	-7.647748	0.471832
0.220	5.209930	-1.206288	529.072558	2.486010	40.461506	1.348839	-7.647629	0.469881
0.230	5.225469	-1.226521	529.006416	2.483248	40.432455	1.354276	-7.643094	0.469417
0.240	5.258121	-1.240364	528.945068	2.487675	40.382243	1.358401	-7.634487	0.470309
0.250	5.306607	-1.242159	528.909031	2.497819	40.316193	1.359596	-7.622519	0.472259
0.260	5.371159	-1.227916	528.914185	2.511625	40.240626	1.357163	-7.608158	0.474864
0.270	5.452728	-1.197022	528.967232	2.526920	40.161508	1.351705	-7.592438	0.477708
0.280	5.551296	-1.153106	529.063921	2.542001	40.083214	1.345040	-7.576252	0.480472
0.290	5.664385	-1.103566	529.190605	2.556062	40.007926	1.339618	-7.560211	0.483013
0.300	5.786523	-1.057618	529.328006	2.569131	39.935928	1.337620	-7.544647	0.485357
0.310	5.909718	-1.023486	529.455399	2.581500	39.866565	1.340067	-7.529731	0.487576
0.320	6.024672	-1.005963	529.553977	2.593047	39.799394	1.346307	-7.515644	0.489666
0.330	6.122504	-1.005419	529.609331	2.602958	39.734952	1.354218	-7.502691	0.491486
0.340	6.196694	-1.018464	529.613727	2.610004	39.674826	1.361081	-7.491276	0.492813
0.350	6.244581	-1.039610	529.568698	2.613147	39.621084	1.364752	-7.481765	0.493448
0.360	6.267583	-1.063135	529.487084	2.612124	39.575423	1.364556	-7.474294	0.493331
0.370	6.270029	-1.084601	529.392309	2.607731	39.538495	1.361464	-7.468657	0.492589
0.380	6.257498	-1.101729	529.313203	2.601636	39.509686	1.357516	-7.464330	0.491512
0.390	6.235724	-1.114498	529.275483	2.595752	39.487406	1.354816	-7.460653	0.490435
0.400	6.210190	-1.124530	529.293819	2.591430	39.469717	1.354607	-7.457052	0.489601
0.410	6.185789	-1.134152	529.368624	2.588924	39.454966	1.356866	-7.453212	0.489059
0.420	6.166193	-1.145591	529.488922	2.587421	39.442123	1.360563	-7.449093	0.488664
0.430	6.153346	-1.160392	529.638798	2.585655	39.430646	1.364355	-7.444818	0.488192
0.440	6.147775	-1.178769	529.802767	2.582817	39.419960	1.367273	-7.440497	0.487505
0.450	6.149726	-1.198789	529.966900	2.579358	39.408844	1.369018	-7.436095	0.486702
0.460	6.160276	-1.215896	530.116528	2.577239	39.394992	1.369738	-7.431384	0.486165
0.470	6.181447	-1.223550	530.234158	2.579303	39.374937	1.369561	-7.425953	0.486446
0.480	6.215153	-1.215308	530.300620	2.587870	39.344379	1.368244	-7.419260	0.488001
0.490	6.261844	-1.187571	530.299257	2.603230	39.298909	1.365178	-7.410704	0.490898
0.500	6.319882	-1.141400	530.220569	2.623006	39.235067	1.359709	-7.399763	0.494701
0.510	6.386070	-1.082311	530.064849	2.642911	39.151517	1.351543	-7.386175	0.498601
0.520	6.456831	-1.018381	529.842097	2.658592	39.049938	1.340987	-7.370109	0.501771
0.530	6.529133	-0.957942	529.569896	2.667565	38.935198	1.328921	-7.352230	0.503723
0.540	6.600542	-0.907843	529.270811	2.670222	38.814644	1.316556	-7.333608	0.504510
0.550	6.668587	-0.872506	528.970819	2.669533	38.696778	1.305094	-7.315484	0.504665
0.560	6.730330	-0.853710	528.699050	2.669733	38.589778	1.295436	-7.299007	0.504963
0.570	6.782897	-0.850922	528.487326	2.674601	38.500230	1.288035	-7.284987	0.506086
0.580	6.824840	-0.861967	528.367332	2.686007	38.432173	1.282947	-7.273760	0.508360
0.590	6.857335	-0.883746	528.364559	2.703303	38.386537	1.280020	-7.265161	0.511636
0.600	6.884085	-0.912730	528.490260	2.723721	38.361091	1.279072	-7.258618	0.515378
0.610	6.909606	-0.945121	528.734373	2.743523	38.350990	1.279953	-7.253357	0.518885
0.620	6.936615	-0.976940	529.063130	2.759380	38.349836	1.282524	-7.248631	0.521560
0.630	6.964103	-1.004413	529.424179	2.769437	38.351003	1.286610	-7.243908	0.523104
0.640	6.987575	-1.024722	529.758959	2.773638	38.348921	1.291947	-7.238938	0.523566
0.650	7.001710	-1.036694	530.017982	2.773188	38.340038	1.298174	-7.233724	0.523225
0.660	7.003851	-1.041027	530.172485	2.769504	38.323272	1.304887	-7.228454	0.522378
0.670	6.995935	-1.040038	530.217700	2.763392	38.299929	1.311744	-7.223435	0.521181
0.680	6.983480	-1.037063	530.167810	2.755004	38.273188	1.318559	-7.219071	0.519648
0.690	6.972226	-1.035573	530.047058	2.744486	38.247365	1.325311	-7.215843	0.517782
0.700	6.964471	-1.038097	529.882342	2.732672	38.227087	1.332016	-7.214260	0.515713
0.710	6.957236	-1.045366	529.699840	2.721183	38.216519	1.338541	-7.214750	0.513722
0.720	6.943375	-1.056258	529.524542	2.711779	38.218717	1.344462	-7.217553	0.512116
0.730	6.915162	-1.068724	529.380021	2.705385	38.235179	1.349107	-7.222633	0.511048
0.740	6.868540	-1.081058	529.286438	2.701474	38.265675	1.351785	-7.229672	0.510399
0.750	6.805756	-1.092530	529.256561	2.698224	38.308447	1.352093	-7.238162	0.509814
0.760	6.735026	-1.103032	529.291338	2.693456	38.360619	1.350122	-7.247543	0.508880
0.770	6.667486	-1.112326	529.377592	2.685877	38.418580	1.346455	-7.257311	0.507365
0.780	6.613026	-1.119717	529.489513	2.675951	38.478233	1.341955	-7.267043	0.505383
0.790	6.576838	-1.124376	529.593659	2.665842	38.535293	1.337481	-7.276389	0.503375
0.800	6.557881	-1.125947	529.656281	2.658425	38.585803	1.333677	-7.285065	0.501915
0.810	6.549630	-1.125009	529.652185	2.655921	38.626783	1.330923	-7.292858	0.501446
0.820	6.542820	-1.123129	529.573580	2.658955	38.656724	1.329411	-7.299595	0.502094
0.830	6.529171	-1.122409	529.435137	2.666480	38.675705	1.329207	-7.305089	0.503646
0.840	6.504531	-1.124585	529.271201	2.676400	38.685099	1.330220	-7.309126	0.505676
0.850	6.469941	-1.129988	529.124752	2.686412	38.687029	1.332072	-7.311514	0.507709
0.860	6.430223	-1.136856	529.032695	2.694645	38.683760	1.333989	-7.312168	0.509353
0.870	6.391113	-1.141491	529.014231	2.699983	38.677214	1.334872	-7.311186	0.510380
0.880	6.356758	-1.139404	529.067015	2.702137	38.668743	1.333575	-7.308855	0.510736
0.890	6.328867	-1.127055	529.171582	2.701647	38.659171	1.329296	-7.305602	0.510543
0.900	6.307547	-1.103427	529.300955	2.699860	38.648978	1.321910	-7.301891	0.510080
0.910	6.292724	-1.070772	529.431045	2.698818	38.638433	1.312108	-7.298105	0.509758
0.920	6.285039	-1.034260	529.547874	2.700962	38.627653	1.301252	-7.294459	0.510051
0.930	6.285836	-1.000698	529.649275	2.708572	38.616628	1.290958	-7.290981	0.511390
0.940	6.296652	-0.976694	529.741183	2.723044	38.605232	1.282571	-7.287565	0.514033
0.950	6.318647	-0.966784	529.831035	2.744277	38.593210	1.276798	-7.284060	0.517953
0.960	6.352149	-0.972029	529.921789	2.770544	38.580172	1.273663	-7.280352	0.522821
0.970	6.396202	-0.989416	530.009240	2.799012	38.565646	1.272759	-7.276410	0.528106
0.980	6.448073	-1.012228	530.083442	2.826674	38.549169	1.273554	-7.272283	0.533251
0.990	6.502978	-1.031550	530.133097	2.851214	38.530353	1.275545	-7.268053	0.537830
1.000	6.554444	-1.038908	530.150644	2.871334	38.508873	1.278191	-7.263761	0.541607
1.010	6.595627	-1.029450	530.135791	2.886479	38.484433	1.280762	-7.259354	0.544479
1.020	6.621379	-1.004223	530.095772	2.896310	38.456732	1.282323	-7.254676	0.546375
1.030	6.630352	-0.969991	530.041839	2.900567	38.425515	1.281937	-7.249525	0.547234
1.040	6.626148	-0.936316	529.983611	2.899563	38.390690	1.279030	-7.243750	0.547104
1.050	6.616649	-0.911326	529.924669	2.894829	38.352424	1.273686	-7.237335	0.546272
1.060	6.611480	-0.898474	529.861911	2.889201	38.311091	1.266688	-7.230392	0.545274
1.070	6.618636	-0.895857	529.788580	2.886061	38.267117	1.259313	-7.223092	0.544757
1.080	6.641846	-0.898080	529.699281	2.888187	38.220858	1.252963	-7.215577	0.545250
1.090	6.679739	-0.899293	529.595143	2.896872	38.172691	1.248797	-7.207900	0.546998
1.100	6.726742	-0.895818	529.486846	2.911679	38.123284	1.247456	-7.200044	0.549906
1.110	6.774964	-0.887416	529.393377	2.930765	38.073857	1.248957	-7.191978	0.553608
1.120	6.816252	-0.877037	529.336373	2.951503	38.026227	1.252774	-7.183755	0.557586
1.130	6.843945	-0.869220	529.332458	2.971197	37.982596	1.258047	-7.175565	0.561310
1.140	6.854152	-0.867702	529.386765	2.987759	37.945239	1.263831	-7.167772	0.564381
1.150	6.846572	-0.873279	529.489862	3.000175	37.916178	1.269251	-7.160888	0.566616
1.160	6.824787	-0.883033	529.619067	3.008588	37.896786	1.273556	-7.155480	0.568066
1.170	6.795645	-0.891469	529.743818	3.014033	37.887274	1.276154	-7.151999	0.568960
1.180	6.767342	-0.893045	529.833585	3.018032	37.886229	1.276663	-7.150590	0.569619
1.190	6.746523	-0.884770	529.866494	3.022240	37.890602	1.275006	-7.150971	0.570378
1.200	6.735687	-0.867491	529.836974	3.028170	37.896420	1.271489	-7.152468	0.571529
1.210	6.732418	-0.845429	529.759876	3.036963	37.900113	1.266790	-7.154206	0.573272
1.220	6.731117	-0.824578	529.667831	3.049160	37.899869	1.261804	-7.155403	0.575674
1.230	6.726423	-0.810786	529.600744	3.064462	37.896316	1.257364	-7.155639	0.578636
1.240	6.716385	-0.807994	529.591167	3.081543	37.892113	1.253978	-7.154974	0.581872
1.250	6.703540	-0.816943	529.652297	3.098111	37.890610	1.251788	-7.153865	0.584933
1.260	6.693322	-0.834935	529.773627	3.111381	37.894195	1.250742	-7.152903	0.587304
1.270	6.690802	-0.857076	529.924836	3.118936	37.903096	1.250855	-7.152542	0.588562
1.280	6.697522	-0.878484	530.065216	3.119612	37.915198	1.252314	-7.152931	0.588534
1.290	6.710007	-0.896119	530.154833	3.113979	37.926946	1.255355	-7.153938	0.587372
1.300	6.720700	-0.909319	530.163930	3.104238	37.934888	1.259977	-7.155313	0.585524
1.310	6.720946	-0.919190	530.078233	3.093700	37.937153	1.265676	-7.156897	0.583631
1.320	6.704624	-0.927738	529.899892	3.086042	37.934208	1.271414	-7.158750	0.582382
1.330	6.670708	-0.937315	529.645863	3.084375	37.928571	1.275926	-7.161119	0.582347
1.340	6.623737	-0.950154	529.346008	3.090258	37.923643	1.278300	-7.164245	0.583788
1.350	6.572264	-0.967430	529.041320	3.103019	37.922279	1.278538	-7.168113	0.586536
1.360	6.526062	-0.988045	528.780348	3.119871	37.925862	1.277778	-7.172328	0.590013
1.370	6.493077	-1.008247	528.611484	3.136908	37.934274	1.278006	-7.176211	0.593424
1.380	6.477112	-1.022940	528.571095	3.150572	37.946494	1.281355	-7.179071	0.596055
1.390	6.476970	-1.028139	528.671092	3.158972	37.961162	1.289243	-7.180487	0.597531
1.400	6.487397	-1.023038	528.891894	3.162548	37.976710	1.301710	-7.180430	0.597957
1.410	6.501521	-1.010459	529.185566	3.163851	37.991191	1.317231	-7.179181	0.597872
1.420	6.513968	-0.995572	529.488973	3.166531	38.002130	1.333133	-7.177133	0.598035
1.430	6.523353	-0.983638	529.741627	3.173950	38.006623	1.346475	-7.174559	0.599151
1.440	6.532857	-0.977728	529.901259	3.187978	38.001723	1.355042	-7.171473	0.601617
1.450	6.548459	-0.977289	529.952294	3.208466	37.985115	1.358050	-7.167648	0.605425
1.460	6.575811	-0.978295	529.905782	3.233518	37.955969	1.356271	-7.162777	0.610206
1.470	6.617570	-0.975240	529.792322	3.260302	37.915592	1.351602	-7.156690	0.615393
1.480	6.672636	-0.964122	529.651326	3.285963	37.867374	1.346304	-7.149491	0.620401
1.490	6.737449	-0.944684	529.520241	3.308267	37.815909	1.342249	-7.141542	0.624767
1.500	6.808318	-0.920406	529.426526	3.325870	37.765656	1.340396	-7.133314	0.628202
1.510	6.883187	-0.896317	529.383907	3.338348	37.719772	1.340588	-7.125221	0.630610
1.520	6.961724	-0.876133	529.393058	3.346204	37.679572	1.341683	-7.117504	0.632083
1.530	7.043838	-0.860501	529.445446	3.350856	37.644684	1.341963	-7.110210	0.632899
1.540	7.127808	-0.847143	529.527845	3.354420	37.613692	1.339742	-7.103251	0.633474
1.550	7.209340	-0.832434	529.625141	3.359145	37.584930	1.334022	-7.096515	0.634250
1.560	7.282164	-0.813251	529.720835	3.366687	37.557189	1.324965	-7.089997	0.635559
1.570	7.339910	-0.788231	529.796900	3.377625	37.530247	1.313986	-7.083893	0.637532
1.580	7.378347	-0.758256	529.835367	3.391489	37.505198	1.303352	-7.078651	0.640102
1.590	7.396819	-0.726408	529.822722	3.407180	37.484527	1.295398	-7.074919	0.643079
1.600	7.398072	-0.697542	529.755961	3.423402	37.471719	1.291649	-7.073393	0.646222
1.610	7.386523	-0.677384	529.647199	3.438825	37.470303	1.292281	-7.074578	0.649267
1.620	7.365950	-0.670974	529.523399	3.452072	37.482593	1.296166	-7.078553	0.651921
1.630	7.337916	-0.680622	529.419742	3.461781	37.508715	1.301415	-7.084873	0.653882
1.640	7.301675	-0.704119	529.368462	3.466879	37.546520	1.306077	-7.092701	0.654908
1.650	7.255475	-0.734315	529.387375	3.466989	37.592462	1.308673	-7.101126	0.654906
1.660	7.198459	-0.760879	529.472735	3.462789	37.642990	1.308486	-7.109524	0.654007
1.670	7.132077	-0.773934	529.599700	3.456087	37.695709	1.305640	-7.117774	0.652585
1.680	7.060201	-0.768079	529.730950	3.449412	37.749739	1.301043	-7.126210	0.651163
1.690	6.987945	-0.744832	529.830252	3.445133	37.805258	1.296148	-7.135353	0.650233
1.700	6.919999	-0.712198	529.874699	3.444476	37.862667	1.292529	-7.145589	0.650055
1.710	6.859486	-0.681495	529.860033	3.447002	37.921976	1.291357	-7.156980	0.650549
1.720	6.807862	-0.662858	529.797969	3.450838	37.982674	1.292965	-7.169275	0.651350
1.730	6.765546	-0.661458	529.708974	3.453538	38.043992	1.296690	-7.182055	0.651969
1.740	6.732415	-0.676038	529.615124	3.453087	38.105274	1.301107	-7.194899	0.651999
1.750	6.707551	-0.700158	529.535597	3.448563	38.166254	1.304579	-7.207496	0.651243
1.760	6.688514	-0.725315	529.484826	3.440202	38.227186	1.305887	-7.219694	0.649726
1.770	6.670940	-0.744538	529.471548	3.428951	38.288847	1.304684	-7.231521	0.647618
1.780	6.649057	-0.755053	529.497208	3.415943	38.352429	1.301543	-7.243179	0.645129
1.790	6.617079	-0.758976	529.554447	3.402282	38.419231	1.297558	-7.255011	0.642480
1.800	6.571065	-0.761808	529.628385	3.389195	38.490094	1.293731	-7.267378	0.639919
1.810	6.510632	-0.769491	529.701648	3.378174	38.564698	1.290506	-7.280457	0.637750
1.820	6.439870	-0.785483	529.760138	3.370701	38.641057	1.287702	-7.294066	0.636269
1.830	6.367030	-0.809110	529.795644	3.367566	38.715573	1.284827	-7.307643	0.635635
1.840	6.302798	-0.835707	529.804890	3.368219	38.783810	1.281506	-7.320395	0.635747
1.850	6.257355	-0.858365	529.788071	3.370707	38.841755	1.277742	-7.331565	0.636237
1.860	6.237008	-0.870627	529.749116	3.372376	38.887115	1.273951	-7.340666	0.636599
1.870	6.241768	-0.869154	529.696560	3.371037	38.920143	1.270865	-7.347630	0.636409
1.880	6.265157	-0.855244	529.642299	3.366033	38.943665	1.269387	-7.352824	0.635530
1.890	6.296516	-0.834442	529.597756	3.358704	38.962305	1.270329	-7.356962	0.634199
1.900	6.324784	-0.814418	529.570105	3.352099	38.981220	1.274023	-7.360918	0.632985
1.910	6.342087	-0.802163	529.561528	3.350006	39.004840	1.280024	-7.365497	0.632600
1.920	6.345723	-0.801839	529.571684	3.355592	39.036043	1.287184	-7.371248	0.633643
1.930	6.337974	-0.814081	529.600696	3.370130	39.075785	1.294140	-7.378349	0.636353
1.940	6.324222	-0.836623	529.649636	3.392329	39.122983	1.299942	-7.386578	0.640486
1.950	6.310460	-0.865417	529.717745	3.418637	39.174471	1.304425	-7.395348	0.645370
1.960	6.301234	-0.895432	529.798473	3.444416	39.225199	1.308126	-7.403796	0.650137
1.970	6.298608	-0.920978	529.877771	3.465506	39.268938	1.311814	-7.410943	0.654020
1.980	6.302265	-0.936135	529.937223	3.479515	39.299632	1.315917	-7.415903	0.656590
1.990	6.310500	-0.935834	529.961861	3.486413	39.313109	1.320204	-7.418102	0.657861
2.000	6.321606	-0.917574	529.948964	3.488289	39.308552	1.323876	-7.417422	0.658231
2.010	6.335083	-0.882975	529.912186	3.488446	39.289068	1.325947	-7.414260	0.658306
2.020	6.352182	-0.838074	529.877145	3.490157	39.260964	1.325678	-7.409447	0.658673
2.030	6.375729	-0.791699	529.869848	3.495599	39.231855	1.322849	-7.404055	0.659709
2.040	6.409443	-0.752389	529.904474	3.505387	39.208287	1.317811	-7.399124	0.661513
2.050	6.456993	-0.725355	529.977444	3.518778	39.193860	1.311337	-7.395383	0.663949
2.060	6.520737	-0.711052	530.069765	3.534233	39.188532	1.304383	-7.393089	0.666749
2.070	6.600024	-0.705929	530.153853	3.549909	39.189181	1.297871	-7.392039	0.669600
2.080	6.689553	-0.704574	530.199878	3.563965	39.190951	1.292559	-7.391731	0.672193
2.090	6.778962	-0.701852	530.180304	3.574800	39.188827	1.288989	-7.391604	0.674261
2.100	6.854772	-0.694116	530.074591	3.581349	39.179131	1.287446	-7.391249	0.675631
2.110	6.904462	-0.679607	529.875234	3.583339	39.160733	1.287899	-7.390557	0.676261
2.120	6.920865	-0.658651	529.593427	3.581305	39.135744	1.289957	-7.389771	0.676237
2.130	6.904671	-0.633892	529.261211	3.576297	39.109295	1.292935	-7.389413	0.675715
2.140	6.863899	-0.610131	528.927978	3.569412	39.088230	1.296055	-7.390086	0.674839
2.150	6.810767	-0.593203	528.651165	3.561350	39.079071	1.298689	-7.392223	0.673667
2.160	6.757496	-0.587839	528.483101	3.552232	39.086134	1.300524	-7.395910	0.672156
2.170	6.712854	-0.595395	528.457908	3.541795	39.110633	1.301625	-7.400898	0.670213
2.180	6.680703	-0.612810	528.583016	3.529874	39.151016	1.302430	-7.406787	0.667799
2.190	6.660667	-0.633681	528.838100	3.516859	39.204082	1.303658	-7.413248	0.665016
2.200	6.650038	-0.651017	529.180998	3.503837	39.266102	1.306095	-7.420165	0.662125
2.210	6.645739	-0.660137	529.557675	3.492272	39.333313	1.310291	-7.427579	0.659470
2.220	6.645559	-0.660187	529.912700	3.483358	39.401702	1.316294	-7.435508	0.657346
2.230	6.648495	-0.653871	530.197625	3.477364	39.466526	1.323575	-7.443739	0.655862
2.240	6.654412	-0.645971	530.376370	3.473392	39.522202	1.331189	-7.451727	0.654892
2.250	6.663503	-0.641469	530.428427	3.469742	39.562906	1.338124	-7.458670	0.654140
2.260	6.675855	-0.643777	530.351428	3.464670	39.583794	1.343678	-7.463691	0.653278
2.270	6.691223	-0.653553	530.163475	3.457026	39.582387	1.347687	-7.466072	0.652068
2.280	6.708890	-0.668626	529.903287	3.446458	39.559668	1.350501	-7.465451	0.650394
2.290	6.727548	-0.685130	529.625091	3.433234	39.520555	1.352760	-7.461987	0.648239
2.300	6.745325	-0.699169	529.387346	3.417998	39.473489	1.355091	-7.456447	0.645652
2.310	6.760199	-0.708070	529.238435	3.401632	39.428968	1.357878	-7.450133	0.642741
2.320	6.770858	-0.710819	529.204757	3.385183	39.397202	1.361143	-7.444605	0.639674
2.330	6.777558	-0.708085	529.285558	3.369660	39.385561	1.364502	-7.441269	0.636643
2.340	6.782151	-0.702244	529.455615	3.355692	39.396756	1.367181	-7.440993	0.633800
2.350	6.786871	-0.697202	529.673554	3.343240	39.428390	1.368139	-7.443904	0.631189
2.360	6.792395	-0.697479	529.891687	3.331600	39.473960	1.366369	-7.449439	0.628732
2.370	6.796469	-0.706501	530.064433	3.319735	39.524803	1.361350	-7.456604	0.626289
2.380	6.794201	-0.724862	530.155298	3.306772	39.572398	1.353453	-7.464303	0.623736
2.390	6.780100	-0.749573	530.143541	3.292408	39.610418	1.344061	-7.471640	0.621041
2.400	6.750823	-0.774875	530.029500	3.277047	39.636117	1.335250	-7.478096	0.618276
