Time[s]	Fx[N]	Fy[N]	Fz[N]	Mx[Nm]	My[Nm]	Mz[Nm]	COPx[cm]	COPy[cm]
0.010	3.591088	-5.569133	559.999235	1.725702	14.815745	0.349058	-2.645672	0.308161
0.020	3.491216	-5.593990	559.911412	1.695860	14.835628	0.333613	-2.649638	0.302880
0.030	3.408871	-5.623116	559.819788	1.663924	14.848794	0.320583	-2.652424	0.297225
0.040	3.354556	-5.661716	559.721612	1.628386	14.849799	0.311434	-2.653069	0.290928
0.050	3.328813	-5.714702	559.617725	1.589021	14.835337	0.306253	-2.650977	0.283948
0.060	3.323353	-5.784540	559.515613	1.547172	14.804690	0.303908	-2.645983	0.276520
0.070	3.325538	-5.868923	559.430448	1.505577	14.759640	0.302682	-2.638333	0.269127
0.080	3.323944	-5.959741	559.381814	1.467625	14.703912	0.301046	-2.628600	0.262365
0.090	3.312912	-6.044181	559.386155	1.436188	14.642303	0.298271	-2.617566	0.256744
0.100	3.294667	-6.107792	559.447935	1.412547	14.579651	0.294620	-2.606078	0.252489
0.110	3.278427	-6.138595	559.554361	1.396049	14.519886	0.291073	-2.594902	0.249493
0.120	3.276838	-6.130793	559.677580	1.384828	14.465430	0.288693	-2.584601	0.247433
0.130	3.300905	-6.086499	559.784282	1.377159	14.417130	0.287987	-2.575480	0.246016
0.140	3.355234	-6.014607	559.848269	1.372596	14.374622	0.288596	-2.567592	0.245173
0.150	3.435475	-5.927399	559.859872	1.372158	14.336813	0.289466	-2.560786	0.245090
0.160	3.529184	-5.836720	559.827829	1.377588	14.302163	0.289356	-2.554743	0.246073
0.170	3.619931	-5.751466	559.773064	1.390299	14.268719	0.287390	-2.549018	0.248368
0.180	3.692968	-5.676835	559.717843	1.410704	14.234111	0.283451	-2.543087	0.252038
0.190	3.740062	-5.614652	559.675662	1.438180	14.195827	0.278300	-2.536438	0.256967
0.200	3.761556	-5.563999	559.646124	1.471459	14.151908	0.273414	-2.528724	0.262927
0.210	3.765111	-5.522045	559.616206	1.509108	14.101841	0.270569	-2.519913	0.269668
0.220	3.762062	-5.485202	559.566812	1.549783	14.047135	0.271296	-2.510359	0.276961
0.230	3.763131	-5.450433	559.481773	1.592216	13.991073	0.276414	-2.500720	0.284588
0.240	3.775044	-5.416140	559.355695	1.635099	13.937612	0.285828	-2.491726	0.292318
0.250	3.798909	-5.382273	559.197728	1.677130	13.889856	0.298660	-2.483890	0.299917
0.260	3.830638	-5.349848	559.030217	1.717376	13.848825	0.313582	-2.477295	0.307206
0.270	3.863231	-5.320270	558.883042	1.755861	13.813086	0.329150	-2.471552	0.314173
0.280	3.890229	-5.294667	558.785160	1.794045	13.779398	0.344000	-2.465956	0.321062
0.290	3.908957	-5.273211	558.755628	1.834823	13.744036	0.356922	-2.459758	0.328377
0.300	3.921971	-5.254520	558.797468	1.881907	13.704166	0.366924	-2.452439	0.336778
0.310	3.935969	-5.235461	558.897404	1.938732	13.658718	0.373355	-2.443869	0.346885
0.320	3.958849	-5.211757	559.031565	2.007271	13.608467	0.376039	-2.434293	0.359062
0.330	3.996577	-5.179464	559.173921	2.087173	13.555411	0.375343	-2.424185	0.373260
0.340	4.051409	-5.136782	559.303417	2.175569	13.501793	0.372184	-2.414037	0.388978
0.350	4.122024	-5.085187	559.407745	2.267723	13.449215	0.367958	-2.404188	0.405379
0.360	4.204929	-5.029121	559.484212	2.358472	13.398221	0.364341	-2.394745	0.421544
0.370	4.295991	-4.974425	559.539075	2.444063	13.348551	0.362908	-2.385633	0.436799
0.380	4.391376	-4.926458	559.585796	2.523632	13.299844	0.364644	-2.376730	0.450982
0.390	4.487827	-4.888805	559.641352	2.599479	13.252305	0.369596	-2.368000	0.464490
0.400	4.582529	-4.862781	559.720155	2.675754	13.206872	0.376860	-2.359549	0.478052
0.410	4.672903	-4.847396	559.827507	2.756176	13.164864	0.384877	-2.351593	0.492326
0.420	4.756648	-4.839468	559.956158	2.842065	13.127460	0.391873	-2.344373	0.507551
0.430	4.832105	-4.833868	560.088255	2.931806	13.095393	0.396291	-2.338095	0.523454
0.440	4.898572	-4.824107	560.201823	3.021919	13.068976	0.397161	-2.332905	0.539434
0.450	4.956183	-4.803361	560.278765	3.108875	13.048347	0.394375	-2.328903	0.554880
0.460	5.005404	-4.765916	560.310982	3.190434	13.033728	0.388773	-2.326160	0.569404
0.470	5.046584	-4.708843	560.302253	3.265766	13.025508	0.381944	-2.324729	0.582858
0.480	5.079994	-4.633471	560.265201	3.334585	13.024051	0.375736	-2.324623	0.595180
0.490	5.106266	-4.545817	560.214906	3.396188	13.029326	0.371625	-2.325773	0.606229
0.500	5.126844	-4.455361	560.162358	3.449235	13.040606	0.370232	-2.328005	0.615756
0.510	5.144087	-4.372476	560.110959	3.492407	13.056441	0.371211	-2.331046	0.623521
0.520	5.160935	-4.305806	560.057476	3.525342	13.074942	0.373520	-2.334571	0.629461
0.530	5.180291	-4.260716	559.996668	3.549016	13.094266	0.375849	-2.338276	0.633757
0.540	5.204177	-4.238970	559.927298	3.565246	13.113166	0.376968	-2.341941	0.636734
0.550	5.232738	-4.239117	559.856517	3.575744	13.131381	0.375877	-2.345490	0.638689
0.560	5.263247	-4.257234	559.799675	3.581451	13.149675	0.371818	-2.348996	0.639774
0.570	5.289683	-4.287995	559.774543	3.582476	13.169510	0.364276	-2.352645	0.639986
0.580	5.303562	-4.326036	559.792400	3.578395	13.192583	0.353071	-2.356692	0.639236
0.590	5.296279	-4.367166	559.851009	3.568533	13.220496	0.338557	-2.361431	0.637408
0.600	5.262427	-4.408805	559.933892	3.552119	13.254604	0.321749	-2.367173	0.634382
0.610	5.202721	-4.449462	560.016697	3.528467	13.295865	0.304211	-2.374191	0.630065
0.620	5.124838	-4.487984	560.077320	3.497329	13.344517	0.287621	-2.382620	0.624437
0.630	5.041071	-4.523507	560.104386	3.459397	13.399658	0.273192	-2.392350	0.617634
0.640	4.963452	-4.556112	560.099824	3.416671	13.459036	0.261207	-2.402971	0.610011
0.650	4.898852	-4.587161	560.074629	3.372369	13.519347	0.250960	-2.413847	0.602129
0.660	4.846939	-4.618430	560.040519	3.330280	13.577125	0.241133	-2.424311	0.594650
0.670	4.802085	-4.650477	560.002388	3.293792	13.629854	0.230441	-2.433892	0.588175
0.680	4.757799	-4.681577	559.956291	3.264959	13.676801	0.218187	-2.442477	0.583074
0.690	4.710827	-4.708192	559.894691	3.243982	13.719123	0.204498	-2.450304	0.579391
0.700	4.662816	-4.726726	559.815747	3.229341	13.759254	0.190159	-2.457818	0.576858
0.710	4.619281	-4.735470	559.729856	3.218588	13.799925	0.176249	-2.465462	0.575025
0.720	4.587003	-4.735690	559.657983	3.209428	13.843283	0.163808	-2.473525	0.573462
0.730	4.571199	-4.731338	559.622207	3.200467	13.890433	0.153670	-2.482109	0.571898
0.740	4.573369	-4.727659	559.634741	3.191216	13.941509	0.146419	-2.491180	0.570232
0.750	4.590298	-4.729543	559.692511	3.181545	13.996179	0.142330	-2.500691	0.568445
0.760	4.614460	-4.740446	559.780004	3.171232	14.054328	0.141301	-2.510688	0.566514
0.770	4.635728	-4.761953	559.877704	3.160083	14.116545	0.142820	-2.521362	0.564424
0.780	4.643992	-4.793509	559.970850	3.148539	14.184062	0.146072	-2.533000	0.562268
0.790	4.631863	-4.832167	560.054102	3.138282	14.258159	0.150128	-2.545854	0.560353
0.800	4.596304	-4.872717	560.130450	3.132334	14.339462	0.154153	-2.560022	0.559215
0.810	4.538329	-4.908620	560.205802	3.134415	14.427691	0.157518	-2.575427	0.559511
0.820	4.460977	-4.933776	560.282561	3.147682	14.522048	0.159826	-2.591915	0.561803
0.830	4.366974	-4.944618	560.355499	3.173330	14.621878	0.160873	-2.609393	0.566307
0.840	4.257784	-4.941564	560.411353	3.209694	14.727043	0.160604	-2.627899	0.572739
0.850	4.134735	-4.929004	560.431310	3.252296	14.837671	0.159102	-2.647545	0.580320
0.860	4.001340	-4.913738	560.394815	3.294945	14.953476	0.156616	-2.668382	0.587968
0.870	3.864986	-4.902591	560.283939	3.331586	15.073208	0.153586	-2.690280	0.594625
0.880	3.736387	-4.900069	560.088615	3.358230	15.194772	0.150632	-2.712923	0.599589
0.890	3.626576	-4.906664	559.812595	3.374191	15.316106	0.148468	-2.735935	0.602736
0.900	3.542660	-4.918300	559.478025	3.382126	15.436252	0.147746	-2.759045	0.604515
0.910	3.484532	-4.927421	559.125214	3.386893	15.555823	0.148901	-2.782172	0.605749
0.920	3.444706	-4.925845	558.805213	3.393674	15.676420	0.152071	-2.805346	0.607309
0.930	3.411945	-4.908398	558.566148	3.406077	15.799255	0.157157	-2.828538	0.609789
0.940	3.376975	-4.875464	558.437842	3.424951	15.923839	0.163972	-2.851497	0.613309
0.950	3.336897	-4.832934	558.421030	3.448420	16.047542	0.172361	-2.873735	0.617530
0.960	3.295641	-4.789663	558.486554	3.473117	16.166310	0.182219	-2.894664	0.621880
0.970	3.260430	-4.753936	558.586261	3.496029	16.276130	0.193394	-2.913808	0.625871
0.980	3.236848	-4.730639	558.672151	3.516053	16.374511	0.205539	-2.930970	0.629359
0.990	3.225638	-4.720051	558.715929	3.534536	16.461317	0.217992	-2.946277	0.632618
1.000	3.222899	-4.718497	558.720334	3.554581	16.538635	0.229758	-2.960092	0.636200
1.010	3.223120	-4.720550	558.717338	3.579530	16.609803	0.239689	-2.972845	0.640669
1.020	3.223048	-4.721789	558.754265	3.611328	16.678089	0.246841	-2.984870	0.646318
1.030	3.224190	-4.720716	558.874138	3.649431	16.745604	0.250887	-2.996310	0.652997
1.040	3.232717	-4.718900	559.098357	3.690557	16.812789	0.252387	-3.007125	0.660091
1.050	3.256924	-4.719529	559.417844	3.729288	16.878561	0.252719	-3.017165	0.666637
1.060	3.303566	-4.725456	559.794549	3.759346	16.940990	0.253675	-3.026287	0.671558
1.070	3.374680	-4.737864	560.171543	3.775270	16.998242	0.256867	-3.034471	0.673949
1.080	3.466002	-4.756137	560.488085	3.774080	17.049460	0.263178	-3.041895	0.673356
1.090	3.567293	-4.778801	560.695322	3.756377	17.095180	0.272488	-3.048925	0.669950
1.100	3.664248	-4.804684	560.768435	3.726331	17.137067	0.283785	-3.055997	0.664504
1.110	3.741419	-4.833369	560.712034	3.690365	17.177068	0.295614	-3.063438	0.658157
1.120	3.785604	-4.864557	560.557104	3.655004	17.216409	0.306662	-3.071303	0.652031
1.130	3.789106	-4.896766	560.349848	3.624793	17.254921	0.316160	-3.079312	0.646880
1.140	3.751994	-4.926360	560.135867	3.601183	17.291018	0.323912	-3.086933	0.642912
1.150	3.682501	-4.947794	559.946174	3.582756	17.322401	0.329996	-3.093583	0.639839
1.160	3.595207	-4.955195	559.791489	3.566438	17.347280	0.334387	-3.098882	0.637101
1.170	3.507434	-4.944546	559.666685	3.548986	17.365635	0.336774	-3.102853	0.634125
1.180	3.434758	-4.915402	559.561385	3.528085	17.379878	0.336733	-3.105982	0.630509
1.190	3.386734	-4.871441	559.469834	3.502873	17.394522	0.334131	-3.109108	0.626106
1.200	3.364037	-4.819867	559.394825	3.474051	17.414905	0.329467	-3.113169	0.621037
1.210	3.358035	-4.770139	559.345021	3.443718	17.445436	0.323820	-3.118904	0.615670
1.220	3.353268	-4.732370	559.329074	3.414922	17.488024	0.318409	-3.126607	0.610539
1.230	3.332471	-4.715431	559.350930	3.390919	17.541242	0.314070	-3.135999	0.606224
1.240	3.282711	-4.724691	559.408451	3.374240	17.600530	0.310975	-3.146275	0.603180
1.250	3.200258	-4.759874	559.494693	3.365869	17.659423	0.308733	-3.156317	0.601591
1.260	3.091927	-4.814223	559.599704	3.364877	17.711445	0.306718	-3.165021	0.601301
1.270	2.972148	-4.876095	559.711023	3.368746	17.752031	0.304405	-3.171642	0.601872
1.280	2.857082	-4.932819	559.812737	3.374291	17.779798	0.301531	-3.176026	0.602754
1.290	2.758503	-4.975131	559.885233	3.378687	17.796702	0.298083	-3.178634	0.603461
1.300	2.680202	-5.000070	559.908598	3.380119	17.807093	0.294178	-3.180357	0.603691
1.310	2.618481	-5.011240	559.870252	3.377862	17.816130	0.289972	-3.182189	0.603329
1.320	2.566341	-5.016714	559.773022	3.371975	17.828114	0.285668	-3.184883	0.602383
1.330	2.519254	-5.025733	559.637706	3.362949	17.845183	0.281621	-3.188703	0.600915
1.340	2.479520	-5.045544	559.496874	3.351447	17.866683	0.278413	-3.193348	0.599011
1.350	2.456881	-5.079363	559.382451	3.338165	17.889403	0.276753	-3.198063	0.596759
1.360	2.464937	-5.125869	559.313875	3.323823	17.908707	0.277187	-3.201906	0.594268
1.370	2.515014	-5.180076	559.293112	3.309340	17.920251	0.279790	-3.204089	0.591701
1.380	2.610362	-5.235051	559.308296	3.296137	17.921717	0.284074	-3.204264	0.589324
1.390	2.743363	-5.283723	559.342718	3.286341	17.913865	0.289236	-3.202663	0.587536
1.400	2.896887	-5.320124	559.383799	3.282659	17.900449	0.294546	-3.200030	0.586835
1.410	3.049000	-5.339703	559.427760	3.287893	17.887030	0.299623	-3.197380	0.587724
1.420	3.178940	-5.338939	559.478366	3.304334	17.879191	0.304423	-3.195689	0.590610
1.430	3.272146	-5.314849	559.541280	3.333409	17.880852	0.308972	-3.195627	0.595740
1.440	3.323054	-5.264934	559.618258	3.375765	17.893238	0.313065	-3.197401	0.603226
1.450	3.335391	-5.187822	559.705361	3.431650	17.914752	0.316118	-3.200747	0.613117
1.460	3.320386	-5.084490	559.795823	3.501212	17.941703	0.317260	-3.205044	0.625444
1.470	3.293437	-4.959534	559.884204	3.584382	17.969496	0.315608	-3.209502	0.640201
1.480	3.269997	-4.821532	559.967919	3.680313	17.993825	0.310572	-3.213367	0.657236
1.490	3.261711	-4.681795	560.045173	3.786695	18.011531	0.302114	-3.216085	0.676141
1.500	3.273747	-4.551708	560.111502	3.899430	18.021059	0.290842	-3.217406	0.696188
1.510	3.303595	-4.439900	560.158105	4.013025	18.022595	0.277914	-3.217412	0.716409
1.520	3.341314	-4.350629	560.173628	4.121728	18.017944	0.264730	-3.216493	0.735795
1.530	3.371532	-4.283976	560.148434	4.221001	18.010111	0.252541	-3.215239	0.753550
1.540	3.377506	-4.237292	560.078511	4.308634	18.002522	0.242124	-3.214285	0.769291
1.550	3.346540	-4.206662	559.966572	4.384945	17.997989	0.233659	-3.214118	0.783073
1.560	3.274884	-4.187439	559.819892	4.451995	17.997763	0.226850	-3.214920	0.795255
1.570	3.169973	-4.173944	559.646336	4.512273	18.001101	0.221181	-3.216514	0.806272
1.580	3.048933	-4.159260	559.451118	4.567535	18.005458	0.216173	-3.218415	0.816431
1.590	2.933796	-4.136047	559.236905	4.618250	18.007188	0.211533	-3.219957	0.825813
1.600	2.845206	-4.098517	559.008283	4.663720	18.002503	0.207174	-3.220436	0.834285
1.610	2.796772	-4.044905	558.778436	4.702512	17.988549	0.203152	-3.219263	0.841570
1.620	2.791802	-3.979228	558.573497	4.732837	17.964377	0.199543	-3.216117	0.847308
1.630	2.823259	-3.911233	558.430681	4.752750	17.931516	0.196305	-3.211055	0.851091
1.640	2.876677	-3.854125	558.389133	4.760351	17.893736	0.193206	-3.204528	0.852515
1.650	2.934880	-3.820930	558.475743	4.754132	17.855802	0.189888	-3.197239	0.851269
1.660	2.983091	-3.821079	558.691232	4.733464	17.821500	0.186072	-3.189866	0.847242
1.670	3.013295	-3.858421	559.003775	4.698958	17.791717	0.181827	-3.182754	0.840595
1.680	3.026935	-3.930864	559.355414	4.652405	17.763478	0.177734	-3.175705	0.831744
1.690	3.035022	-4.031163	559.679690	4.596283	17.730439	0.174833	-3.167962	0.821235
1.700	3.055127	-4.148330	559.922066	4.533044	17.684620	0.174297	-3.158407	0.809585
1.710	3.105674	-4.269450	560.053669	4.464561	17.618717	0.176938	-3.145898	0.797167
1.720	3.199268	-4.381779	560.074067	4.391963	17.528211	0.182752	-3.129624	0.784175
1.730	3.337626	-4.474919	560.005232	4.315772	17.412767	0.190739	-3.109394	0.770666
1.740	3.510307	-4.542671	559.881943	4.236078	17.276673	0.199113	-3.085771	0.756602
1.750	3.697762	-4.584065	559.742833	4.152592	17.128140	0.205861	-3.060002	0.741875
1.760	3.877319	-4.603266	559.623607	4.064722	16.977436	0.209418	-3.033724	0.726331
1.770	4.029660	-4.608451	559.552175	3.971888	16.834265	0.209175	-3.008525	0.709833
1.780	4.143525	-4.610067	559.545202	3.874034	16.705352	0.205654	-2.985523	0.692354
1.790	4.217248	-4.618837	559.605948	3.772013	16.593278	0.200333	-2.965172	0.674048
1.800	4.256991	-4.643800	559.723905	3.667528	16.496966	0.195181	-2.947340	0.655239
1.810	4.272935	-4.690651	559.877084	3.562654	16.413325	0.192076	-2.931594	0.636328
1.820	4.275447	-4.760712	560.037057	3.459298	16.339080	0.192295	-2.917500	0.617691
1.830	4.272762	-4.850757	560.175374	3.358960	16.272001	0.196263	-2.904805	0.599626
1.840	4.270350	-4.953673	560.269114	3.262912	16.211233	0.203617	-2.893473	0.582383
1.850	4.271215	-5.059868	560.303800	3.172633	16.156860	0.213491	-2.883589	0.566234
1.860	4.276385	-5.159216	560.273510	3.090195	16.109090	0.224826	-2.875219	0.551551
1.870	4.285313	-5.243098	560.179584	3.018290	16.067548	0.236566	-2.868285	0.538808
1.880	4.296075	-5.305949	560.029732	2.959722	16.030986	0.247738	-2.862524	0.528494
1.890	4.305386	-5.345819	559.838837	2.916462	15.997498	0.257498	-2.857518	0.520947
1.900	4.308713	-5.363746	559.631166	2.888638	15.965071	0.265236	-2.852784	0.516168
1.910	4.300975	-5.362193	559.441140	2.873964	15.932195	0.270707	-2.847877	0.513721
1.920	4.278059	-5.343532	559.308444	2.867968	15.898330	0.274136	-2.842498	0.512770
1.930	4.238796	-5.309795	559.266052	2.865054	15.864034	0.276244	-2.836581	0.512288
1.940	4.186586	-5.263872	559.325528	2.860113	15.830631	0.278207	-2.830307	0.511350
1.950	4.129798	-5.210917	559.467889	2.850102	15.799485	0.281523	-2.824020	0.509431
1.960	4.080339	-5.158289	559.646869	2.834923	15.771113	0.287739	-2.818047	0.506556
1.970	4.050409	-5.113568	559.805320	2.817179	15.744519	0.298051	-2.812499	0.503243
1.980	4.048489	-5.081777	559.897984	2.800931	15.717124	0.312842	-2.807141	0.500257
1.990	4.076462	-5.063532	559.909361	2.790164	15.685482	0.331359	-2.801432	0.498324
2.000	4.129460	-5.055027	559.857436	2.787786	15.646601	0.351709	-2.794747	0.497946
2.010	4.198537	-5.049572	559.782195	2.795563	15.599297	0.371243	-2.786673	0.499402
2.020	4.274526	-5.039770	559.726521	2.814757	15.544927	0.387229	-2.777236	0.502881
2.030	4.350962	-5.019564	559.719651	2.846704	15.487125	0.397531	-2.766943	0.508595
2.040	4.424720	-4.985590	559.769221	2.892736	15.430664	0.401095	-2.756612	0.516773
2.050	4.494428	-4.937418	559.862086	2.953400	15.379918	0.398110	-2.747091	0.527523
2.060	4.557935	-4.876592	559.971194	3.027540	15.337489	0.389879	-2.738978	0.540660
2.070	4.610734	-4.804966	560.065551	3.111910	15.303435	0.378490	-2.732436	0.555633
2.080	4.646783	-4.723384	560.120375	3.201574	15.275355	0.366362	-2.727156	0.571587
2.090	4.661593	-4.631749	560.124379	3.290908	15.249345	0.355723	-2.722493	0.587532
2.100	4.655681	-4.530664	560.081871	3.374806	15.221558	0.348114	-2.717738	0.602556
2.110	4.636003	-4.423583	560.009370	3.449613	15.189852	0.344072	-2.712428	0.615992
2.120	4.614149	-4.317685	559.928685	3.513434	15.154858	0.343136	-2.706569	0.627479
2.130	4.602100	-4.222440	559.859774	3.565771	15.119959	0.344192	-2.700669	0.636904
2.140	4.607619	-4.146523	559.816423	3.606857	15.090110	0.345979	-2.695546	0.644293
2.150	4.631420	-4.094860	559.806067	3.637174	15.070008	0.347500	-2.692005	0.649720
2.160	4.667269	-4.067358	559.832872	3.657401	15.062436	0.348155	-2.690524	0.653302
2.170	4.704791	-4.059640	559.901458	3.668700	15.067490	0.347650	-2.691097	0.655240
2.180	4.733475	-4.065060	560.017721	3.672988	15.082882	0.345873	-2.693287	0.655870
2.190	4.746067	-4.076842	560.184334	3.672903	15.105022	0.342883	-2.696438	0.655660
2.200	4.740162	-4.089408	560.392319	3.671425	15.130370	0.338969	-2.699960	0.655153
2.210	4.717901	-4.098595	560.614202	3.671293	15.156559	0.334619	-2.703563	0.654870
2.220	4.684508	-4.101047	560.804514	3.674406	15.182879	0.330335	-2.707339	0.655203
2.230	4.646569	-4.093452	560.909170	3.681343	15.210014	0.326410	-2.711672	0.656317
2.240	4.610481	-4.072328	560.880253	3.691157	15.239282	0.322811	-2.717029	0.658101
2.250	4.581006	-4.034968	560.690618	3.701619	15.271857	0.319214	-2.723758	0.660189
2.260	4.559908	-3.981526	560.343707	3.709904	15.308408	0.315148	-2.731967	0.662077
2.270	4.545162	-3.917106	559.876055	3.713409	15.349127	0.310138	-2.741522	0.663256
2.280	4.531420	-3.852089	559.351686	3.710292	15.393881	0.303807	-2.752093	0.663320
2.290	4.511818	-3.799661	558.849443	3.699585	15.442231	0.295944	-2.763218	0.662000
2.300	4.480305	-3.771357	558.446544	3.681040	15.493372	0.286616	-2.774370	0.659157
2.310	4.433276	-3.772797	558.202865	3.654858	15.546132	0.276306	-2.785033	0.654754
2.320	4.369923	-3.801623	558.149433	3.621257	15.599073	0.265944	-2.794784	0.648797
2.330	4.291728	-3.848458	558.282845	3.579978	15.650732	0.256662	-2.803370	0.641248
2.340	4.201995	-3.900457	558.566718	3.530005	15.700010	0.249337	-2.810767	0.631976
2.350	4.105851	-3.946156	558.941154	3.469758	15.746591	0.244177	-2.817218	0.620773
2.360	4.010420	-3.979815	559.339063	3.397599	15.791053	0.240611	-2.823163	0.607431
2.370	3.924473	-4.003502	559.704103	3.312219	15.834403	0.237522	-2.829067	0.591780
2.380	3.857342	-4.026092	560.002646	3.212635	15.877135	0.233720	-2.835189	0.573682
2.390	3.817494	-4.059749	560.224862	3.098016	15.918324	0.228470	-2.841417	0.552995
2.400	3.811358	-4.115512	560.375894	2.967751	15.955287	0.221911	-2.847247	0.529600
