Time[s]	Fx[N]	Fy[N]	Fz[N]	Mx[Nm]	My[Nm]	Mz[Nm]	COPx[cm]	COPy[cm]
0.010	-2.006208	-1.915079	689.696492	15.465772	0.914985	0.323615	-0.132665	2.242403
0.020	-1.458308	-1.909248	687.444816	15.492646	0.437335	0.294062	-0.063617	2.253657
0.030	-0.921211	-1.895522	685.275646	15.526836	-0.056773	0.265413	0.008285	2.265780
0.040	-0.396023	-1.867234	683.297639	15.573468	-0.584280	0.238169	0.085509	2.279163
0.050	0.132414	-1.820939	681.648533	15.634276	-1.163163	0.212685	0.170640	2.293598
0.060	0.693907	-1.757685	680.465795	15.706659	-1.809616	0.189567	0.265938	2.308222
0.070	1.323308	-1.684156	679.836075	15.783912	-2.533530	0.170018	0.372668	2.321723
0.080	2.045692	-1.613229	679.748924	15.856869	-3.333972	0.155749	0.490471	2.332754
0.090	2.862048	-1.562839	680.080122	15.916440	-4.196798	0.148331	0.617103	2.340377
0.100	3.742373	-1.552205	680.616001	15.956086	-5.095905	0.148294	0.748720	2.344360
0.110	4.630654	-1.595984	681.109748	15.973318	-5.998198	0.154535	0.880651	2.345190
0.120	5.460737	-1.698600	681.346048	15.969908	-6.870664	0.164473	1.008396	2.343876
0.130	6.176436	-1.851379	681.189349	15.951059	-7.687033	0.174914	1.128472	2.341648
0.140	6.747029	-2.033769	680.601564	15.923921	-8.431645	0.183132	1.238852	2.339683
0.150	7.171931	-2.218003	679.628940	15.895720	-9.099421	0.187544	1.338881	2.338882
0.160	7.473993	-2.375289	678.368214	15.871757	-9.692522	0.187688	1.428799	2.339696
0.170	7.686172	-2.481438	676.927545	15.853834	-10.215645	0.183661	1.509119	2.342028
0.180	7.838395	-2.520540	675.398358	15.839901	-10.672234	0.175516	1.580139	2.345268
0.190	7.949903	-2.486454	673.849564	15.825301	-11.063284	0.162993	1.641803	2.348492
0.200	8.028916	-2.382758	672.344528	15.805148	-11.389053	0.145744	1.693931	2.350751
0.210	8.077944	-2.222009	670.967791	15.776630	-11.652421	0.123866	1.736659	2.351324
0.220	8.100889	-2.024604	669.841144	15.740079	-11.861660	0.098426	1.770817	2.349823
0.230	8.107831	-1.816846	669.113293	15.698345	-12.030661	0.071625	1.798001	2.346142
0.240	8.114934	-1.627610	668.922193	15.654933	-12.176188	0.046464	1.820270	2.340322
0.250	8.139500	-1.483653	669.345948	15.611997	-12.313380	0.026077	1.839614	2.332426
0.260	8.192509	-1.404667	670.367229	15.569359	-12.451616	0.013090	1.857432	2.322512
0.270	8.272309	-1.399944	671.870997	15.525148	-12.592581	0.009236	1.874256	2.310733
0.280	8.362862	-1.468158	673.677994	15.477792	-12.731327	0.015202	1.889824	2.297506
0.290	8.438180	-1.600393	675.597810	15.428382	-12.859799	0.030500	1.903470	2.283664
0.300	8.471733	-1.784851	677.477028	15.382177	-12.971230	0.053231	1.914638	2.270509
0.310	8.447079	-2.010695	679.223616	15.348339	-13.063485	0.079936	1.923297	2.259689
0.320	8.365161	-2.268707	680.803185	15.337713	-13.140023	0.105865	1.930077	2.252885
0.330	8.245116	-2.548061	682.216430	15.359572	-13.208396	0.125903	1.936101	2.251422
0.340	8.118308	-2.830842	683.472966	15.418945	-13.277409	0.135928	1.942639	2.255970
0.350	8.018189	-3.087810	684.573171	15.515935	-13.354453	0.134092	1.950771	2.266512
0.360	7.970276	-3.278896	685.501160	15.647224	-13.444044	0.121410	1.961199	2.282596
0.370	7.986073	-3.359955	686.225496	15.808644	-13.547658	0.101394	1.974228	2.303710
0.380	8.062412	-3.294274	686.703034	15.997118	-13.664302	0.078876	1.989842	2.329554
0.390	8.185046	-3.064814	686.883717	16.210829	-13.791255	0.058536	2.007801	2.360054
0.400	8.334257	-2.682287	686.716652	16.447587	-13.924654	0.043659	2.027715	2.395105
0.410	8.490690	-2.185484	686.158616	16.702425	-14.059894	0.035569	2.049073	2.434193
0.420	8.640027	-1.633265	685.185414	16.965851	-14.191826	0.033869	2.071239	2.476096
0.430	8.775185	-1.091058	683.804520	17.223805	-14.314766	0.037280	2.093400	2.518820
0.440	8.895477	-0.616981	682.065101	17.459571	-14.422489	0.044591	2.114533	2.559810
0.450	9.003897	-0.252449	680.060498	17.656963	-14.508492	0.055194	2.133412	2.596381
0.460	9.104576	-0.019547	677.919795	17.803628	-14.566686	0.068987	2.148733	2.626214
0.470	9.201408	0.075997	675.789030	17.893386	-14.592300	0.085869	2.159298	2.647777
0.480	9.297006	0.039633	673.807467	17.926981	-14.582462	0.105271	2.164188	2.660550
0.490	9.390586	-0.115963	672.087081	17.911250	-14.535991	0.126094	2.162814	2.665019
0.500	9.474670	-0.371966	670.702034	17.857224	-14.452537	0.147118	2.154837	2.662467
0.510	9.532654	-0.702306	669.690571	17.777906	-14.331800	0.167578	2.140063	2.654645
0.520	9.540158	-1.072873	669.067245	17.686305	-14.173624	0.187529	2.118415	2.643427
0.530	9.471546	-1.443685	668.840543	17.594010	-13.979208	0.207680	2.090066	2.630524
0.540	9.309834	-1.775138	669.029463	17.510382	-13.752904	0.228728	2.055650	2.617281
0.550	9.055856	-2.036821	669.672225	17.442268	-13.503559	0.250429	2.016443	2.604598
0.560	8.732542	-2.215304	670.821579	17.394065	-13.244489	0.270834	1.974368	2.592950
0.570	8.381888	-2.317131	672.524680	17.367894	-12.991715	0.286157	1.931783	2.582492
0.580	8.054541	-2.365255	674.790743	17.363654	-12.760867	0.291509	1.891085	2.573191
0.590	7.794664	-2.390157	677.555711	17.378824	-12.563669	0.282356	1.854264	2.564929
0.600	7.625356	-2.419214	680.658273	17.408209	-12.405115	0.256172	1.822517	2.557555
0.610	7.540916	-2.468219	683.841982	17.444186	-12.282304	0.213629	1.796073	2.550909
0.620	7.510015	-2.537425	686.790357	17.477978	-12.185391	0.158854	1.774252	2.544878
0.630	7.489000	-2.612491	689.187501	17.502036	-12.100361	0.098634	1.755743	2.539517
0.640	7.439804	-2.669373	690.783814	17.512849	-12.012534	0.040747	1.738972	2.535214
0.650	7.344824	-2.681466	691.442768	17.513185	-11.909420	-0.008088	1.722401	2.532847
0.660	7.212612	-2.627036	691.152849	17.512955	-11.781882	-0.044029	1.704671	2.533876
0.670	7.072288	-2.494960	690.004097	17.528401	-11.623441	-0.067123	1.684547	2.540333
0.680	6.959251	-2.287242	688.142934	17.579634	-11.428336	-0.081211	1.660750	2.554649
0.690	6.897902	-2.017686	685.725933	17.686735	-11.189470	-0.092705	1.631770	2.579272
0.700	6.887850	-1.707353	682.891495	17.865010	-10.897280	-0.108490	1.595756	2.616083
0.710	6.898734	-1.378621	679.759516	18.120612	-10.540364	-0.133478	1.550602	2.665739
0.720	6.876269	-1.050081	676.455721	18.448081	-10.108152	-0.168603	1.494281	2.727168
0.730	6.758523	-0.733964	673.145085	18.831026	-9.595161	-0.210094	1.425422	2.797469
0.740	6.497375	-0.436418	670.053884	19.246130	-9.005364	-0.250510	1.343976	2.872326
0.750	6.076950	-0.159612	667.464871	19.669244	-8.354754	-0.281292	1.251714	2.946858
0.760	5.521136	0.095868	665.681659	20.081297	-7.670590	-0.295789	1.152291	3.016652
0.770	4.886653	0.329306	664.970739	20.471692	-6.987053	-0.291446	1.050731	3.078585
0.780	4.244630	0.538809	665.498231	20.837976	-6.338415	-0.270210	0.952431	3.131184
0.790	3.658402	0.720693	667.281551	21.182365	-5.751814	-0.237165	0.861977	3.174427
0.800	3.165942	0.869638	670.172953	21.507268	-5.242085	-0.198294	0.782199	3.209212
0.810	2.772527	0.980316	673.882170	21.812096	-4.810390	-0.158484	0.713832	3.236782
0.820	2.455145	1.050363	678.031865	22.092500	-4.446950	-0.120491	0.655862	3.258328
0.830	2.176226	1.083223	682.228001	22.341696	-4.136507	-0.084900	0.606323	3.274814
0.840	1.901158	1.088889	686.123097	22.552612	-3.864261	-0.050717	0.563202	3.286963
0.850	1.612581	1.081553	689.455441	22.719582	-3.620277	-0.016142	0.525092	3.295294
0.860	1.315858	1.074786	692.058662	22.838999	-3.401268	0.020702	0.491471	3.300154
0.870	1.034239	1.076400	693.848207	22.909116	-3.209794	0.061177	0.462607	3.301747
0.880	0.797080	1.085677	694.798404	22.929752	-3.051662	0.105719	0.439215	3.300202
0.890	0.627581	1.094795	694.923215	22.902576	-2.932688	0.153657	0.422016	3.295699
0.900	0.536008	1.094214	694.267170	22.832025	-2.855988	0.203308	0.411367	3.288651
0.910	0.520579	1.079516	692.904883	22.726224	-2.820658	0.252221	0.407077	3.279848
0.920	0.573421	1.056031	690.942455	22.596938	-2.822010	0.297463	0.408429	3.270452
0.930	0.686388	1.038358	688.514122	22.457948	-2.852791	0.335849	0.414340	3.261799
0.940	0.852922	1.044485	685.772008	22.321961	-2.904540	0.364242	0.423543	3.255012
0.950	1.065931	1.087323	682.872402	22.197063	-2.968529	0.380033	0.434712	3.250543
0.960	1.314638	1.168181	679.964211	22.084335	-3.036316	0.381809	0.446541	3.247867
0.970	1.583487	1.275869	677.182662	21.978106	-3.100128	0.369958	0.457798	3.245521
0.980	1.854170	1.391912	674.647313	21.869117	-3.153239	0.346834	0.467391	3.241563
0.990	2.109342	1.498872	672.461720	21.749282	-3.190293	0.316269	0.474420	3.234278
1.000	2.335448	1.587181	670.713182	21.615719	-3.207485	0.282571	0.478220	3.222796
1.010	2.522933	1.656972	669.472343	21.472044	-3.202644	0.249427	0.478383	3.207309
1.020	2.664411	1.714458	668.792270	21.326350	-3.175292	0.219199	0.474780	3.188785
1.030	2.753012	1.765477	668.705979	21.187011	-3.126697	0.192858	0.467574	3.168360
1.040	2.782631	1.810136	669.221736	21.058504	-3.059862	0.170524	0.457227	3.146716
1.050	2.750127	1.841171	670.317046	20.939317	-2.979364	0.152304	0.444471	3.123793
1.060	2.657995	1.845996	671.933924	20.822714	-2.890966	0.138953	0.430246	3.098923
1.070	2.515659	1.810361	673.977986	20.699599	-2.800937	0.131969	0.415583	3.071257
1.080	2.338098	1.721449	676.321437	20.561773	-2.714998	0.133007	0.401436	3.040237
1.090	2.141778	1.569585	678.807725	20.404056	-2.636979	0.142912	0.388472	3.005867
1.100	1.939222	1.348978	681.256925	20.224757	-2.567575	0.160949	0.376888	2.968741
1.110	1.734402	1.058475	683.474959	20.024870	-2.503813	0.184699	0.366336	2.929862
1.120	1.521255	0.702998	685.271453	19.806685	-2.439693	0.210645	0.356018	2.890341
1.130	1.286899	0.295506	686.487322	19.572252	-2.367961	0.235129	0.344939	2.851073
1.140	1.019247	-0.141878	687.026354	19.321972	-2.282463	0.255196	0.332223	2.812406
1.150	0.716197	-0.579371	686.879933	19.053598	-2.180243	0.269070	0.317413	2.773934
1.160	0.392060	-0.984567	686.134160	18.762042	-2.062710	0.276234	0.300628	2.734457
1.170	0.077782	-1.329918	684.954073	18.440364	-1.935593	0.277232	0.282587	2.692204
1.180	-0.185458	-1.599964	683.547617	18.082035	-1.807835	0.273359	0.264478	2.645322
1.190	-0.356778	-1.795362	682.119632	17.683946	-1.689831	0.266295	0.247732	2.592499
1.200	-0.406661	-1.931864	680.830721	17.249008	-1.591416	0.257712	0.233746	2.533524
1.210	-0.325612	-2.034571	679.775018	16.787053	-1.520054	0.248874	0.223611	2.469501
1.220	-0.128355	-2.129912	678.983886	16.313345	-1.479736	0.240264	0.217934	2.402612
1.230	0.147900	-2.238774	678.451976	15.845063	-1.471120	0.231365	0.216835	2.335473
1.240	0.451736	-2.373266	678.172371	15.397068	-1.493111	0.220771	0.220167	2.270377
1.250	0.731254	-2.537531	678.163095	14.978606	-1.545360	0.206829	0.227874	2.208703
1.260	0.949531	-2.731007	678.471328	14.592231	-1.630472	0.188733	0.240315	2.150751
1.270	1.096030	-2.951732	679.152855	14.235290	-1.754544	0.167627	0.258343	2.096036
1.280	1.188701	-3.197780	680.236399	13.903272	-1.925456	0.147002	0.283057	2.043888
1.290	1.265398	-3.466306	681.689777	13.593544	-2.149679	0.131857	0.315346	1.994095
1.300	1.368571	-3.751035	683.404274	13.307827	-2.429312	0.126747	0.355472	1.947285
1.310	1.530496	-4.040054	685.205511	13.052329	-2.760835	0.133594	0.402921	1.904878
1.320	1.765134	-4.315720	686.886691	12.835689	-3.135987	0.150449	0.456551	1.868676
1.330	2.067896	-4.557361	688.250459	12.665885	-3.543940	0.172005	0.514920	1.840302
1.340	2.420010	-4.745787	689.144202	12.547688	-3.973544	0.191712	0.576591	1.820764
1.350	2.793329	-4.867743	689.480075	12.481623	-4.414805	0.204434	0.640309	1.810295
1.360	3.154388	-4.918662	689.239547	12.464530	-4.859525	0.208287	0.705056	1.808447
1.370	3.469721	-4.903114	688.467124	12.490938	-5.301542	0.204786	0.770050	1.814311
1.380	3.714436	-4.833200	687.257834	12.554275	-5.737119	0.197452	0.834784	1.826720
1.390	3.882582	-4.725462	685.741210	12.647349	-6.165636	0.189833	0.899120	1.844333
1.400	3.994262	-4.596913	684.063604	12.762271	-6.590173	0.184038	0.963386	1.865656
1.410	4.094123	-4.460985	682.370788	12.890544	-7.017237	0.180374	1.028361	1.889082
1.420	4.239615	-4.324646	680.792269	13.023834	-7.455109	0.177913	1.095064	1.913041
1.430	4.482779	-4.188057	679.427860	13.155313	-7.911033	0.175400	1.164367	1.936234
1.440	4.852828	-4.047229	678.337425	13.280807	-8.388267	0.171929	1.236592	1.957847
1.450	5.346532	-3.898626	677.536388	13.399063	-8.884313	0.167205	1.311267	1.977615
1.460	5.929868	-3.743507	676.999621	13.511059	-9.391214	0.161441	1.387182	1.995726
1.470	6.549609	-3.589934	676.673518	13.618812	-9.897775	0.155056	1.462711	2.012612
1.480	7.149792	-3.451341	676.492481	13.724180	-10.392534	0.148313	1.536238	2.028726
1.490	7.686578	-3.342066	676.394103	13.827910	-10.865981	0.141002	1.606457	2.044357
1.500	8.136368	-3.271649	676.327965	13.928993	-11.310995	0.132372	1.672413	2.059503
1.510	8.495219	-3.240400	676.255749	14.024453	-11.721603	0.121366	1.733309	2.073839
1.520	8.771129	-3.238136	676.144931	14.109739	-12.091172	0.107136	1.788252	2.086792
1.530	8.973523	-3.246584	675.962570	14.179794	-12.411526	0.089592	1.836126	2.097719
1.540	9.105258	-3.244620	675.676527	14.230564	-12.673911	0.069667	1.875736	2.106121
1.550	9.161011	-3.214630	675.267039	14.260489	-12.871523	0.049093	1.906138	2.111830
1.560	9.132338	-3.147893	674.744425	14.271566	-13.002321	0.029790	1.926999	2.115107
1.570	9.015909	-3.046907	674.163842	14.269813	-13.070753	0.013241	1.938810	2.116668
1.580	8.820047	-2.923463	673.628690	14.265208	-13.087707	0.000265	1.942867	2.117666
1.590	8.566524	-2.793011	673.278751	14.271272	-13.068950	-0.008773	1.941090	2.119668
1.600	8.287876	-2.667724	673.264028	14.304215	-13.032686	-0.013597	1.935747	2.124607
1.610	8.022532	-2.551247	673.709309	14.381384	-12.996846	-0.013913	1.929148	2.134657
1.620	7.809402	-2.437011	674.678154	14.518786	-12.976389	-0.009646	1.923345	2.151957
1.630	7.681836	-2.310281	676.147458	14.727963	-12.980872	-0.001313	1.919828	2.178218
1.640	7.660581	-2.153022	678.002161	15.012954	-13.012738	0.009807	1.919277	2.214293
1.650	7.747377	-1.950075	680.053781	15.368219	-13.066986	0.021885	1.921464	2.259853
1.660	7.922817	-1.694780	682.078330	15.778218	-13.132751	0.033049	1.925402	2.313256
1.670	8.151335	-1.392104	683.861926	16.218900	-13.196647	0.041958	1.929724	2.371663
1.680	8.392452	-1.058181	685.239065	16.660863	-13.246715	0.048177	1.933152	2.431394
1.690	8.613303	-0.716650	686.111408	17.073423	-13.275267	0.052203	1.934856	2.488433
1.700	8.796169	-0.393432	686.443935	17.428672	-13.279513	0.055090	1.934537	2.538980
1.710	8.937547	-0.111781	686.246179	17.704733	-13.260199	0.057831	1.932280	2.579939
1.720	9.040467	0.111197	685.552532	17.887864	-13.219497	0.060770	1.928298	2.609262
1.730	9.105707	0.266133	684.412732	17.973362	-13.159371	0.063342	1.922725	2.626100
1.740	9.127456	0.351068	682.894116	17.965389	-13.080979	0.064244	1.915521	2.630772
1.750	9.095261	0.369456	681.088746	17.875722	-12.984896	0.061906	1.906491	2.624580
1.760	8.999925	0.327144	679.116519	17.721349	-12.871584	0.055079	1.895343	2.609471
1.770	8.839303	0.229315	677.118492	17.520975	-12.741638	0.043342	1.881744	2.587579
1.780	8.621195	0.078412	675.240222	17.290981	-12.595699	0.027462	1.865366	2.560716
1.790	8.362884	-0.126196	673.610945	17.041929	-12.434334	0.009520	1.845922	2.529936
1.800	8.088472	-0.386374	672.328156	16.776993	-12.258230	-0.007275	1.823251	2.495358
1.810	7.825206	-0.701326	671.454507	16.493260	-12.068688	-0.019172	1.797395	2.456348
1.820	7.599115	-1.062791	671.025218	16.185721	-11.868010	-0.022882	1.768638	2.412088
1.830	7.429730	-1.451482	671.055987	15.852558	-11.659154	-0.016697	1.737434	2.362330
1.840	7.324205	-1.836806	671.540910	15.499606	-11.444393	-0.001290	1.704199	2.308066
1.850	7.272417	-2.180613	672.438436	15.141963	-11.223304	0.020254	1.669046	2.251799
1.860	7.245601	-2.443993	673.654766	14.801752	-10.991059	0.043296	1.631557	2.197231
1.870	7.200735	-2.595053	675.039942	14.502739	-10.738127	0.063134	1.590740	2.148427
1.880	7.090880	-2.615548	676.407436	14.264027	-10.452074	0.076532	1.545233	2.108792
1.890	6.878851	-2.504903	677.575810	14.095491	-10.121199	0.082662	1.493737	2.080283
1.900	6.549465	-2.281055	678.418554	13.996527	-9.738832	0.083101	1.435520	2.063111
1.910	6.115679	-1.978036	678.902695	13.958063	-9.306663	0.080995	1.370839	2.055974
1.920	5.616041	-1.640573	679.100467	13.966358	-8.835786	0.079838	1.301101	2.056597
1.930	5.104120	-1.316587	679.168248	14.006582	-8.344941	0.082402	1.228700	2.062314
1.940	4.633465	-1.049257	679.298269	14.064752	-7.856461	0.090145	1.156555	2.070482
1.950	4.243125	-0.870497	679.657863	14.127798	-7.391173	0.103124	1.087484	2.078663
1.960	3.948540	-0.797010	680.336165	14.182798	-6.963917	0.120241	1.023599	2.084675
1.970	3.740732	-0.829271	681.316535	14.216730	-6.581062	0.139538	0.965933	2.086656
1.980	3.593453	-0.953373	682.483646	14.217422	-6.240482	0.158455	0.914378	2.083189
1.990	3.474518	-1.145334	683.660743	14.175225	-5.933502	0.174091	0.867902	2.073430
2.000	3.356064	-1.376988	684.661871	14.084277	-5.647804	0.183610	0.824904	2.057114
2.010	3.220106	-1.622121	685.340222	13.942506	-5.370442	0.184840	0.783617	2.034392
2.020	3.059169	-1.861535	685.617460	13.750484	-5.090469	0.176942	0.742465	2.005562
2.030	2.874169	-2.085935	685.487741	13.510095	-4.800843	0.160839	0.700354	1.970873
2.040	2.671723	-2.295736	685.000666	13.224103	-4.499285	0.139144	0.656829	1.930524
2.050	2.461594	-2.497654	684.235014	12.897008	-4.187852	0.115543	0.612049	1.884880
2.060	2.254020	-2.699273	683.276156	12.536657	-3.871357	0.093873	0.566588	1.834786
2.070	2.057075	-2.903968	682.204706	12.155443	-3.555293	0.077255	0.521147	1.781788
2.080	1.874977	-3.108562	681.096227	11.769940	-3.244251	0.067573	0.476328	1.728088
2.090	1.708272	-3.304780	680.026220	11.398466	-2.941534	0.065394	0.432562	1.676180
2.100	1.555765	-3.483757	679.073385	11.057193	-2.649897	0.070246	0.390222	1.628277
2.110	1.416861	-3.641615	678.316844	10.756262	-2.372695	0.081054	0.349792	1.585728
2.120	1.292706	-3.783868	677.827783	10.497444	-2.114539	0.096549	0.311958	1.548689
2.130	1.185548	-3.926660	677.659405	10.274184	-1.880942	0.115523	0.277564	1.516128
2.140	1.097034	-4.093433	677.839063	10.073967	-1.677018	0.136940	0.247406	1.486189
2.150	1.026738	-4.307115	678.363949	9.882258	-1.505841	0.159995	0.221981	1.456778
2.160	0.971700	-4.580239	679.199812	9.686962	-1.367332	0.184191	0.201315	1.426232
2.170	0.926977	-4.907409	680.282441	9.482309	-1.258377	0.209402	0.184979	1.393878
2.180	0.886707	-5.264357	681.522975	9.271176	-1.174281	0.235798	0.172303	1.360361
2.190	0.845122	-5.614695	682.818335	9.065166	-1.110963	0.263565	0.162703	1.327610
2.200	0.797298	-5.921026	684.066637	8.882424	-1.066965	0.292468	0.155974	1.298473
2.210	0.739961	-6.154540	685.184985	8.743961	-1.044495	0.321515	0.152440	1.276146
2.220	0.672850	-6.298459	686.124148	8.669755	-1.049163	0.348979	0.152912	1.263584
2.230	0.600670	-6.344908	686.873082	8.675724	-1.088622	0.372805	0.158490	1.263075
2.240	0.534935	-6.288892	687.448745	8.772041	-1.170590	0.391194	0.170280	1.276028
2.250	0.494378	-6.124428	687.873496	8.962602	-1.300785	0.403020	0.189102	1.302943
2.260	0.502816	-5.845952	688.149517	9.245092	-1.481186	0.407929	0.215242	1.343471
2.270	0.584174	-5.454427	688.242204	9.611209	-1.708879	0.406203	0.248296	1.396486
2.280	0.755774	-4.964366	688.080798	10.046952	-1.975690	0.398598	0.287131	1.460141
2.290	1.022102	-4.407126	687.577051	10.533251	-2.268797	0.386318	0.329970	1.531938
2.300	1.371531	-3.827712	686.655360	11.047354	-2.572463	0.371076	0.374637	1.608864
2.310	1.777634	-3.275735	685.283501	11.565154	-2.870717	0.355062	0.418909	1.687645
2.320	2.205018	-2.793965	683.493536	12.064216	-3.150363	0.340660	0.460921	1.765081
2.330	2.617851	-2.408884	681.386633	12.526862	-3.403394	0.329893	0.499481	1.838437
2.340	2.988345	-2.126518	679.120760	12.942504	-3.628066	0.323842	0.534230	1.905774
2.350	3.302599	-1.934445	676.884496	13.308473	-3.828289	0.322365	0.565575	1.966137
2.360	3.562073	-1.808374	674.863555	13.628930	-4.011557	0.324313	0.594425	2.019509
2.370	3.780178	-1.720442	673.209193	13.912157	-4.185983	0.328169	0.621795	2.066543
2.380	3.974909	-1.646459	672.017868	14.167238	-4.357305	0.332776	0.648391	2.108164
2.390	4.160117	-1.570254	671.327189	14.401344	-4.526856	0.337782	0.674314	2.145205
