Time[s]	Fx[N]	Fy[N]	Fz[N]	Mx[Nm]	My[Nm]	Mz[Nm]	COPx[cm]	COPy[cm]
0.010	3.311408	1.236798	602.576408	-6.573734	4.580051	-1.029250	-0.760078	-1.090938
0.020	3.518250	1.046881	603.183138	-6.577374	4.419594	-1.047691	-0.732712	-1.090444
0.030	3.734794	0.860041	603.025439	-6.576092	4.270468	-1.065601	-0.708174	-1.090516
0.040	3.959273	0.682541	601.498845	-6.564582	4.146757	-1.082500	-0.689404	-1.091371
0.050	4.170849	0.523173	598.265574	-6.536738	4.066403	-1.097724	-0.679699	-1.092615
0.060	4.334511	0.393628	593.321714	-6.487427	4.048234	-1.110263	-0.682300	-1.093408
0.070	4.415321	0.307241	587.001228	-6.414704	4.106762	-1.118750	-0.699617	-1.092792
0.080	4.395961	0.275818	579.912240	-6.321001	4.247215	-1.121739	-0.732389	-1.089993
0.090	4.288086	0.305393	572.815817	-6.212277	4.463346	-1.118252	-0.779194	-1.084516
0.100	4.129227	0.392404	566.474337	-6.095251	4.739498	-1.108453	-0.836666	-1.075998
0.110	3.963707	0.521690	561.508317	-5.973946	5.056396	-1.094195	-0.900502	-1.063910
0.120	3.815595	0.667515	558.300260	-5.847248	5.398305	-1.079111	-0.966918	-1.047330
0.130	3.668165	0.798597	556.969329	-5.708780	5.758346	-1.068029	-1.033871	-1.024972
0.140	3.462858	0.887057	557.416361	-5.549407	6.139348	-1.065764	-1.101394	-0.995559
0.150	3.121341	0.918980	559.414761	-5.361673	6.549490	-1.075728	-1.170775	-0.958443
0.160	2.582175	0.902224	562.708445	-5.144669	6.994335	-1.098883	-1.242977	-0.914269
0.170	1.835606	0.867212	567.078405	-4.907357	7.468732	-1.133403	-1.317055	-0.865375
0.180	0.940058	0.858973	572.354448	-4.668472	7.952439	-1.175038	-1.389426	-0.815661
0.190	0.011721	0.922613	578.374211	-4.452301	8.412009	-1.218034	-1.454423	-0.769796
0.200	-0.809822	1.087357	584.917123	-4.281575	8.808609	-1.256373	-1.505958	-0.731997
0.210	-1.406332	1.355024	591.653504	-4.170486	9.108502	-1.285067	-1.539499	-0.704886
0.220	-1.717189	1.696948	598.140355	-4.121026	9.291468	-1.301079	-1.553393	-0.688973
0.230	-1.751525	2.060222	603.870728	-4.124002	9.353606	-1.303538	-1.548942	-0.682928
0.240	-1.571800	2.381095	608.357389	-4.163444	9.304012	-1.293278	-1.529366	-0.684375
0.250	-1.258175	2.601630	611.218206	-4.221531	9.157915	-1.272113	-1.498305	-0.690675
0.260	-0.871594	2.685186	612.234883	-4.281638	8.930080	-1.242353	-1.458604	-0.699346
0.270	-0.432295	2.626515	611.372056	-4.328999	8.631377	-1.206757	-1.411804	-0.708079
0.280	0.078616	2.453503	608.759715	-4.350272	8.269348	-1.168665	-1.358393	-0.714612
0.290	0.698135	2.219886	604.651765	-4.333649	7.851663	-1.131894	-1.298543	-0.716718
0.300	1.452425	1.991236	599.376368	-4.270211	7.390415	-1.100205	-1.233017	-0.712442
0.310	2.333319	1.828736	593.291034	-4.155852	6.905216	-1.076521	-1.163884	-0.700474
0.320	3.289433	1.775955	586.750244	-3.992490	6.423788	-1.062254	-1.094808	-0.680441
0.330	4.233791	1.852377	580.088195	-3.787666	5.979627	-1.056992	-1.030813	-0.652947
0.340	5.063507	2.054365	573.615318	-3.552586	5.607275	-1.058609	-0.977532	-0.619332
0.350	5.684042	2.360919	567.623670	-3.299360	5.336486	-1.063829	-0.940145	-0.581258
0.360	6.030428	2.740303	562.392961	-3.038427	5.187153	-1.069182	-0.922336	-0.540268
0.370	6.079193	3.155022	558.187649	-2.776904	5.166771	-1.072141	-0.925633	-0.497486
0.380	5.847276	3.565423	555.238943	-2.518168	5.271336	-1.072054	-0.949382	-0.453529
0.390	5.378517	3.933852	553.714371	-2.262463	5.489094	-1.070500	-0.991322	-0.408598
0.400	4.723546	4.230645	553.688378	-2.008109	5.805245	-1.070891	-1.048468	-0.362679
0.410	3.922717	4.441087	555.132348	-1.753017	6.205235	-1.077446	-1.117794	-0.315784
0.420	3.001464	4.570474	557.935160	-1.496521	6.674891	-1.093764	-1.196356	-0.268225
0.430	1.981587	4.644100	561.946837	-1.241463	7.197344	-1.121399	-1.280787	-0.220922
0.440	0.902304	4.700596	567.019714	-0.995853	7.748578	-1.158849	-1.366545	-0.175629
0.450	-0.163083	4.779907	573.018485	-0.772904	8.294640	-1.201422	-1.447534	-0.134883
0.460	-1.109281	4.909896	579.787759	-0.588546	8.793120	-1.242168	-1.516610	-0.101511
0.470	-1.824391	5.096743	587.093711	-0.456838	9.199444	-1.273781	-1.566946	-0.077813
0.480	-2.228210	5.323030	594.576789	-0.385111	9.475812	-1.290855	-1.593707	-0.064771
0.490	-2.302788	5.554157	601.751148	-0.371162	9.598902	-1.291614	-1.595161	-0.061680
0.500	-2.096810	5.750191	608.063499	-0.403893	9.562918	-1.278324	-1.572684	-0.066423
0.510	-1.699978	5.878127	612.993249	-0.467100	9.376905	-1.256201	-1.529691	-0.076200
0.520	-1.200708	5.920078	616.155860	-0.544519	9.058023	-1.231384	-1.470086	-0.088374
0.530	-0.649061	5.875479	617.371980	-0.623966	8.624051	-1.208902	-1.396897	-0.101068
0.540	-0.042381	5.758359	616.682542	-0.699239	8.088117	-1.191425	-1.311553	-0.113387
0.550	0.661798	5.592188	614.312538	-0.769772	7.457225	-1.179140	-1.213914	-0.125306
0.560	1.514362	5.404335	610.602857	-0.838993	6.734439	-1.170552	-1.102916	-0.137404
0.570	2.540929	5.220774	605.935791	-0.912537	5.923310	-1.163646	-0.977548	-0.150600
0.580	3.721118	5.060974	600.676489	-0.997075	5.032456	-1.156748	-0.837798	-0.165992
0.590	4.988787	4.933344	595.142516	-1.099937	4.078255	-1.148699	-0.685257	-0.184819
0.600	6.251542	4.832450	589.600548	-1.229115	3.084490	-1.138470	-0.523149	-0.208466
0.610	7.420044	4.739548	584.278290	-1.393044	2.079175	-1.124680	-0.355854	-0.238421
0.620	8.434389	4.627178	579.375624	-1.599529	1.090112	-1.105503	-0.188153	-0.276078
0.630	9.277115	4.466970	575.063851	-1.853680	0.141082	-1.079188	-0.024533	-0.322343
0.640	9.969113	4.238233	571.472901	-2.155394	-0.750098	-1.044977	0.131257	-0.377165
0.650	10.552750	3.934462	568.676820	-2.497526	-1.571616	-1.003881	0.276364	-0.439182
0.660	11.071764	3.565675	566.690208	-2.865920	-2.316619	-0.958773	0.408798	-0.505730
0.670	11.557219	3.156011	565.480547	-3.241802	-2.982036	-0.913663	0.527345	-0.573283
0.680	12.023543	2.737717	564.989856	-3.605947	-3.567717	-0.872523	0.631466	-0.638232
0.690	12.472310	2.343891	565.153402	-3.943062	-4.075788	-0.838262	0.721183	-0.697698
0.700	12.898022	2.002485	565.907171	-4.244761	-4.509932	-0.812225	0.796939	-0.750081
0.710	13.291519	1.732668	567.184067	-4.510352	-4.874451	-0.794221	0.859413	-0.795218
0.720	13.640548	1.543049	568.903929	-4.745718	-5.173267	-0.782837	0.909339	-0.834186
0.730	13.929929	1.430751	570.962630	-4.961032	-5.409118	-0.775843	0.947368	-0.868889
0.740	14.143409	1.381196	573.223950	-5.167824	-5.583076	-0.770631	0.973978	-0.901537
0.750	14.266838	1.369633	575.516914	-5.375732	-5.694238	-0.764747	0.989413	-0.934070
0.760	14.290510	1.365860	577.640832	-5.589521	-5.739386	-0.756514	0.993591	-0.967646
0.770	14.209017	1.342312	579.380215	-5.807435	-5.712645	-0.745553	0.985992	-1.002353
0.780	14.019251	1.283286	580.531210	-6.021952	-5.605607	-0.732845	0.965600	-1.037317
0.790	13.719080	1.191105	580.938179	-6.223148	-5.408477	-0.720100	0.930990	-1.071224
0.800	13.309026	1.085313	580.532891	-6.403579	-5.112433	-0.708608	0.880645	-1.103052
0.810	12.796916	0.993918	579.363047	-6.562567	-4.712639	-0.698124	0.813417	-1.132721
0.820	12.202425	0.939484	577.595983	-6.707701	-4.210726	-0.686471	0.729009	-1.161314
0.830	11.557134	0.925661	575.490280	-6.852467	-3.615394	-0.670220	0.628229	-1.190718
0.840	10.897673	0.930008	573.341264	-7.010691	-2.940574	-0.646340	0.512884	-1.222778
0.850	10.253985	0.906821	571.419527	-7.189831	-2.201798	-0.614253	0.385321	-1.258240
0.860	9.638857	0.800255	569.925239	-7.385543	-1.412449	-0.577489	0.247830	-1.295879
0.870	9.045045	0.564393	568.971136	-7.579355	-0.581493	-0.544239	0.102201	-1.332116
0.880	8.451609	0.184210	568.591514	-7.740427	0.286603	-0.526391	-0.050406	-1.361333
0.890	7.834647	-0.309772	568.765570	-7.831448	1.190260	-0.537122	-0.209271	-1.376920
0.900	7.175186	-0.839153	569.445244	-7.817571	2.128479	-0.587525	-0.373781	-1.372840
0.910	6.461158	-1.290288	570.582956	-7.676042	3.098641	-0.683140	-0.543066	-1.345298
0.920	5.687068	-1.539767	572.154841	-7.403524	4.094777	-0.821492	-0.715676	-1.293972
0.930	4.856732	-1.485893	574.170200	-7.018487	5.106617	-0.991626	-0.889391	-1.222370
0.940	3.988719	-1.076690	576.656488	-6.557658	6.119905	-1.176088	-1.061274	-1.137186
0.950	3.117065	-0.325672	579.619441	-6.067658	7.118347	-1.354830	-1.228107	-1.046835
0.960	2.280498	0.689178	582.996260	-5.594610	8.086696	-1.509692	-1.387092	-0.959630
0.970	1.503449	1.841968	586.631012	-5.175090	9.013349	-1.627906	-1.536460	-0.882171
0.980	0.782666	2.985121	590.292498	-4.830955	9.890655	-1.703638	-1.675552	-0.818400
0.990	0.092916	3.977777	593.729619	-4.568815	10.712319	-1.737485	-1.804242	-0.769511
1.000	-0.587783	4.710007	596.735381	-4.383108	11.469409	-1.734694	-1.922026	-0.734515
1.010	-1.248626	5.119017	599.184858	-4.260693	12.147771	-1.703081	-2.027383	-0.711082
1.020	-1.832800	5.196043	601.027861	-4.185145	12.729170	-1.651361	-2.117900	-0.696331
1.030	-2.252105	4.984117	602.243447	-4.139878	13.196437	-1.588050	-2.191213	-0.687409
1.040	-2.424148	4.567521	602.784922	-4.110124	13.540649	-1.520788	-2.246348	-0.681856
1.050	-2.313379	4.054379	602.549066	-4.084049	13.767157	-1.455898	-2.284819	-0.677795
1.060	-1.954882	3.555325	601.390737	-4.053104	13.897610	-1.398122	-2.310912	-0.673955
1.070	-1.448846	3.162766	599.180842	-4.011662	13.966737	-1.350545	-2.330972	-0.669524
1.080	-0.928340	2.935581	595.883317	-3.956241	14.014818	-1.314679	-2.351940	-0.663929
1.090	-0.515422	2.892618	591.616240	-3.884883	14.078459	-1.290578	-2.379661	-0.656656
1.100	-0.284669	3.015610	586.669214	-3.797038	14.182865	-1.276912	-2.417523	-0.647220
1.110	-0.247898	3.259503	581.469235	-3.693808	14.338089	-1.271111	-2.465838	-0.635254
1.120	-0.363186	3.566548	576.508636	-3.578083	14.540108	-1.269794	-2.522097	-0.620647
1.130	-0.561257	3.880166	572.260628	-3.454333	14.775702	-1.269583	-2.581988	-0.603629
1.140	-0.776670	4.155378	569.107010	-3.328260	15.028865	-1.268105	-2.640780	-0.584822
1.150	-0.971381	4.364338	567.293098	-3.206650	15.286291	-1.264692	-2.694602	-0.565255
1.160	-1.142846	4.497456	566.913224	-3.097527	15.540308	-1.260356	-2.741215	-0.546385
1.170	-1.315948	4.561622	567.920757	-3.010316	15.788878	-1.256941	-2.780120	-0.530059
1.180	-1.524516	4.576618	570.151728	-2.955468	16.033441	-1.255811	-2.812136	-0.518365
1.190	-1.791773	4.569837	573.351796	-2.943183	16.276036	-1.256735	-2.838752	-0.513329
1.200	-2.118285	4.569198	577.201539	-2.981397	16.517077	-1.257517	-2.861579	-0.516526
1.210	-2.481702	4.595023	581.342089	-3.073666	16.754441	-1.254581	-2.882028	-0.528719
1.220	-2.846784	4.652949	585.407430	-3.217760	16.983602	-1.244307	-2.901159	-0.549662
1.230	-3.179311	4.730686	589.067029	-3.405510	17.198011	-1.224591	-2.919534	-0.578119
1.240	-3.455824	4.800746	592.073015	-3.623981	17.389004	-1.195991	-2.936970	-0.612083
1.250	-3.663978	4.829197	594.296449	-3.857708	17.545247	-1.161970	-2.952272	-0.649122
1.260	-3.794620	4.787792	595.735368	-4.091443	17.652441	-1.128065	-2.963135	-0.686789
1.270	-3.832527	4.665046	596.487235	-4.312745	17.694197	-1.100240	-2.966400	-0.723024
1.280	-3.753532	4.471917	596.694677	-4.513795	17.654452	-1.083061	-2.958708	-0.756466
1.290	-3.530916	4.239674	596.485266	-4.692012	17.520924	-1.078362	-2.937361	-0.786610
1.300	-3.147436	4.010546	595.926509	-4.849483	17.288570	-1.084830	-2.901125	-0.813772
1.310	-2.606232	3.824401	595.008442	-4.991613	16.962101	-1.098443	-2.850733	-0.838915
1.320	-1.935665	3.706276	593.655425	-5.125553	16.556975	-1.113481	-2.788987	-0.863389
1.330	-1.187324	3.659140	591.761416	-5.258854	16.098677	-1.123803	-2.720468	-0.888678
1.340	-0.429079	3.664319	589.240100	-5.398404	15.620164	-1.124149	-2.650900	-0.916164
1.350	0.265114	3.689132	586.079271	-5.549509	15.157533	-1.111182	-2.586260	-0.946887
1.360	0.828096	3.698623	582.385541	-5.715023	14.744340	-1.084027	-2.531715	-0.981313
1.370	1.213737	3.666670	578.403571	-5.894731	14.405637	-1.044293	-2.490586	-1.019138
1.380	1.408689	3.582203	574.498718	-6.085422	14.153357	-0.995729	-2.463601	-1.059258
1.390	1.436406	3.448731	571.102914	-6.281991	13.984655	-0.943612	-2.448710	-1.099975
1.400	1.350066	3.278697	568.635852	-6.479487	13.883911	-0.893842	-2.441617	-1.139479
1.410	1.215641	3.086332	567.422783	-6.675484	13.827731	-0.851803	-2.436936	-1.176457
1.420	1.091109	2.882449	567.632504	-6.871857	13.791118	-0.821355	-2.429586	-1.210617
1.430	1.009953	2.672693	569.251714	-7.075137	13.752758	-0.804366	-2.415936	-1.242884
1.440	0.975309	2.458616	572.097628	-7.295044	13.698072	-0.800925	-2.394359	-1.275140
1.450	0.966227	2.240030	575.858282	-7.541447	13.619639	-0.809915	-2.365103	-1.309601
1.460	0.952391	2.017373	580.145791	-7.820706	13.515537	-0.829479	-2.329679	-1.348059
1.470	0.910791	1.793610	584.549989	-8.132724	13.386661	-0.857137	-2.290080	-1.391279
1.480	0.838088	1.575442	588.682920	-8.469747	13.234335	-0.889702	-2.248126	-1.438762
1.490	0.754427	1.373419	592.207657	-8.817287	13.059271	-0.923354	-2.205184	-1.488884
1.500	0.696945	1.200482	594.850673	-9.156772	12.862209	-0.954101	-2.162259	-1.539340
1.510	0.704572	1.068861	596.405455	-9.469113	12.645619	-0.978546	-2.120306	-1.587697
1.520	0.800067	0.986066	596.740002	-9.738348	12.415132	-0.994602	-2.080493	-1.631925
1.530	0.978339	0.951396	595.815936	-9.954705	12.179478	-1.001824	-2.044168	-1.670769
1.540	1.208446	0.954375	593.713425	-10.116564	11.948554	-1.001186	-2.012512	-1.703947
1.550	1.449241	0.975797	590.644446	-10.230877	11.730503	-0.994449	-1.986052	-1.732155
1.560	1.669757	0.991036	586.937137	-10.311845	11.529401	-0.983426	-1.964333	-1.756891
1.570	1.862019	0.974721	582.986814	-10.378015	11.344953	-0.969460	-1.946005	-1.780146
1.580	2.038848	0.905793	579.185930	-10.448348	11.174596	-0.953297	-1.929363	-1.803971
1.590	2.218782	0.772050	575.855996	-10.538091	11.017082	-0.935300	-1.913166	-1.829987
1.600	2.407462	0.573258	573.204030	-10.655422	10.875736	-0.915928	-1.897359	-1.858923
1.610	2.585929	0.321886	571.315158	-10.799777	10.759635	-0.896319	-1.883310	-1.890336
1.620	2.711990	0.040926	570.177403	-10.962423	10.681929	-0.878722	-1.873440	-1.922634
1.630	2.734154	-0.240974	569.722858	-11.129246	10.655870	-0.866449	-1.870360	-1.953449
1.640	2.611810	-0.495961	569.867138	-11.285000	10.690224	-0.863142	-1.875915	-1.980286
1.650	2.332598	-0.703208	570.535023	-11.417712	10.785964	-0.871603	-1.890500	-2.001229
1.660	1.919484	-0.852988	571.668416	-11.521848	10.935524	-0.892694	-1.912914	-2.015477
1.670	1.424727	-0.947214	573.218662	-11.599307	11.124823	-0.924867	-1.940764	-2.023540
1.680	0.913347	-0.996442	575.129194	-11.658123	11.337165	-0.964524	-1.971238	-2.027044
1.690	0.442381	-1.014774	577.317812	-11.709515	11.557453	-1.007066	-2.001922	-2.028262
1.700	0.043392	-1.014844	579.669083	-11.764404	11.774977	-1.048213	-2.031327	-2.029504
1.710	-0.285529	-1.004657	582.043865	-11.830540	11.983682	-1.085155	-2.058897	-2.032586
1.720	-0.575110	-0.986796	584.305097	-11.911040	12.179978	-1.117171	-2.084524	-2.038497
1.730	-0.868753	-0.959431	586.349944	-12.004575	12.359256	-1.145530	-2.107829	-2.047340
1.740	-1.200492	-0.918169	588.132804	-12.106805	12.512872	-1.172734	-2.127559	-2.058515
1.750	-1.575657	-0.858143	589.665669	-12.212317	12.627101	-1.201385	-2.141400	-2.071058
1.760	-1.962752	-0.776110	590.992705	-12.316259	12.684758	-1.233051	-2.146348	-2.083995
1.770	-2.300863	-0.672394	592.149390	-12.415135	12.669053	-1.267481	-2.139503	-2.096622
1.780	-2.519910	-0.552235	593.125194	-12.506695	12.568227	-1.302393	-2.118984	-2.108610
1.790	-2.564771	-0.425872	593.847477	-12.589235	12.379088	-1.333865	-2.084557	-2.119944
1.800	-2.412601	-0.306926	594.194209	-12.660724	12.108030	-1.357235	-2.037723	-2.130738
1.810	-2.076702	-0.209353	594.029729	-12.718172	11.769261	-1.368227	-1.981258	-2.140999
1.820	-1.597525	-0.144107	593.248215	-12.757650	11.381170	-1.363981	-1.918450	-2.150474
1.830	-1.027547	-0.116789	591.808774	-12.775246	10.962366	-1.343735	-1.852349	-2.158678
1.840	-0.418515	-0.127101	589.753626	-12.768750	10.528731	-1.309073	-1.785276	-2.165099
1.850	0.184079	-0.169859	587.210569	-12.739229	10.091944	-1.263793	-1.718624	-2.169448
1.860	0.740590	-0.236592	584.385637	-12.691675	9.659146	-1.213467	-1.652872	-2.171798
1.870	1.216488	-0.316622	581.549985	-12.634410	9.233000	-1.164743	-1.587654	-2.172541
1.880	1.585981	-0.397267	579.020667	-12.577565	8.811533	-1.124364	-1.521799	-2.172214
1.890	1.839725	-0.463642	577.133017	-12.531126	8.387600	-1.098019	-1.453322	-2.171272
1.900	1.991681	-0.499135	576.204157	-12.502999	7.948289	-1.089185	-1.379422	-2.169890
1.910	2.079794	-0.487531	576.490345	-12.497489	7.474920	-1.098262	-1.296625	-2.167857
1.920	2.159035	-0.417015	578.143005	-12.514579	6.944256	-1.122264	-1.201131	-2.164617
1.930	2.289801	-0.285008	581.169249	-12.550170	6.331274	-1.155225	-1.089403	-2.159469
1.940	2.526242	-0.101640	585.403965	-12.596991	5.613342	-1.189266	-0.958884	-2.151846
1.950	2.907566	0.110416	590.502167	-12.645619	4.774989	-1.216076	-0.808632	-2.141503
1.960	3.453157	0.320829	595.960548	-12.685188	3.811941	-1.228500	-0.639630	-2.128528
1.970	4.161416	0.500090	601.172881	-12.703881	2.732989	-1.221858	-0.454609	-2.113183
1.980	5.012448	0.628476	605.513449	-12.689618	1.558873	-1.194694	-0.257447	-2.095679
1.990	5.974550	0.701764	608.429981	-12.631349	0.318610	-1.148712	-0.052366	-2.076056
2.000	7.013048	0.731419	609.521349	-12.520993	-0.955213	-1.087965	0.156715	-2.054234
2.010	8.098048	0.739522	608.581159	-12.355704	-2.230346	-1.017607	0.366483	-2.030248
2.020	9.207379	0.750801	605.603261	-12.139748	-3.476985	-0.942665	0.574136	-2.004571
2.030	10.323533	0.784824	600.759942	-11.885163	-4.668285	-0.867164	0.777063	-1.978355
2.040	11.427735	0.850578	594.369487	-11.610550	-5.780387	-0.793754	0.972524	-1.953423
2.050	12.496726	0.944251	586.863984	-11.337920	-6.792988	-0.723833	1.157506	-1.931950
2.060	13.505691	1.049935	578.756465	-11.088332	-7.690611	-0.658098	1.328816	-1.915889
2.070	14.434873	1.142626	570.598509	-10.877566	-8.463664	-0.597304	1.483296	-1.906343
2.080	15.272803	1.193085	562.922331	-10.713207	-9.107977	-0.542875	1.617981	-1.903141
2.090	16.010401	1.174238	556.173600	-10.593936	-9.622188	-0.497121	1.730069	-1.904789
2.100	16.627473	1.068493	550.654039	-10.510903	-10.003814	-0.462943	1.816715	-1.908803
2.110	17.080788	0.874705	546.496266	-10.450310	-10.245966	-0.443120	1.874846	-1.912238
2.120	17.304547	0.612661	543.682871	-10.396159	-10.336605	-0.439404	1.901219	-1.912173
2.130	17.227728	0.322694	542.102592	-10.332410	-10.261020	-0.451690	1.892819	-1.905988
2.140	16.802454	0.059115	541.619476	-10.244251	-10.006602	-0.477618	1.847534	-1.891411
2.150	16.029883	-0.121492	542.125021	-10.118583	-9.567799	-0.512913	1.764870	-1.866467
2.160	14.969508	-0.173661	543.552209	-9.944222	-8.948834	-0.552581	1.646361	-1.829488
2.170	13.724265	-0.073555	545.851048	-9.712554	-8.162622	-0.592636	1.495394	-1.779342
2.180	12.404538	0.177194	548.948400	-9.419454	-7.226328	-0.631614	1.316395	-1.715909
2.190	11.084942	0.555418	552.726701	-9.068699	-6.156166	-0.671015	1.113781	-1.640720
2.200	9.773952	1.025607	557.046503	-8.675986	-4.964967	-0.714263	0.891302	-1.557498
2.210	8.413652	1.549382	561.808329	-8.271379	-3.664759	-0.764540	0.652315	-1.472278
2.220	6.913867	2.090599	567.016812	-7.897715	-2.273532	-0.822527	0.400964	-1.392854
2.230	5.206711	2.614478	572.798254	-7.603510	-0.822538	-0.885195	0.143600	-1.327432
2.240	3.294848	3.083091	579.343609	-7.431330	0.640304	-0.946361	-0.110522	-1.282715
2.250	1.268820	3.452197	586.791569	-7.405317	2.053350	-0.998925	-0.349928	-1.262001
2.260	-0.714122	3.674038	595.102783	-7.522964	3.349558	-1.037846	-0.562854	-1.264145
2.270	-2.476057	3.707206	603.982865	-7.755029	4.466650	-1.062370	-0.739533	-1.283982
2.280	-3.864800	3.530111	612.887265	-8.054023	5.355338	-1.076253	-0.873788	-1.314112
2.290	-4.781617	3.151994	621.104203	-8.367975	5.983517	-1.085819	-0.963368	-1.347274
2.300	-5.186024	2.616265	627.884636	-8.654075	6.336560	-1.096873	-1.009192	-1.378291
2.310	-5.085274	1.994106	632.579090	-8.887424	6.415167	-1.112104	-1.014129	-1.404951
2.320	-4.519022	1.369971	634.746233	-9.062674	6.232429	-1.130145	-0.981877	-1.427763
2.330	-3.546108	0.823416	634.210340	-9.189355	5.811241	-1.146520	-0.916295	-1.448944
