Time[s]	Fx[N]	Fy[N]	Fz[N]	Mx[Nm]	My[Nm]	Mz[Nm]	COPx[cm]	COPy[cm]
0.010	6.228851	0.235561	563.393071	-2.450378	4.565362	0.024867	-0.810333	-0.434932
0.020	6.086814	0.192798	562.676740	-2.427718	4.799525	0.006916	-0.852981	-0.431459
0.030	5.964496	0.170637	562.026387	-2.402936	5.032948	-0.008247	-0.895500	-0.427549
0.040	5.870265	0.184432	561.489681	-2.372669	5.267831	-0.018775	-0.938188	-0.422567
0.050	5.795307	0.241523	561.096584	-2.332189	5.510544	-0.024233	-0.982103	-0.415648
0.060	5.713633	0.340373	560.864088	-2.276320	5.770466	-0.025604	-1.028853	-0.405860
0.070	5.589717	0.471761	560.808677	-2.201078	6.056651	-0.024859	-1.079985	-0.392483
0.080	5.391876	0.621365	560.958781	-2.105250	6.373619	-0.024268	-1.136201	-0.375295
0.090	5.106479	0.773039	561.357672	-1.991205	6.718164	-0.025666	-1.196771	-0.354712
0.100	4.746786	0.912055	562.051270	-1.864642	7.078846	-0.029879	-1.259466	-0.331757
0.110	4.351801	1.027545	563.063245	-1.733418	7.438651	-0.036492	-1.321104	-0.307855
0.120	3.974467	1.113549	564.367590	-1.605864	7.779902	-0.044077	-1.378517	-0.284542
0.130	3.663381	1.168663	565.872552	-1.488966	8.089449	-0.050881	-1.429553	-0.263127
0.140	3.445571	1.194723	567.426506	-1.386777	8.362072	-0.055752	-1.473684	-0.244398
0.150	3.317818	1.195111	568.846271	-1.299493	8.600892	-0.058840	-1.511989	-0.228444
0.160	3.250163	1.173429	569.957214	-1.223565	8.814910	-0.061651	-1.546591	-0.214677
0.170	3.199573	1.133291	570.630205	-1.152943	9.014882	-0.066351	-1.579812	-0.202047
0.180	3.127444	1.079469	570.804859	-1.080982	9.209141	-0.074680	-1.613361	-0.189379
0.190	3.013831	1.019729	570.495808	-1.002166	9.400768	-0.087020	-1.647824	-0.175666
0.200	2.863599	0.965953	569.783385	-0.912946	9.586906	-0.102079	-1.682553	-0.160227
0.210	2.703191	0.933283	568.792351	-0.811630	9.760266	-0.117366	-1.715963	-0.142694
0.220	2.569801	0.937025	567.664366	-0.697847	9.912159	-0.130282	-1.746130	-0.122933
0.230	2.497093	0.988210	566.531462	-0.572216	10.035944	-0.139334	-1.771472	-0.101003
0.240	2.502765	1.089619	565.496358	-0.436396	10.129778	-0.144933	-1.791307	-0.077170
0.250	2.582471	1.234156	564.621727	-0.293207	10.197830	-0.149383	-1.806135	-0.051930
0.260	2.711758	1.406506	563.927855	-0.146411	10.249653	-0.156079	-1.817547	-0.025963
0.270	2.854408	1.587336	563.398134	-0.000031	10.298045	-0.168247	-1.827845	-0.000005
0.280	2.973535	1.758158	562.991708	0.142525	10.356229	-0.187740	-1.839499	0.025316
0.290	3.041430	1.905076	562.660630	0.279082	10.435384	-0.214355	-1.854650	0.049600
0.300	3.045134	2.020455	562.366920	0.408820	10.543183	-0.245896	-1.874787	0.072696
0.310	2.986353	2.102440	562.095216	0.531896	10.683495	-0.278910	-1.900656	0.094627
0.320	2.876580	2.153059	561.858466	0.648754	10.856840	-0.309725	-1.932309	0.115466
0.330	2.730419	2.176209	561.696166	0.759303	11.061044	-0.335373	-1.969222	0.135180
0.340	2.560801	2.176590	561.666698	0.862228	11.291656	-0.354108	-2.010384	0.153512
0.350	2.378269	2.159770	561.835938	0.954843	11.542067	-0.365473	-2.054348	0.169950
0.360	2.193492	2.132704	562.262537	1.033840	11.803646	-0.370021	-2.099312	0.183871
0.370	2.019945	2.103871	562.979301	1.096854	12.066366	-0.368934	-2.143306	0.194830
0.380	1.873636	2.082467	563.973928	1.144131	12.320187	-0.363741	-2.184531	0.202869
0.390	1.768926	2.076589	565.178120	1.179265	12.556863	-0.356227	-2.221753	0.208654
0.400	1.712437	2.090844	566.474221	1.208366	12.771455	-0.348354	-2.254552	0.213314
0.410	1.698852	2.124186	567.720342	1.237931	12.962756	-0.342014	-2.283300	0.218053
0.420	1.711578	2.168931	568.784648	1.272506	13.132439	-0.338510	-2.308860	0.223724
0.430	1.728274	2.211820	569.574814	1.313239	13.283317	-0.337987	-2.332146	0.230565
0.440	1.728458	2.237379	570.051765	1.357807	13.417552	-0.339116	-2.353743	0.238190
0.450	1.699742	2.232810	570.224499	1.401624	13.535607	-0.339306	-2.373733	0.245802
0.460	1.640400	2.192709	570.130759	1.439840	13.636393	-0.335464	-2.391801	0.252546
0.470	1.557904	2.121823	569.813645	1.469573	13.718464	-0.325055	-2.407535	0.257904
0.480	1.464624	2.034627	569.305474	1.491632	13.781513	-0.307098	-2.420759	0.262009
0.490	1.372752	1.951599	568.626233	1.510945	13.827184	-0.282674	-2.431682	0.265719
0.500	1.290480	1.893134	567.795833	1.535245	13.858627	-0.254687	-2.440776	0.270387
0.510	1.220840	1.872958	566.851443	1.572298	13.878974	-0.226897	-2.448432	0.277374
0.520	1.163536	1.893388	565.859030	1.626889	13.889623	-0.202615	-2.454608	0.287508
0.530	1.118675	1.944380	564.912637	1.698963	13.889253	-0.183651	-2.458655	0.300748
0.540	1.090151	2.006991	564.121413	1.783810	13.874057	-0.169966	-2.459410	0.316210
0.550	1.086508	2.060097	563.588450	1.874077	13.839082	-0.160116	-2.455530	0.332526
0.560	1.118514	2.087767	563.386879	1.962666	13.780139	-0.152141	-2.445946	0.348369
0.570	1.194542	2.084415	563.539514	2.045263	13.695586	-0.144426	-2.430280	0.362932
0.580	1.315876	2.055834	564.008733	2.121607	13.587329	-0.136231	-2.409064	0.376166
0.590	1.473972	2.016049	564.701647	2.195170	13.460678	-0.127895	-2.383680	0.388731
0.600	1.650808	1.981671	565.490963	2.271591	13.323052	-0.120793	-2.356015	0.401703
0.610	1.822281	1.966380	566.245925	2.356660	13.181973	-0.117039	-2.327959	0.416190
0.620	1.963666	1.977846	566.862986	2.454720	13.043097	-0.118850	-2.300926	0.433036
0.630	2.055664	2.017983	567.285441	2.568036	12.909024	-0.127670	-2.275578	0.452689
0.640	2.089564	2.085657	567.506297	2.697029	12.779241	-0.143424	-2.251824	0.475242
0.650	2.070239	2.179882	567.556311	2.840890	12.650961	-0.164292	-2.229023	0.500548
0.660	2.016106	2.301692	567.484826	2.998083	12.520316	-0.187103	-2.206282	0.528311
0.670	1.955921	2.453983	567.341748	3.166546	12.383391	-0.208134	-2.182704	0.558137
0.680	1.923099	2.639630	567.165593	3.343694	12.236870	-0.224003	-2.157548	0.589545
0.690	1.948794	2.858676	566.978074	3.526370	12.078344	-0.232386	-2.130302	0.621959
0.700	2.055183	3.105229	566.783724	3.710815	11.906477	-0.232436	-2.100709	0.654714
0.710	2.250450	3.364905	566.573580	3.892667	11.721150	-0.224855	-2.068778	0.687054
0.720	2.526867	3.614207	566.331984	4.067055	11.523526	-0.211680	-2.034765	0.718140
0.730	2.862832	3.823446	566.044375	4.228995	11.315903	-0.195891	-1.999119	0.747114
0.740	3.228715	3.963702	565.703749	4.374260	11.101303	-0.180890	-1.962388	0.773242
0.750	3.595004	4.016042	565.314812	4.500518	10.882818	-0.169934	-1.925090	0.796108
0.760	3.940112	3.979399	564.895588	4.608206	10.662982	-0.165569	-1.887602	0.815762
0.770	4.254838	3.873520	564.475768	4.700572	10.443448	-0.169180	-1.850114	0.832732
0.780	4.541496	3.735362	564.091361	4.782861	10.225194	-0.180794	-1.812684	0.847888
0.790	4.808201	3.610016	563.776642	4.861112	10.009200	-0.199206	-1.775384	0.862241
0.800	5.061404	3.539280	563.555338	4.941075	9.797282	-0.222407	-1.738477	0.876768
0.810	5.300684	3.551699	563.433056	5.027379	9.592687	-0.248109	-1.702542	0.892276
0.820	5.518163	3.656748	563.393415	5.122716	9.400044	-0.274145	-1.668469	0.909261
0.830	5.701934	3.843964	563.400641	5.226921	9.224617	-0.298611	-1.637310	0.927745
0.840	5.840988	4.086226	563.409907	5.336258	9.071144	-0.319816	-1.610043	0.947136
0.850	5.929254	4.345907	563.383055	5.443456	8.942774	-0.336211	-1.587335	0.966209
0.860	5.967712	4.582514	563.303597	5.538836	8.840478	-0.346459	-1.569398	0.983277
0.870	5.964592	4.760362	563.183718	5.612339	8.762995	-0.349704	-1.555974	0.996538
0.880	5.933912	4.854852	563.059060	5.655794	8.707228	-0.345966	-1.546415	1.004476
0.890	5.892546	4.856405	562.973846	5.664711	8.669006	-0.336435	-1.539859	1.006212
0.900	5.856492	4.771673	562.964799	5.639150	8.644033	-0.323435	-1.535448	1.001688
0.910	5.837563	4.621862	563.052214	5.583528	8.628641	-0.309929	-1.532476	0.991654
0.920	5.841721	4.438038	563.240365	5.505511	8.619992	-0.298744	-1.530429	0.977471
0.930	5.869499	4.253917	563.522893	5.414255	8.615760	-0.291864	-1.528910	0.960787
0.940	5.917890	4.097867	563.887180	5.318349	8.613741	-0.290098	-1.527565	0.943158
0.950	5.982221	3.986712	564.314709	5.223935	8.611860	-0.293189	-1.526074	0.925713
0.960	6.056592	3.923341	564.778978	5.133494	8.608636	-0.300149	-1.524249	0.908939
0.970	6.132600	3.898439	565.245549	5.045615	8.603748	-0.309600	-1.522126	0.892641
0.980	6.197828	3.895010	565.678009	4.955649	8.598172	-0.319995	-1.519976	0.876055
0.990	6.236462	3.893662	566.049220	4.856889	8.593645	-0.329801	-1.518180	0.858033
1.000	6.233277	3.876850	566.352643	4.741973	8.591599	-0.337689	-1.517005	0.837283
1.010	6.179710	3.831220	566.607110	4.604418	8.592105	-0.342707	-1.516413	0.812630
1.020	6.078822	3.748178	566.850528	4.440231	8.593393	-0.344341	-1.515989	0.783316
1.030	5.946378	3.623550	567.122752	4.249268	8.592157	-0.342453	-1.515044	0.749268
1.040	5.807354	3.457315	567.444289	4.035774	8.584467	-0.337218	-1.512830	0.711219
1.050	5.689182	3.253859	567.801577	3.807678	8.566827	-0.329135	-1.508771	0.670600
1.060	5.614117	3.022121	568.146701	3.574697	8.537029	-0.319047	-1.502610	0.629186
1.070	5.593277	2.774618	568.410867	3.345897	8.494671	-0.308056	-1.494460	0.588641
1.080	5.624291	2.525043	568.524102	3.127707	8.441361	-0.297265	-1.484785	0.550145
1.090	5.693058	2.285286	568.432974	2.923116	8.380599	-0.287483	-1.474334	0.514241
1.100	5.778533	2.063180	568.111529	2.732128	8.317322	-0.279040	-1.464030	0.480914
1.110	5.858651	1.861949	567.563989	2.552940	8.257149	-0.271787	-1.454840	0.449807
1.120	5.915633	1.681474	566.820348	2.383169	8.205482	-0.265254	-1.447634	0.420445
1.130	5.939497	1.520536	565.928289	2.220696	8.166712	-0.258857	-1.443065	0.392399
1.140	5.929105	1.378564	564.945589	2.064145	8.143702	-0.252120	-1.441502	0.365370
1.150	5.890585	1.255618	563.934981	1.913079	8.137629	-0.244864	-1.443008	0.339238
1.160	5.833598	1.150379	562.960088	1.767782	8.148195	-0.237332	-1.447384	0.314016
1.170	5.766693	1.057282	562.080096	1.628419	8.174105	-0.230061	-1.454260	0.289713
1.180	5.693693	0.964756	561.343489	1.493829	8.213664	-0.223453	-1.463215	0.266117
1.190	5.612983	0.856247	560.784285	1.360683	8.265230	-0.217280	-1.473870	0.242639
1.200	5.520367	0.714446	560.424165	1.223826	8.327354	-0.210535	-1.485902	0.218375
1.210	5.413958	0.527377	560.279742	1.077954	8.398578	-0.201885	-1.498997	0.192396
1.220	5.298082	0.293928	560.369709	0.919916	8.477043	-0.190509	-1.512759	0.164162
1.230	5.183756	0.026535	560.715846	0.750330	8.560119	-0.176835	-1.526641	0.133816
1.240	5.085460	-0.250061	561.335519	0.573585	8.644208	-0.162725	-1.539936	0.102182
1.250	5.016042	-0.503848	562.228407	0.396231	8.724852	-0.150971	-1.551834	0.070475
1.260	4.982356	-0.703261	563.363584	0.224663	8.797206	-0.144346	-1.561550	0.039879
1.270	4.983469	-0.825738	564.673373	0.063070	8.856842	-0.144633	-1.568489	0.011169
1.280	5.011882	-0.864637	566.057818	-0.087734	8.900658	-0.152057	-1.572394	-0.015499
1.290	5.057001	-0.832023	567.399446	-0.230384	8.927586	-0.165286	-1.573422	-0.040603
1.300	5.109468	-0.755819	568.583765	-0.369872	8.938817	-0.181897	-1.572120	-0.065051
1.310	5.164687	-0.671751	569.518427	-0.511446	8.937457	-0.199082	-1.569301	-0.089803
1.320	5.224227	-0.612703	570.144552	-0.658049	8.927682	-0.214302	-1.565863	-0.115418
1.330	5.294559	-0.599439	570.437575	-0.808296	8.913653	-0.225715	-1.562599	-0.141698
1.340	5.383665	-0.636371	570.400203	-0.956009	8.898598	-0.232297	-1.560062	-0.167603
1.350	5.497061	-0.713895	570.053148	-1.091799	8.884385	-0.233768	-1.558519	-0.191526
1.360	5.635152	-0.815719	569.428042	-1.206173	8.871684	-0.230475	-1.557999	-0.211822
1.370	5.793057	-0.927255	568.563340	-1.292810	8.860611	-0.223302	-1.558421	-0.227382
1.380	5.962413	-1.040982	567.501736	-1.350469	8.851680	-0.213548	-1.559763	-0.237967
1.390	6.133527	-1.156768	566.288249	-1.382748	8.846842	-0.202677	-1.562251	-0.244177
1.400	6.296506	-1.277834	564.969883	-1.396151	8.850240	-0.191988	-1.566498	-0.247120
1.410	6.441213	-1.404985	563.598118	-1.397682	8.868272	-0.182364	-1.573510	-0.247993
1.420	6.557039	-1.532335	562.233841	-1.393076	8.908727	-0.174234	-1.584523	-0.247775
1.430	6.633714	-1.646910	560.951414	-1.385960	8.979192	-0.167742	-1.600708	-0.247073
1.440	6.663687	-1.732476	559.836806	-1.377586	9.085303	-0.162973	-1.622848	-0.246069
1.450	6.645346	-1.775577	558.976361	-1.366731	9.229451	-0.160096	-1.651134	-0.244506
1.460	6.585287	-1.770546	558.438329	-1.349738	9.410371	-0.159339	-1.685123	-0.241699
1.470	6.497698	-1.720830	558.254866	-1.320901	9.623709	-0.160878	-1.723892	-0.236613
1.480	6.400091	-1.636037	558.412768	-1.273318	9.863314	-0.164715	-1.766312	-0.228024
1.490	6.306541	-1.526416	558.856335	-1.200010	10.122836	-0.170665	-1.811349	-0.214726
1.500	6.221185	-1.397832	559.500002	-1.094909	10.397117	-0.178434	-1.858287	-0.195694
1.510	6.134954	-1.249918	560.245671	-0.953395	10.683087	-0.187727	-1.906858	-0.170174
1.520	6.027254	-1.078138	561.000348	-0.772375	10.979992	-0.198296	-1.957217	-0.137678
1.530	5.872160	-0.878178	561.691572	-0.550186	11.288945	-0.209871	-2.009812	-0.097952
1.540	5.647015	-0.650067	562.278998	-0.286684	11.611877	-0.222098	-2.065145	-0.050986
1.550	5.340658	-0.399902	562.760342	0.016357	11.950185	-0.234620	-2.123495	0.002907
1.560	4.958787	-0.138362	563.170341	0.354724	12.303587	-0.247314	-2.184701	0.062987
1.570	4.524640	0.123343	563.573027	0.721516	12.669649	-0.260442	-2.248093	0.128025
1.580	4.074269	0.378335	564.048799	1.107517	13.044110	-0.274493	-2.312585	0.196351
1.590	3.647203	0.627541	564.677570	1.502274	13.421732	-0.289623	-2.376884	0.266041
1.600	3.275245	0.879915	565.519353	1.895722	13.797197	-0.304946	-2.439739	0.335218
1.610	2.973587	1.148630	566.595445	2.279883	14.165655	-0.318132	-2.500136	0.402383
1.620	2.738160	1.443993	567.875205	2.649934	14.522683	-0.325659	-2.557372	0.466640
1.630	2.550593	1.765503	569.272985	3.004046	14.863733	-0.323780	-2.611003	0.527699
1.640	2.388405	2.096413	570.657095	3.341940	15.183518	-0.309837	-2.660708	0.585630
1.650	2.235326	2.403743	571.869249	3.662842	15.475982	-0.283327	-2.706210	0.640503
1.660	2.086637	2.644870	572.750501	3.963979	15.735248	-0.246321	-2.747313	0.692095
1.670	1.947273	2.779217	573.168820	4.240468	15.957277	-0.203111	-2.784045	0.739829
1.680	1.824584	2.781388	573.043487	4.486648	16.141494	-0.159276	-2.816801	0.782951
1.690	1.720566	2.651316	572.361544	4.698155	16.291600	-0.120504	-2.846383	0.820837
1.700	1.628122	2.417900	571.182211	4.873793	16.415252	-0.091507	-2.873908	0.853282
1.710	1.533026	2.134700	569.627475	5.016500	16.522752	-0.075337	-2.900624	0.880663
1.720	1.419890	1.868816	567.860231	5.133145	16.625233	-0.073188	-2.927698	0.903945
1.730	1.278635	1.686098	566.054372	5.233287	16.732909	-0.084590	-2.956060	0.924520
1.740	1.108183	1.636940	564.363977	5.327361	16.853914	-0.107775	-2.986355	0.943958
1.750	0.915877	1.746603	562.900565	5.424797	16.993889	-0.140098	-3.018986	0.963722
1.760	0.713557	2.012354	561.725652	5.532467	17.156079	-0.178454	-3.054174	0.984906
1.770	0.513117	2.407359	560.859714	5.653754	17.341529	-0.219661	-3.091955	1.008051
1.780	0.324579	2.889153	560.301143	5.788476	17.549084	-0.260809	-3.132081	1.033101
1.790	0.157658	3.409422	560.044502	5.933715	17.775143	-0.299513	-3.173881	1.059508
1.800	0.024603	3.922136	560.088526	6.085210	18.013346	-0.334041	-3.216160	1.086473
1.810	-0.059712	4.388158	560.430444	6.238591	18.254581	-0.363185	-3.257243	1.113179
1.820	-0.082945	4.776001	561.051227	6.389787	18.487769	-0.385870	-3.295202	1.138895
1.830	-0.043949	5.060101	561.901800	6.534620	18.701546	-0.400705	-3.328259	1.162947
1.840	0.040387	5.219449	562.899709	6.668348	18.886383	-0.405817	-3.355195	1.184642
1.850	0.135519	5.239150	563.940111	6.786024	19.036132	-0.399241	-3.375559	1.203323
1.860	0.198534	5.115264	564.917935	6.883927	19.148246	-0.379764	-3.389562	1.218571
1.870	0.192954	4.860543	565.753282	6.961392	19.222674	-0.347859	-3.397713	1.230464
1.880	0.102592	4.507567	566.410534	7.021928	19.260212	-0.306253	-3.400398	1.239724
1.890	-0.061567	4.106839	566.903480	7.072841	19.261222	-0.259837	-3.397619	1.247627
1.900	-0.264234	3.719456	567.283947	7.123459	19.225293	-0.214853	-3.389007	1.255713
1.910	-0.457020	3.405943	567.618309	7.182779	19.151853	-0.177532	-3.374072	1.265424
1.920	-0.593514	3.214142	567.960751	7.257430	19.041334	-0.152569	-3.352579	1.277805
1.930	-0.642547	3.169633	568.332066	7.350425	18.896271	-0.141966	-3.324864	1.293333
1.940	-0.595063	3.271434	568.710035	7.460693	18.721835	-0.144662	-3.291983	1.311862
1.950	-0.462826	3.493855	569.034216	7.583226	18.525526	-0.157079	-3.255608	1.332649
1.960	-0.270653	3.793296	569.223873	7.709733	18.315957	-0.174337	-3.217707	1.354429
1.970	-0.046217	4.117774	569.202731	7.829895	18.100992	-0.191669	-3.180061	1.375590
1.980	0.188336	4.417011	568.921180	7.933317	17.885926	-0.205614	-3.143832	1.394449
1.990	0.420394	4.651446	568.368260	8.011927	17.672603	-0.214652	-3.109358	1.409637
2.000	0.646146	4.798866	567.571421	8.062153	17.459979	-0.219181	-3.076261	1.420465
2.010	0.866493	4.857436	566.587915	8.085948	17.245747	-0.220925	-3.043790	1.427130
2.020	1.082029	4.844288	565.493969	8.090082	17.027990	-0.222027	-3.011171	1.430622
2.030	1.289685	4.789911	564.376098	8.083872	16.805958	-0.224150	-2.977794	1.432356
2.040	1.482707	4.729792	563.325020	8.076282	16.579889	-0.227885	-2.943219	1.433681
2.050	1.653648	4.695512	562.429423	8.073495	16.350415	-0.232564	-2.907105	1.435468
2.060	1.798097	4.707329	561.766180	8.077727	16.118181	-0.236474	-2.869198	1.437916
2.070	1.916386	4.769510	561.386495	8.087367	15.883908	-0.237342	-2.829407	1.440606
2.080	2.012068	4.869107	561.302517	8.098150	15.648789	-0.232975	-2.787942	1.442742
2.090	2.088363	4.978669	561.482464	8.104898	15.414930	-0.221918	-2.745398	1.443482
2.100	2.145264	5.063086	561.860153	8.103336	15.185410	-0.203939	-2.702703	1.442234
2.110	2.179483	5.089388	562.357040	8.091432	14.963720	-0.180167	-2.660893	1.438843
2.120	2.187461	5.036726	562.907049	8.069822	14.752676	-0.152841	-2.620802	1.433598
2.130	2.169804	4.903069	563.472911	8.041239	14.553229	-0.124770	-2.582774	1.427085
2.140	2.134863	4.706173	564.048128	8.009314	14.363649	-0.098734	-2.546529	1.419970
2.150	2.099732	4.478554	564.646105	7.977321	14.179407	-0.077002	-2.511202	1.412800
2.160	2.087919	4.258362	565.283125	7.947288	13.993859	-0.061063	-2.475549	1.405895
2.170	2.123981	4.079359	565.962777	7.919554	13.799536	-0.051594	-2.438241	1.399307
2.180	2.226416	3.963014	566.667339	7.892661	13.589653	-0.048630	-2.398171	1.392821
2.190	2.401112	3.914704	567.358111	7.863538	13.359386	-0.051856	-2.354666	1.385992
2.200	2.638121	3.924812	567.983673	7.828027	13.106567	-0.060858	-2.307560	1.378213
2.210	2.913688	3.974226	568.492825	7.781721	12.831620	-0.075217	-2.257130	1.368834
2.220	3.197329	4.042126	568.847859	7.720885	12.536773	-0.094388	-2.203889	1.357285
2.230	3.461221	4.112654	569.033893	7.643155	12.224762	-0.117473	-2.148336	1.343181
2.240	3.688073	4.177523	569.061957	7.547706	11.897524	-0.143079	-2.090726	1.326342
2.250	3.874713	4.234058	568.966074	7.434744	11.555347	-0.169437	-2.030938	1.306711
2.260	4.030997	4.280710	568.795715	7.304506	11.196687	-0.194774	-1.968490	1.284206
2.270	4.175819	4.313095	568.604591	7.156396	10.818421	-0.217755	-1.902626	1.258589
2.280	4.332586	4.322713	568.437246	6.988908	10.416260	-0.237726	-1.832438	1.229495
2.290	4.525198	4.298718	568.317173	6.800516	9.985327	-0.254622	-1.756999	1.196606
2.300	4.774015	4.231602	568.241245	6.590973	9.521196	-0.268603	-1.675555	1.159890
2.310	5.091209	4.117028	568.182791	6.362191	9.021547	-0.279632	-1.587790	1.119744
2.320	5.476468	3.958092	568.101600	6.118237	8.488049	-0.287234	-1.494108	1.076962
2.330	5.915358	3.765042	567.956409	5.864516	7.927609	-0.290556	-1.395813	1.032565
2.340	6.382226	3.552477	567.714894	5.606560	7.352242	-0.288705	-1.295059	0.987566
2.350	6.847256	3.335043	567.357644	5.348766	6.777386	-0.281169	-1.194553	0.942750
2.360	7.284972	3.123241	566.876243	5.093447	6.219202	-0.268085	-1.097101	0.898511
2.370	7.680577	2.920890	566.269490	4.840511	5.691778	-0.250217	-1.005136	0.854807
2.380	8.031553	2.725082	565.542305	4.587956	5.205054	-0.228713	-0.920365	0.811249
2.390	8.344263	2.528508	564.708718	4.333007	4.763997	-0.204809	-0.843620	0.767300
