Time[s]	Fx[N]	Fy[N]	Fz[N]	Mx[Nm]	My[Nm]	Mz[Nm]	COPx[cm]	COPy[cm]
0.010	-3.798160	0.424077	725.629411	1.988395	5.474358	-1.525887	-0.754429	0.274024
0.020	-3.668257	0.481194	725.115825	1.925639	5.602115	-1.514944	-0.772582	0.265563
0.030	-3.570325	0.536408	724.615284	1.863977	5.720915	-1.505276	-0.789511	0.257237
0.040	-3.531803	0.587614	724.150148	1.805330	5.825331	-1.497935	-0.804437	0.249303
0.050	-3.569298	0.633231	723.753709	1.752841	5.914781	-1.493345	-0.817237	0.242188
0.060	-3.684870	0.672277	723.461717	1.710116	5.992373	-1.491449	-0.828292	0.236380
0.070	-3.864491	0.704584	723.297614	1.679991	6.061737	-1.491997	-0.838069	0.232268
0.080	-4.079221	0.731131	723.259894	1.663506	6.123566	-1.494733	-0.846662	0.230001
0.090	-4.289460	0.754230	723.318846	1.659534	6.173709	-1.499302	-0.853525	0.229433
0.100	-4.452122	0.777342	723.424352	1.665227	6.203768	-1.504972	-0.857556	0.230187
0.110	-4.529786	0.804567	723.520113	1.677085	6.203967	-1.510388	-0.857470	0.231795
0.120	-4.499832	0.840127	723.557386	1.692154	6.166958	-1.513597	-0.852311	0.233866
0.130	-4.361105	0.887994	723.503808	1.708784	6.090865	-1.512440	-0.841857	0.236182
0.140	-4.135845	0.951382	723.347306	1.726552	5.980312	-1.505210	-0.826755	0.238689
0.150	-3.865522	1.031568	723.097491	1.745450	5.845162	-1.491359	-0.808351	0.241385
0.160	-3.600700	1.126015	722.785958	1.764760	5.697666	-1.471929	-0.788292	0.244161
0.170	-3.387295	1.226656	722.464380	1.782207	5.549195	-1.449472	-0.768092	0.246684
0.180	-3.253511	1.319664	722.198201	1.793803	5.407595	-1.427385	-0.748769	0.248381
0.190	-3.201984	1.387476	722.054903	1.794490	5.275737	-1.408910	-0.730656	0.248525
0.200	-3.209845	1.412768	722.088091	1.779208	5.151338	-1.396198	-0.713395	0.246398
0.210	-3.236433	1.382961	722.321166	1.743864	5.027844	-1.389811	-0.696068	0.241425
0.220	-3.235847	1.293392	722.736408	1.685804	4.896008	-1.388831	-0.677427	0.233253
0.230	-3.170145	1.147760	723.275053	1.603830	4.745841	-1.391415	-0.656160	0.221746
0.240	-3.019058	0.955890	723.850132	1.498008	4.568579	-1.395529	-0.631150	0.206950
0.250	-2.783389	0.730347	724.367605	1.369548	4.358439	-1.399566	-0.601689	0.189068
0.260	-2.481755	0.483828	724.747174	1.220892	4.113907	-1.402727	-0.567633	0.168458
0.270	-2.143029	0.228300	724.935437	1.055931	3.838311	-1.405119	-0.529469	0.145659
0.280	-1.798066	-0.024557	724.909754	0.880120	3.539426	-1.407569	-0.488257	0.121411
0.290	-1.473476	-0.262794	724.676476	0.700249	3.228110	-1.411227	-0.445455	0.096629
0.300	-1.188289	-0.474541	724.268251	0.523842	2.916294	-1.417090	-0.402654	0.072327
0.310	-0.952969	-0.649443	723.741970	0.358359	2.614871	-1.425646	-0.361299	0.049515
0.320	-0.769967	-0.780672	723.174846	0.210366	2.332093	-1.436684	-0.322480	0.029089
0.330	-0.635265	-0.866616	722.654762	0.084724	2.072817	-1.449302	-0.286834	0.011724
0.340	-0.540549	-0.911505	722.264053	-0.016178	1.838699	-1.462059	-0.254574	-0.002240
0.350	-0.475591	-0.924700	722.061471	-0.092999	1.629072	-1.473305	-0.225614	-0.012880
0.360	-0.430355	-0.918804	722.069943	-0.149560	1.442074	-1.481589	-0.199714	-0.020713
0.370	-0.396427	-0.907063	722.274780	-0.192242	1.275511	-1.485979	-0.176596	-0.026616
0.380	-0.367573	-0.900731	722.630994	-0.228665	1.127153	-1.486162	-0.155979	-0.031643
0.390	-0.339437	-0.907213	723.074447	-0.265945	0.994565	-1.482324	-0.137547	-0.036780
0.400	-0.308670	-0.929600	723.532217	-0.309124	0.874841	-1.474938	-0.120912	-0.042724
0.410	-0.272083	-0.967617	723.931162	-0.360365	0.764616	-1.464601	-0.105620	-0.049779
0.420	-0.226522	-1.019522	724.206366	-0.419203	0.660533	-1.451974	-0.091208	-0.057884
0.430	-0.169872	-1.084037	724.310875	-0.483671	0.560104	-1.437777	-0.077329	-0.066777
0.440	-0.102823	-1.161288	724.225723	-0.551685	0.462729	-1.422767	-0.063893	-0.076176
0.450	-0.030372	-1.251982	723.967182	-0.621915	0.370442	-1.407663	-0.051168	-0.085904
0.460	0.037935	-1.355017	723.587298	-0.693728	0.287828	-1.393034	-0.039778	-0.095874
0.470	0.089458	-1.465007	723.164530	-0.766323	0.220816	-1.379255	-0.030535	-0.105968
0.480	0.111335	-1.571769	722.784607	-0.837653	0.174622	-1.366623	-0.024160	-0.115892
0.490	0.094024	-1.662850	722.517263	-0.903921	0.151717	-1.355577	-0.020998	-0.125107
0.500	0.034412	-1.727995	722.398336	-0.960107	0.150798	-1.346860	-0.020875	-0.132905
0.510	-0.062763	-1.762949	722.424637	-1.001371	0.167229	-1.341400	-0.023148	-0.138613
0.520	-0.186013	-1.770253	722.561749	-1.024542	0.194621	-1.339864	-0.026935	-0.141793
0.530	-0.320536	-1.756513	722.758690	-1.028865	0.226766	-1.342063	-0.031375	-0.142353
0.540	-0.452570	-1.727711	722.962440	-1.015699	0.259146	-1.346573	-0.035845	-0.140491
0.550	-0.572778	-1.685125	723.128063	-0.987443	0.289627	-1.350869	-0.040052	-0.136552
0.560	-0.677375	-1.624093	723.223537	-0.946246	0.318318	-1.352034	-0.044014	-0.130837
0.570	-0.766943	-1.536291	723.231148	-0.892986	0.346845	-1.347790	-0.047958	-0.123472
0.580	-0.843952	-1.414314	723.148291	-0.826806	0.377423	-1.337374	-0.052192	-0.114334
0.590	-0.910327	-1.256137	722.988925	-0.745309	0.411998	-1.321855	-0.056985	-0.103087
0.600	-0.965962	-1.067235	722.784077	-0.645365	0.451574	-1.303765	-0.062477	-0.089289
0.610	-1.008394	-0.859460	722.578472	-0.524262	0.495818	-1.286246	-0.068618	-0.072554
0.620	-1.033530	-0.647464	722.421996	-0.380780	0.543031	-1.272059	-0.075168	-0.052709
0.630	-1.037319	-0.444405	722.358034	-0.215789	0.590445	-1.262817	-0.081739	-0.029873
0.640	-1.017925	-0.258812	722.413064	-0.032279	0.634703	-1.258664	-0.087859	-0.004468
0.650	-0.977548	-0.093766	722.591460	0.164934	0.672402	-1.258392	-0.093054	0.022825
0.660	-0.922920	0.051677	722.876398	0.369497	0.700696	-1.259849	-0.096932	0.051115
0.670	-0.864001	0.180058	723.234440	0.573758	0.717856	-1.260516	-0.099256	0.079332
0.680	-0.811224	0.293522	723.620761	0.769259	0.723567	-1.258195	-0.099993	0.106307
0.690	-0.772364	0.392956	723.984545	0.947780	0.718789	-1.251750	-0.099282	0.130912
0.700	-0.750426	0.478013	724.276031	1.102836	0.705312	-1.241654	-0.097382	0.152267
0.710	-0.743550	0.547488	724.455270	1.231115	0.685283	-1.229991	-0.094593	0.169937
0.720	-0.747017	0.599839	724.499942	1.333195	0.660930	-1.219813	-0.091226	0.184016
0.730	-0.756472	0.634049	724.409297	1.413175	0.634459	-1.214053	-0.087583	0.195080
0.740	-0.770717	0.650924	724.203207	1.477348	0.608060	-1.214454	-0.083963	0.203996
0.750	-0.792557	0.654344	723.916889	1.532362	0.584029	-1.220949	-0.080676	0.211677
0.760	-0.827201	0.651478	723.592645	1.583460	0.564939	-1.231704	-0.078074	0.218833
0.770	-0.879187	0.651255	723.270864	1.633350	0.553723	-1.243828	-0.076558	0.225828
0.780	-0.949545	0.661481	722.983528	1.682152	0.553443	-1.254465	-0.076550	0.232668
0.790	-1.034612	0.685985	722.753127	1.728412	0.566785	-1.261883	-0.078420	0.239143
0.800	-1.126908	0.723201	722.597223	1.770570	0.595439	-1.266109	-0.082403	0.245029
0.810	-1.217519	0.766853	722.534860	1.808059	0.639595	-1.268840	-0.088521	0.250238
0.820	-1.298816	0.808451	722.588234	1.841508	0.697665	-1.272652	-0.096551	0.254849
0.830	-1.366397	0.840717	722.774421	1.872215	0.766279	-1.279877	-0.106019	0.259032
0.840	-1.419643	0.860735	723.088392	1.901464	0.840603	-1.291662	-0.116252	0.262964
0.850	-1.461112	0.871650	723.486680	1.930259	0.915017	-1.307622	-0.126473	0.266800
0.860	-1.495467	0.882044	723.884465	1.959527	0.984028	-1.326147	-0.135937	0.270696
0.870	-1.528568	0.902796	724.173260	1.990376	1.043221	-1.345105	-0.144057	0.274848
0.880	-1.566700	0.942409	724.254740	2.023948	1.089937	-1.362565	-0.150491	0.279452
0.890	-1.615530	1.002712	724.076599	2.060848	1.123524	-1.377252	-0.155166	0.284617
0.900	-1.678593	1.077058	723.654831	2.100523	1.145172	-1.388668	-0.158248	0.290266
0.910	-1.755684	1.152164	723.073549	2.141032	1.157453	-1.396944	-0.160074	0.296102
0.920	-1.841859	1.213069	722.463231	2.179387	1.163650	-1.402566	-0.161067	0.301661
0.930	-1.927617	1.249137	721.965438	2.212384	1.166929	-1.406148	-0.161632	0.306439
0.940	-2.000425	1.258298	721.694765	2.237638	1.169394	-1.408328	-0.162034	0.310053
0.950	-2.047219	1.247523	721.708521	2.254382	1.171276	-1.409762	-0.162292	0.312367
0.960	-2.057255	1.229449	721.992780	2.263636	1.170533	-1.411153	-0.162125	0.313526
0.970	-2.024657	1.216921	722.469351	2.267517	1.163194	-1.413202	-0.161003	0.313856
0.980	-1.950110	1.217767	723.021854	2.267963	1.144400	-1.416502	-0.158280	0.313678
0.990	-1.841181	1.231605	723.532173	2.265458	1.109791	-1.421374	-0.153385	0.313111
1.000	-1.710836	1.249657	723.914179	2.258434	1.056688	-1.427744	-0.145969	0.311975
1.010	-1.574157	1.257665	724.132325	2.243605	0.984640	-1.435086	-0.135975	0.309834
1.020	-1.444208	1.240899	724.199444	2.216982	0.895246	-1.442494	-0.123619	0.306129
1.030	-1.328573	1.189422	724.158332	2.175093	0.791406	-1.448847	-0.109286	0.300362
1.040	-1.227817	1.101705	724.058734	2.115984	0.676396	-1.453041	-0.093417	0.292239
1.050	-1.136360	0.985417	723.940375	2.039750	0.553188	-1.454278	-0.076413	0.281757
1.060	-1.045455	0.855220	723.825805	1.948503	0.424278	-1.452377	-0.058616	0.269195
1.070	-0.947416	0.728321	723.721061	1.845864	0.292026	-1.447943	-0.040351	0.255052
1.080	-0.839648	0.619210	723.621180	1.736201	0.159259	-1.442245	-0.022009	0.239932
1.090	-0.726890	0.535287	723.518613	1.623936	0.029854	-1.436777	-0.004126	0.224450
1.100	-0.620575	0.474836	723.412264	1.513100	-0.091083	-1.432728	0.012591	0.209162
1.110	-0.535206	0.428070	723.313696	1.407114	-0.197698	-1.430606	0.027332	0.194537
1.120	-0.482936	0.380985	723.247331	1.308624	-0.284600	-1.430183	0.039350	0.180937
1.130	-0.468497	0.320798	723.243991	1.219214	-0.348531	-1.430743	0.048190	0.168576
1.140	-0.486611	0.240970	723.330064	1.139035	-0.389960	-1.431480	0.053912	0.157471
1.150	-0.522864	0.143749	723.516116	1.066599	-0.413930	-1.431816	0.057211	0.147419
1.160	-0.557532	0.039000	723.788596	0.999081	-0.429648	-1.431540	0.059361	0.138035
1.170	-0.570973	-0.060181	724.107451	0.933141	-0.448714	-1.430806	0.061968	0.128868
1.180	-0.549008	-0.142982	724.411548	0.865932	-0.482444	-1.430019	0.066598	0.119536
1.190	-0.486911	-0.204966	724.632354	0.795850	-0.539177	-1.429564	0.074407	0.109828
1.200	-0.390744	-0.249130	724.713347	0.722848	-0.622500	-1.429453	0.085896	0.099743
1.210	-0.275325	-0.283953	724.628956	0.648363	-0.730993	-1.429069	0.100878	0.089475
1.220	-0.159305	-0.319689	724.395141	0.574905	-0.859429	-1.427276	0.118641	0.079363
1.230	-0.059193	-0.364554	724.066037	0.505296	-1.000923	-1.422887	0.138236	0.069786
1.240	0.015482	-0.422048	723.716637	0.441700	-1.149214	-1.415251	0.158793	0.061032
1.250	0.064548	-0.490170	723.417721	0.384801	-1.300299	-1.404631	0.179744	0.053192
1.260	0.096842	-0.562644	723.213196	0.333564	-1.452891	-1.392191	0.200894	0.046122
1.270	0.127501	-0.631584	723.109380	0.285667	-1.607589	-1.379641	0.222316	0.039505
1.280	0.173457	-0.690432	723.079867	0.238348	-1.765205	-1.368737	0.244123	0.032963
1.290	0.248053	-0.736103	723.081899	0.189285	-1.925017	-1.360812	0.266224	0.026177
1.300	0.356252	-0.769816	723.075575	0.137257	-2.083725	-1.356463	0.288175	0.018982
1.310	0.492128	-0.796596	723.038091	0.082470	-2.235502	-1.355485	0.309182	0.011406
1.320	0.639855	-0.823654	722.969078	0.026451	-2.373093	-1.357026	0.328243	0.003659
1.330	0.778193	-0.857906	722.886959	-0.028468	-2.489522	-1.359912	0.344386	-0.003938
1.340	0.887129	-0.903227	722.819069	-0.079942	-2.579815	-1.362972	0.356910	-0.011060
1.350	0.954367	-0.958393	722.790117	-0.126371	-2.642224	-1.365295	0.365559	-0.017484
1.360	0.979181	-1.016752	722.813413	-0.167292	-2.678631	-1.366376	0.370584	-0.023145
1.370	0.972179	-1.068133	722.887232	-0.203163	-2.694109	-1.366188	0.372687	-0.028104
1.380	0.951283	-1.102529	722.996319	-0.234644	-2.695852	-1.365171	0.372872	-0.032454
1.390	0.935754	-1.114153	723.117727	-0.261790	-2.691863	-1.364108	0.372258	-0.036203
1.400	0.940507	-1.104150	723.229488	-0.283585	-2.689761	-1.363901	0.371910	-0.039211
1.410	0.972343	-1.080637	723.318825	-0.298083	-2.695849	-1.365275	0.372705	-0.041210
1.420	1.028868	-1.055880	723.385250	-0.303117	-2.714407	-1.368523	0.375237	-0.041903
1.430	1.100147	-1.041609	723.436296	-0.297244	-2.747101	-1.373428	0.379729	-0.041088
1.440	1.172394	-1.044224	723.479097	-0.280438	-2.792513	-1.379447	0.385984	-0.038762
1.450	1.232291	-1.061798	723.514646	-0.254163	-2.846023	-1.386020	0.393361	-0.035129
1.460	1.270281	-1.084185	723.539417	-0.220796	-2.900359	-1.392809	0.400857	-0.030516
1.470	1.281912	-1.096399	723.552841	-0.182645	-2.947020	-1.399677	0.407298	-0.025243
1.480	1.267450	-1.084041	723.564205	-0.140888	-2.978271	-1.406472	0.411611	-0.019471
1.490	1.230750	-1.038538	723.592701	-0.094766	-2.989069	-1.412791	0.413087	-0.013097
1.500	1.178224	-0.960066	723.658688	-0.041486	-2.978220	-1.417917	0.411550	-0.005733
1.510	1.117958	-0.857261	723.770037	0.022869	-2.948373	-1.420976	0.407363	0.003160
1.520	1.058460	-0.744318	723.910954	0.101583	-2.904877	-1.421234	0.401275	0.014033
1.530	1.006706	-0.636776	724.039995	0.195560	-2.853893	-1.418382	0.394162	0.027010
1.540	0.966053	-0.547278	724.100098	0.302604	-2.800477	-1.412678	0.386753	0.041790
1.550	0.935199	-0.482184	724.038474	0.418287	-2.747222	-1.404897	0.379430	0.057771
1.560	0.909023	-0.439687	723.829381	0.537918	-2.693861	-1.396128	0.372168	0.074316
1.570	0.881081	-0.410010	723.489747	0.658447	-2.637835	-1.387486	0.364599	0.091010
1.580	0.846688	-0.378036	723.079380	0.779230	-2.575540	-1.379834	0.356190	0.107766
1.590	0.805234	-0.327991	722.684376	0.901486	-2.503788	-1.373586	0.346457	0.124741
1.600	0.760753	-0.248816	722.390552	1.027102	-2.420996	-1.368656	0.335137	0.142181
1.610	0.720424	-0.138097	722.257935	1.157589	-2.327736	-1.364558	0.322286	0.160274
1.620	0.691605	-0.002744	722.305842	1.293484	-2.226511	-1.360637	0.308250	0.179077
1.630	0.678574	0.143851	722.512553	1.434118	-2.120862	-1.356356	0.293540	0.198490
1.640	0.680394	0.286563	722.827371	1.577647	-2.014234	-1.351510	0.278660	0.218261
1.650	0.691000	0.412864	723.188424	1.721329	-1.909108	-1.346272	0.263985	0.238019
1.660	0.701682	0.515353	723.538226	1.862003	-1.806677	-1.341071	0.249700	0.257347
1.670	0.704819	0.592508	723.831322	1.996586	-1.706877	-1.336453	0.235811	0.275836
1.680	0.696860	0.648224	724.033760	2.122441	-1.608412	-1.333029	0.222146	0.293141
1.690	0.678818	0.690447	724.119704	2.237594	-1.508628	-1.331459	0.208340	0.309009
1.700	0.654005	0.728931	724.071838	2.340960	-1.403482	-1.332332	0.193832	0.323305
1.710	0.624463	0.772319	723.887822	2.432663	-1.287893	-1.335897	0.177913	0.336055
1.720	0.588133	0.825307	723.588776	2.514338	-1.156499	-1.341779	0.159828	0.347482
1.730	0.538072	0.887081	723.222750	2.589088	-1.004459	-1.348901	0.138887	0.357993
1.740	0.463910	0.952100	722.858061	2.660871	-0.827936	-1.355736	0.114536	0.368104
1.750	0.354787	1.013285	722.566550	2.733537	-0.624129	-1.360799	0.086377	0.378309
1.760	0.202501	1.066320	722.402214	2.810050	-0.391035	-1.363177	0.054130	0.388987
1.770	0.003446	1.112960	722.383943	2.892277	-0.127235	-1.362857	0.017613	0.400380
1.780	-0.241357	1.161640	722.489810	2.981227	0.168026	-1.360709	-0.023257	0.412632
1.790	-0.527692	1.224974	722.665181	3.077268	0.494445	-1.358115	-0.068420	0.425822
1.800	-0.849699	1.315009	722.841311	3.179950	0.850185	-1.356409	-0.117617	0.439924
1.810	-1.200389	1.437954	722.958319	3.287517	1.231657	-1.356353	-0.170363	0.454731
1.820	-1.570797	1.590310	722.985908	3.396469	1.633716	-1.357824	-0.225968	0.469784
1.830	-1.948314	1.758012	722.935696	3.501438	2.050076	-1.359769	-0.283577	0.484336
1.840	-2.315082	1.919208	722.860127	3.595430	2.473599	-1.360408	-0.342196	0.497389
1.850	-2.647528	2.050007	722.835949	3.670423	2.896249	-1.357619	-0.400679	0.507781
1.860	-2.918110	2.131283	722.936234	3.718345	3.308852	-1.349382	-0.457696	0.514339
1.870	-3.100015	2.154065	723.201195	3.732396	3.701078	-1.334175	-0.511763	0.516094
1.880	-3.174344	2.121528	723.619856	3.708432	4.062162	-1.311241	-0.561367	0.512483
1.890	-3.137781	2.046976	724.129923	3.646023	4.382554	-1.280787	-0.605217	0.503504
1.900	-3.007811	1.948894	724.635463	3.548845	4.656090	-1.244180	-0.642542	0.489742
1.910	-2.822938	1.845166	725.035361	3.424294	4.881810	-1.204127	-0.673320	0.472293
1.920	-2.636929	1.748552	725.252105	3.282453	5.064647	-1.164703	-0.698329	0.452595
1.930	-2.508000	1.664646	725.251426	3.134559	5.214604	-1.131057	-0.719006	0.432203
1.940	-2.485581	1.592503	725.048094	2.991212	5.344534	-1.108638	-0.737128	0.412554
1.950	-2.598289	1.527292	724.698485	2.860571	5.467019	-1.101935	-0.754385	0.394726
1.960	-2.846613	1.463715	724.283575	2.746989	5.591138	-1.113079	-0.771954	0.379270
1.970	-3.202371	1.398618	723.887142	2.650468	5.720017	-1.140916	-0.790181	0.366144
1.980	-3.614834	1.331605	723.574982	2.567093	5.849853	-1.181101	-0.808465	0.354779
1.990	-4.021483	1.263644	723.381106	2.490329	5.970768	-1.227290	-0.825397	0.344262
2.000	-4.360500	1.194919	723.304310	2.412777	6.069336	-1.272926	-0.839112	0.333577
2.010	-4.582317	1.123468	723.314298	2.327953	6.132169	-1.312854	-0.847788	0.321845
2.020	-4.658248	1.045398	723.363685	2.231708	6.149592	-1.344185	-0.850138	0.308518
2.030	-4.584939	0.956413	723.402072	2.123051	6.118321	-1.366276	-0.845770	0.293481
2.040	-4.383855	0.853635	723.389646	2.004220	6.042339	-1.380081	-0.835281	0.277060
2.050	-4.095484	0.736751	723.308461	1.879964	5.931661	-1.387294	-0.820073	0.259912
2.060	-3.769029	0.608210	723.168940	1.756164	5.799392	-1.389707	-0.801942	0.242843
2.070	-3.450080	0.472924	723.008809	1.638164	5.658147	-1.388988	-0.782583	0.226576
2.080	-3.170137	0.337789	722.883019	1.529268	5.517135	-1.386796	-0.763213	0.211551
2.090	-2.941512	0.210788	722.846266	1.429881	5.380915	-1.384875	-0.744407	0.197813
2.100	-2.758993	0.099258	722.933392	1.337562	5.250026	-1.384854	-0.726212	0.185019
2.110	-2.606681	0.007578	723.145528	1.247973	5.122880	-1.387822	-0.708416	0.172576
2.120	-2.466463	-0.064630	723.448323	1.156376	4.997780	-1.394038	-0.690828	0.159842
2.130	-2.324648	-0.122745	723.782644	1.059204	4.874088	-1.403051	-0.673419	0.146343
2.140	-2.175059	-0.175603	724.082070	0.955141	4.752243	-1.414130	-0.656313	0.131911
2.150	-2.018790	-0.232824	724.289968	0.845272	4.633117	-1.426630	-0.639677	0.116704
2.160	-1.861922	-0.302009	724.371188	0.732241	4.517485	-1.440039	-0.623642	0.101086
2.170	-1.712693	-0.386790	724.316379	0.618847	4.406087	-1.453786	-0.608310	0.085439
2.180	-1.579277	-0.486346	724.139174	0.506877	4.300123	-1.467055	-0.593825	0.069997
2.190	-1.468579	-0.596467	723.868632	0.396762	4.201655	-1.478845	-0.580444	0.054811
2.200	-1.385646	-0.711579	723.540808	0.288114	4.113435	-1.488290	-0.568515	0.039820
2.210	-1.333072	-0.826761	723.193061	0.180635	4.038198	-1.495080	-0.558384	0.024977
2.220	-1.310352	-0.938836	722.862441	0.074726	3.977869	-1.499728	-0.550294	0.010337
2.230	-1.313697	-1.046139	722.586551	-0.028645	3.933174	-1.503508	-0.544319	-0.003964
2.240	-1.336700	-1.147488	722.403105	-0.128619	3.903790	-1.508034	-0.540389	-0.017804
2.250	-1.371692	-1.241385	722.344647	-0.225137	3.888856	-1.514660	-0.538366	-0.031168
2.260	-1.411375	-1.326335	722.428060	-0.319153	3.887590	-1.523948	-0.538128	-0.044178
2.270	-1.450429	-1.402106	722.642957	-0.412346	3.899660	-1.535434	-0.539639	-0.057061
2.280	-1.486918	-1.470824	722.945761	-0.506494	3.925117	-1.547764	-0.542934	-0.070060
2.290	-1.523224	-1.536672	723.265240	-0.602679	3.963871	-1.559119	-0.548052	-0.083328
2.300	-1.566135	-1.603979	723.519953	-0.700496	4.015043	-1.567738	-0.554932	-0.096818
2.310	-1.625684	-1.674558	723.641363	-0.797518	4.076546	-1.572343	-0.563338	-0.110209
2.320	-1.712516	-1.745653	723.593177	-0.889297	4.145091	-1.572328	-0.572848	-0.122900
2.330	-1.833914	-1.809662	723.380059	-0.969995	4.216595	-1.567753	-0.582902	-0.134092
2.340	-1.989392	-1.856140	723.044712	-1.033537	4.286749	-1.559208	-0.592875	-0.142942
2.350	-2.167484	-1.875516	722.656586	-1.074937	4.351402	-1.547660	-0.602140	-0.148748
2.360	-2.345744	-1.862942	722.296357	-1.091334	4.406470	-1.534265	-0.610064	-0.151092
2.370	-2.495071	-1.820467	722.039123	-1.082416	4.447378	-1.520188	-0.615947	-0.149911
