Time[s]	Fx[N]	Fy[N]	Fz[N]	Mx[Nm]	My[Nm]	Mz[Nm]	COPx[cm]	COPy[cm]
0.010	2.693232	-2.684012	563.402562	4.451536	6.857838	0.051425	-1.217218	0.790116
0.020	2.859151	-2.604441	562.856470	4.409580	6.689119	0.048030	-1.188424	0.783429
0.030	3.022760	-2.545713	562.327020	4.371499	6.523744	0.043963	-1.160134	0.777394
0.040	3.182105	-2.522439	561.829516	4.339884	6.364074	0.039174	-1.132741	0.772456
0.050	3.336220	-2.539325	561.380829	4.315250	6.210214	0.034393	-1.106239	0.768685
0.060	3.485964	-2.590408	561.001264	4.296123	6.059891	0.030933	-1.080192	0.765796
0.070	3.634048	-2.661297	560.713645	4.279826	5.909201	0.030158	-1.053871	0.763282
0.080	3.783864	-2.733851	560.538072	4.263531	5.753972	0.032902	-1.026509	0.760614
0.090	3.937672	-2.792289	560.484575	4.245096	5.591258	0.039094	-0.997576	0.757398
0.100	4.095137	-2.828850	560.548344	4.223456	5.420464	0.047773	-0.966993	0.753451
0.110	4.252887	-2.846651	560.710752	4.198562	5.243830	0.057428	-0.935211	0.748793
0.120	4.405080	-2.858094	560.945085	4.171065	5.066222	0.066504	-0.903158	0.743578
0.130	4.544521	-2.879231	561.222733	4.141903	4.894405	0.073804	-0.872097	0.738014
0.140	4.663931	-2.922543	561.516447	4.111981	4.736064	0.078689	-0.843442	0.732299
0.150	4.757293	-2.991494	561.800428	4.082063	4.598812	0.081077	-0.818585	0.726604
0.160	4.821307	-3.079265	562.049434	4.052908	4.489288	0.081379	-0.798735	0.721095
0.170	4.856658	-3.171888	562.239041	4.025507	4.412349	0.080393	-0.784782	0.715978
0.180	4.868346	-3.253893	562.347646	4.001238	4.370427	0.079153	-0.777175	0.711524
0.190	4.864540	-3.313658	562.359391	3.981737	4.363218	0.078676	-0.775877	0.708041
0.200	4.854102	-3.346352	562.267118	3.968478	4.387872	0.079645	-0.780389	0.705799
0.210	4.843674	-3.353851	562.075427	3.962237	4.439694	0.082155	-0.789875	0.704930
0.220	4.835385	-3.342541	561.803850	3.962703	4.513113	0.085644	-0.803325	0.705353
0.230	4.826007	-3.320534	561.488161	3.968431	4.602573	0.089064	-0.819710	0.706770
0.240	4.807778	-3.295559	561.176435	3.977222	4.703202	0.091258	-0.838097	0.708729
0.250	4.770528	-3.273907	560.918603	3.986869	4.811327	0.091360	-0.857759	0.710775
0.260	4.704232	-3.260098	560.753188	3.996014	4.925035	0.089101	-0.878289	0.712615
0.270	4.601184	-3.256694	560.697652	4.004629	5.044693	0.084919	-0.899717	0.714222
0.280	4.457297	-3.263933	560.746993	4.013778	5.173097	0.079833	-0.922537	0.715791
0.290	4.272465	-3.279343	560.880479	4.024674	5.314872	0.075088	-0.947594	0.717564
0.300	4.050201	-3.297890	561.071952	4.037490	5.475113	0.071736	-0.975831	0.719603
0.310	3.797063	-3.313216	561.297538	4.050550	5.657545	0.070321	-1.007941	0.721640
0.320	3.522348	-3.319800	561.537157	4.060318	5.862652	0.070802	-1.044036	0.723072
0.330	3.238044	-3.315120	561.771034	4.062302	6.086271	0.072713	-1.083408	0.723124
0.340	2.958438	-3.300699	561.975588	4.052665	6.319272	0.075412	-1.124475	0.721146
0.350	2.698706	-3.281558	562.122663	4.029971	6.548764	0.078221	-1.165006	0.716920
0.360	2.472496	-3.264382	562.183611	3.996250	6.760829	0.080391	-1.202602	0.710844
0.370	2.289314	-3.255144	562.137229	3.956694	6.944031	0.081034	-1.235291	0.703866
0.380	2.152799	-3.256887	561.978769	3.918049	7.092372	0.079272	-1.262036	0.697188
0.390	2.060545	-3.268254	561.726326	3.886498	7.206436	0.074616	-1.282909	0.691885
0.400	2.005422	-3.283433	561.421305	3.866049	7.292279	0.067306	-1.298896	0.688618
0.410	1.977728	-3.293929	561.121737	3.857971	7.358637	0.058284	-1.311415	0.687546
0.420	1.967364	-3.291734	560.890185	3.861173	7.413728	0.048825	-1.321779	0.688401
0.430	1.965426	-3.272604	560.780038	3.873008	7.462878	0.040078	-1.330803	0.690647
0.440	1.965079	-3.238074	560.823730	3.890117	7.507535	0.032780	-1.338662	0.693643
0.450	1.961993	-3.195392	561.024458	3.909200	7.545562	0.027187	-1.344961	0.696797
0.460	1.954705	-3.155339	561.351916	3.927769	7.572416	0.023154	-1.348961	0.699698
0.470	1.944985	-3.128577	561.743817	3.944721	7.582857	0.020311	-1.349878	0.702228
0.480	1.937791	-3.121782	562.116694	3.960474	7.572880	0.018254	-1.347208	0.704564
0.490	1.940227	-3.134976	562.387211	3.976517	7.541437	0.016688	-1.340969	0.707078
0.500	1.959461	-3.161060	562.498327	3.994622	7.491402	0.015445	-1.331809	0.710157
0.510	2.000338	-3.187815	562.438536	4.016128	7.429323	0.014413	-1.320913	0.714056
0.520	2.063673	-3.201917	562.243617	4.041631	7.363881	0.013433	-1.309731	0.718840
0.530	2.145753	-3.193732	561.979699	4.071083	7.303521	0.012235	-1.299606	0.724418
0.540	2.239046	-3.161058	561.716841	4.104043	7.254155	0.010473	-1.291426	0.730625
0.550	2.333916	-3.110156	561.506400	4.139848	7.217872	0.007884	-1.285448	0.737275
0.560	2.420999	-3.053503	561.371366	4.177658	7.193092	0.004516	-1.281343	0.744188
0.570	2.493717	-3.005169	561.310512	4.216461	7.175900	0.000854	-1.278419	0.751181
0.580	2.550183	-2.975674	561.309949	4.255118	7.161859	-0.002258	-1.275919	0.758069
0.590	2.593772	-2.968299	561.353514	4.292411	7.147505	-0.003906	-1.273263	0.764654
0.600	2.631828	-2.978101	561.427007	4.327090	7.131029	-0.003476	-1.270161	0.770731
0.610	2.672650	-2.993855	561.517155	4.357986	7.112120	-0.000960	-1.266590	0.776109
0.620	2.721862	-3.002123	561.609781	4.384210	7.091395	0.002970	-1.262691	0.780650
0.630	2.779893	-2.992072	561.690720	4.405282	7.069961	0.007174	-1.258693	0.784290
0.640	2.841830	-2.959421	561.749376	4.421125	7.049401	0.010489	-1.254901	0.787028
0.650	2.899523	-2.908103	561.782064	4.432041	7.031961	0.012190	-1.251724	0.788925
0.660	2.944622	-2.848892	561.792532	4.438887	7.020495	0.012264	-1.249660	0.790129
0.670	2.971187	-2.795540	561.789168	4.443351	7.017952	0.011299	-1.249215	0.790929
0.680	2.977246	-2.760120	561.780103	4.447959	7.026560	0.010109	-1.250767	0.791762
0.690	2.965345	-2.749485	561.768277	4.455532	7.047117	0.009320	-1.254453	0.793126
0.700	2.942091	-2.763879	561.749238	4.468261	7.078636	0.009194	-1.260106	0.795419
0.710	2.916586	-2.797629	561.714014	4.486864	7.118405	0.009718	-1.267265	0.798781
0.720	2.897754	-2.841113	561.656139	4.510256	7.162495	0.010788	-1.275246	0.803028
0.730	2.891192	-2.883131	561.578166	4.535841	7.206706	0.012321	-1.283295	0.807695
0.740	2.896718	-2.913101	561.493072	4.560318	7.247708	0.014259	-1.290792	0.812177
0.750	2.907923	-2.922940	561.420132	4.580781	7.283967	0.016568	-1.297418	0.815928
0.760	2.914346	-2.908722	561.378285	4.595777	7.316049	0.019275	-1.303230	0.818660
0.770	2.905648	-2.871916	561.380461	4.605873	7.346217	0.022484	-1.308599	0.820455
0.780	2.875977	-2.819572	561.430754	4.613499	7.377513	0.026310	-1.314056	0.821740
0.790	2.826472	-2.762819	561.524423	4.622165	7.412673	0.030771	-1.320098	0.823146
0.800	2.764628	-2.713767	561.649155	4.635379	7.453199	0.035735	-1.327020	0.825316
0.810	2.700787	-2.681984	561.786229	4.655605	7.498869	0.040933	-1.334826	0.828715
0.820	2.643540	-2.672058	561.911905	4.683534	7.547886	0.046001	-1.343251	0.833500
0.830	2.596403	-2.683093	562.000595	4.717917	7.597646	0.050477	-1.351893	0.839486
0.840	2.557266	-2.709867	562.030628	4.756084	7.645848	0.053797	-1.360397	0.846232
0.850	2.520445	-2.744743	561.991221	4.794897	7.691446	0.055394	-1.368606	0.853198
0.860	2.479874	-2.779598	561.887663	4.831701	7.735006	0.054924	-1.376611	0.859905
0.870	2.431845	-2.807408	561.741909	4.864913	7.778344	0.052522	-1.384683	0.866041
0.880	2.376397	-2.823350	561.587523	4.894218	7.823711	0.048928	-1.393142	0.871497
0.890	2.317182	-2.825450	561.460203	4.920470	7.872943	0.045376	-1.402226	0.876370
0.900	2.260037	-2.814800	561.386954	4.945347	7.926853	0.043242	-1.412012	0.880916
0.910	2.210811	-2.795278	561.377893	4.970729	7.984894	0.043578	-1.422374	0.885451
0.920	2.173190	-2.772546	561.424393	4.997933	8.045091	0.046697	-1.432979	0.890224
0.930	2.147229	-2.752350	561.504879	5.027134	8.104333	0.052004	-1.443324	0.895297
0.940	2.129037	-2.738563	561.595720	5.057317	8.159064	0.058131	-1.452836	0.900526
0.950	2.111763	-2.731718	561.681528	5.086814	8.206123	0.063377	-1.460992	0.905640
0.960	2.087793	-2.728749	561.759330	5.114151	8.243301	0.066277	-1.467408	0.910381
0.970	2.051549	-2.724205	561.834877	5.138772	8.269353	0.066087	-1.471848	0.914641
0.980	2.001799	-2.712498	561.913915	5.161380	8.283578	0.062979	-1.474172	0.918536
0.990	1.942498	-2.690203	561.993699	5.183813	8.285354	0.057880	-1.474279	0.922397
1.000	1.881770	-2.657312	562.059519	5.208455	8.274006	0.052052	-1.472087	0.926673
1.010	1.829403	-2.616944	562.088664	5.237320	8.249182	0.046623	-1.467594	0.931760
1.020	1.793759	-2.573767	562.060510	5.271154	8.211469	0.042262	-1.460958	0.937827
1.030	1.779298	-2.532059	561.967436	5.308962	8.162770	0.039090	-1.452534	0.944710
1.040	1.785717	-2.494299	561.820191	5.348183	8.106078	0.036780	-1.442824	0.951939
1.050	1.808959	-2.460709	561.645120	5.385446	8.044727	0.034738	-1.432351	0.958870
1.060	1.843564	-2.429692	561.476153	5.417606	7.981475	0.032281	-1.421516	0.964886
1.070	1.885254	-2.398936	561.346643	5.442637	7.917809	0.028782	-1.410503	0.969568
1.080	1.932682	-2.366798	561.283957	5.460049	7.853619	0.023816	-1.399224	0.972778
1.090	1.987602	-2.333310	561.306402	5.470696	7.787231	0.017333	-1.387341	0.974636
1.100	2.053545	-2.300131	561.419945	5.476125	7.715691	0.009760	-1.374317	0.975406
1.110	2.133885	-2.269400	561.612892	5.477744	7.635241	0.001909	-1.359520	0.975359
1.120	2.230411	-2.242259	561.850627	5.476085	7.542030	-0.005301	-1.342355	0.974651
1.130	2.342854	-2.218118	562.076449	5.470433	7.433013	-0.011147	-1.322420	0.973254
1.140	2.469009	-2.195235	562.223750	5.459042	7.306848	-0.015196	-1.299633	0.970973
1.150	2.605087	-2.172304	562.238218	5.439918	7.164469	-0.017161	-1.274276	0.967547
1.160	2.746282	-2.150025	562.101171	5.411752	7.009067	-0.016661	-1.246940	0.962772
1.170	2.887635	-2.131576	561.841914	5.374578	6.845439	-0.013132	-1.218392	0.956600
1.180	3.024883	-2.121576	561.530955	5.329936	6.678898	-0.006037	-1.189409	0.949179
1.190	3.154941	-2.124172	561.255411	5.280516	6.514125	0.004704	-1.160635	0.940840
1.200	3.275951	-2.141428	561.087599	5.229355	6.354394	0.018373	-1.132514	0.932003
1.210	3.387295	-2.172864	561.061292	5.178784	6.201321	0.033495	-1.105284	0.923034
1.220	3.489870	-2.216064	561.165388	5.129537	6.055042	0.048278	-1.079012	0.914087
1.230	3.586409	-2.267688	561.355187	5.080443	5.914555	0.061219	-1.053621	0.905032
1.240	3.681245	-2.324288	561.573365	5.028854	5.777987	0.071607	-1.028893	0.895494
1.250	3.779139	-2.382725	561.770248	4.971529	5.642823	0.079710	-1.004472	0.884976
1.260	3.883579	-2.440376	561.916178	4.905483	5.506341	0.086611	-0.979922	0.872992
1.270	3.995540	-2.495374	562.003834	4.828490	5.366500	0.093728	-0.954887	0.859156
1.280	4.113419	-2.547083	562.042622	4.739255	5.223116	0.102215	-0.929310	0.843220
1.290	4.233981	-2.596740	562.049435	4.637434	5.078724	0.112489	-0.903608	0.825094
1.300	4.353398	-2.647829	562.040055	4.523634	4.938586	0.124091	-0.878689	0.804860
1.310	4.467674	-2.705644	562.024008	4.399414	4.809737	0.135917	-0.855789	0.782780
1.320	4.572568	-2.775924	562.003992	4.267277	4.699397	0.146633	-0.836186	0.759297
1.330	4.663752	-2.863079	561.979237	4.130643	4.613284	0.155016	-0.820899	0.735017
1.340	4.737675	-2.968801	561.950233	3.993681	4.554346	0.160093	-0.810454	0.710682
1.350	4.792767	-3.091491	561.921691	3.860864	4.522291	0.161165	-0.804790	0.687082
1.360	4.830033	-3.226418	561.902264	3.736298	4.514033	0.157910	-0.803348	0.664937
1.370	4.852266	-3.366354	561.901596	3.623115	4.524857	0.150587	-0.805276	0.644795
1.380	4.862007	-3.502586	561.926129	3.523210	4.549918	0.140172	-0.809700	0.626988
1.390	4.859558	-3.626332	561.974965	3.437299	4.585632	0.128239	-0.815985	0.611646
1.400	4.842583	-3.730434	562.037197	3.365137	4.630511	0.116547	-0.823880	0.598739
1.410	4.807712	-3.810876	562.092556	3.305737	4.685143	0.106491	-0.833518	0.588113
1.420	4.752889	-3.867436	562.116470	3.257672	4.751398	0.098666	-0.845269	0.579537
1.430	4.678626	-3.903045	562.088130	3.219456	4.831287	0.092766	-0.859525	0.572767
1.440	4.587314	-3.922141	561.997937	3.189900	4.926020	0.087876	-0.876519	0.567600
1.450	4.481345	-3.928990	561.851324	3.168246	5.035565	0.082970	-0.896245	0.563894
1.460	4.361804	-3.926874	561.668366	3.154006	5.158748	0.077364	-0.918469	0.561542
1.470	4.228977	-3.918321	561.479860	3.146610	5.293686	0.070897	-0.942810	0.560414
1.480	4.084325	-3.905847	561.320341	3.145021	5.438321	0.063796	-0.968844	0.560290
1.490	3.932365	-3.892418	561.218810	3.147541	5.590811	0.056342	-0.996191	0.560840
1.500	3.780940	-3.881167	561.189623	3.151941	5.749724	0.048537	-1.024560	0.561654
1.510	3.639479	-3.874425	561.227438	3.155960	5.914053	0.039997	-1.053771	0.562332
1.520	3.515967	-3.872520	561.309234	3.157972	6.083121	0.030127	-1.083738	0.562608
1.530	3.413905	-3.872936	561.403002	3.157564	6.256367	0.018495	-1.114416	0.562442
1.540	3.330445	-3.870407	561.479209	3.155750	6.433013	0.005182	-1.145726	0.562042
1.550	3.256615	-3.858288	561.520198	3.154695	6.611776	-0.009078	-1.177478	0.561813
1.560	3.179921	-3.830950	561.524266	3.157081	6.790864	-0.023061	-1.209362	0.562234
1.570	3.088633	-3.786118	561.503644	3.165383	6.968372	-0.035415	-1.241020	0.563733
1.580	2.976227	-3.725876	561.477953	3.181321	7.142801	-0.045076	-1.272143	0.566598
1.590	2.844286	-3.655854	561.466421	3.205593	7.313319	-0.051551	-1.302539	0.570932
1.600	2.702626	-3.583315	561.482252	3.237890	7.479626	-0.054954	-1.332121	0.576668
1.610	2.566388	-3.515224	561.530504	3.277143	7.641638	-0.055785	-1.360859	0.583609
1.620	2.450968	-3.456851	561.608077	3.321939	7.799248	-0.054600	-1.388735	0.591505
1.630	2.366745	-3.410758	561.703689	3.370993	7.952269	-0.051752	-1.415741	0.600137
1.640	2.315739	-3.375976	561.797717	3.423465	8.100497	-0.047321	-1.441889	0.609377
1.650	2.291344	-3.347643	561.864448	3.478900	8.243768	-0.041277	-1.467217	0.619171
1.660	2.280772	-3.317754	561.879184	3.536788	8.381917	-0.033754	-1.491765	0.629457
1.670	2.268939	-3.277440	561.828796	3.596120	8.514656	-0.025257	-1.515525	0.640074
1.680	2.242477	-3.220254	561.720074	3.655342	8.641479	-0.016607	-1.538396	0.650741
1.690	2.192905	-3.144999	561.580181	3.712822	8.761726	-0.008601	-1.560191	0.661138
1.700	2.118390	-3.056560	561.448427	3.767633	8.874869	-0.001607	-1.580710	0.671056
1.710	2.023769	-2.964235	561.363994	3.820306	8.980892	0.004603	-1.599834	0.680540
1.720	1.918862	-2.878520	561.355547	3.873074	9.080491	0.010642	-1.617601	0.689950
1.730	1.815573	-2.808073	561.435765	3.929168	9.174830	0.017027	-1.634173	0.699843
1.740	1.724730	-2.758089	561.599999	3.991172	9.264753	0.023753	-1.649707	0.710679
1.750	1.653542	-2.730048	561.826249	4.059186	9.349703	0.030171	-1.664163	0.722499
1.760	1.604224	-2.721974	562.074944	4.130016	9.426981	0.035206	-1.677175	0.734780
1.770	1.574079	-2.728652	562.290747	4.198103	9.491919	0.037792	-1.688080	0.746607
1.780	1.557158	-2.742062	562.410925	4.257816	9.539108	0.037368	-1.696110	0.757065
1.790	1.547173	-2.752625	562.381988	4.305764	9.564166	0.034243	-1.700653	0.765630
1.800	1.540553	-2.751400	562.179750	4.341883	9.565270	0.029619	-1.701461	0.772330
1.810	1.538153	-2.732655	561.823693	4.368980	9.543841	0.025198	-1.698725	0.777642
1.820	1.544663	-2.695752	561.377964	4.391222	9.504246	0.022509	-1.693021	0.782222
1.830	1.565910	-2.645387	560.936936	4.412408	9.452739	0.022308	-1.685170	0.786614
1.840	1.605359	-2.589884	560.599652	4.434734	9.396078	0.024332	-1.676076	0.791070
1.850	1.661446	-2.538196	560.442009	4.458442	9.340243	0.027483	-1.666585	0.795522
1.860	1.727102	-2.496794	560.496342	4.482272	9.289482	0.030256	-1.657367	0.799697
1.870	1.791919	-2.467749	560.744529	4.504275	9.245866	0.031165	-1.648855	0.803267
1.880	1.846158	-2.448770	561.125216	4.522556	9.209413	0.029044	-1.641240	0.805980
1.890	1.884710	-2.435073	561.551604	4.535748	9.178701	0.023246	-1.634525	0.807717
1.900	1.908940	-2.421911	561.934344	4.543219	9.151771	0.013794	-1.628619	0.808496
1.910	1.925520	-2.406379	562.203566	4.545059	9.127004	0.001428	-1.623434	0.808437
1.920	1.942936	-2.387791	562.324451	4.541873	9.103713	-0.012541	-1.618943	0.807696
1.930	1.967477	-2.366966	562.302313	4.534334	9.082308	-0.026548	-1.615200	0.806387
1.940	2.000531	-2.345303	562.175909	4.522570	9.064030	-0.039128	-1.612312	0.804476
1.950	2.038199	-2.324329	562.001219	4.505637	9.050348	-0.049157	-1.610379	0.801713
1.960	2.073143	-2.305768	561.831467	4.481451	9.042263	-0.055945	-1.609426	0.797650
1.970	2.097768	-2.291731	561.700997	4.447419	9.039751	-0.059241	-1.609353	0.791777
1.980	2.107551	-2.284573	561.619258	4.401574	9.041568	-0.059199	-1.609911	0.783729
1.990	2.103374	-2.286317	561.576403	4.343638	9.045403	-0.056292	-1.610716	0.773472
2.000	2.091935	-2.297991	561.556037	4.275461	9.048208	-0.051161	-1.611274	0.761360
2.010	2.083803	-2.319315	561.547237	4.200750	9.046526	-0.044477	-1.611000	0.748067
2.020	2.089605	-2.348823	561.549318	4.124303	9.036690	-0.036893	-1.609242	0.734451
2.030	2.115980	-2.384097	561.568023	4.050985	9.014923	-0.029030	-1.605313	0.721370
2.040	2.163447	-2.421885	561.607288	3.984580	8.977479	-0.021383	-1.598533	0.709496
2.050	2.227357	-2.458363	561.662913	3.926751	8.921013	-0.014080	-1.588321	0.699130
2.060	2.301242	-2.490161	561.722190	3.876451	8.843221	-0.006701	-1.574305	0.690101
2.070	2.380641	-2.516231	561.768852	3.830070	8.743480	0.001648	-1.556420	0.681788
2.080	2.465514	-2.539639	561.789777	3.782358	8.623061	0.011980	-1.534927	0.673269
2.090	2.560224	-2.567816	561.780379	3.727828	8.484693	0.024935	-1.510322	0.663574
2.100	2.671237	-2.610520	561.747533	3.662179	8.331647	0.040410	-1.483166	0.651926
2.110	2.803797	-2.676208	561.709440	3.583302	8.166842	0.057469	-1.453926	0.637928
2.120	2.959205	-2.768541	561.691265	3.491504	7.992482	0.074593	-1.422932	0.621605
2.130	3.133836	-2.884757	561.716340	3.388968	7.810342	0.090174	-1.390442	0.603324
2.140	3.320104	-3.016570	561.795818	3.278695	7.622387	0.103061	-1.356790	0.583610
2.150	3.508832	-3.152917	561.922163	3.163436	7.431172	0.112885	-1.322456	0.562967
2.160	3.691860	-3.283034	562.070572	3.045106	7.239711	0.119994	-1.288043	0.541766
2.170	3.863639	-3.398752	562.207623	2.924947	7.051009	0.125070	-1.254165	0.520261
2.180	4.021187	-3.495675	562.302144	2.804317	6.867662	0.128683	-1.221347	0.498721
2.190	4.162953	-3.573374	562.333169	2.685588	6.691848	0.131022	-1.190015	0.477579
2.200	4.287711	-3.634571	562.293095	2.572618	6.525615	0.131861	-1.160536	0.457523
2.210	4.394344	-3.683482	562.187209	2.470477	6.371238	0.130693	-1.133295	0.439440
2.220	4.482461	-3.723873	562.031365	2.384498	6.231336	0.126966	-1.108717	0.424264
2.230	4.553144	-3.757595	561.848811	2.319111	6.108618	0.120345	-1.087235	0.412764
2.240	4.609183	-3.783918	561.666339	2.276952	6.005423	0.110888	-1.069215	0.405392
2.250	4.654554	-3.799638	561.509941	2.258424	5.923380	0.099004	-1.054902	0.402205
2.260	4.693404	-3.799873	561.400593	2.261615	5.863469	0.085231	-1.044436	0.402852
2.270	4.728854	-3.779611	561.350825	2.282465	5.826386	0.069982	-1.037922	0.406602
2.280	4.761935	-3.735910	561.362451	2.315251	5.812809	0.053483	-1.035482	0.412434
2.290	4.790916	-3.670083	561.425882	2.353543	5.823258	0.035962	-1.037226	0.419208
2.300	4.811356	-3.588714	561.521834	2.391611	5.857583	0.017959	-1.043162	0.425916
2.310	4.817163	-3.502623	561.625869	2.425888	5.914396	0.000519	-1.053085	0.431940
2.320	4.802441	-3.423881	561.714880	2.455862	5.990786	-0.014906	-1.066517	0.437208
2.330	4.763448	-3.362054	561.773349	2.483853	6.082566	-0.026832	-1.082744	0.442145
2.340	4.699789	-3.321227	561.797298	2.513645	6.185081	-0.034188	-1.100945	0.447429
2.350	4.614390	-3.298918	561.795105	2.548577	6.294399	-0.036608	-1.120408	0.453649
2.360	4.512301	-3.287119	561.785613	2.590033	6.408402	-0.034492	-1.140720	0.461036
2.370	4.398848	-3.274956	561.794189	2.637044	6.527257	-0.028917	-1.161859	0.469397
2.380	4.277892	-3.252126	561.846816	2.687117	6.653038	-0.021425	-1.184137	0.478265
2.390	4.150934	-3.212105	561.962087	2.737731	6.788623	-0.013712	-1.208021	0.487174
2.400	4.017387	-3.154125	562.142005	2.787559	6.936267	-0.007263	-1.233899	0.495882
2.410	3.875659	-3.083133	562.364462	2.836749	7.096374	-0.003064	-1.261882	0.504432
2.420	3.724265	-3.007708	562.581796	2.886158	7.266992	-0.001511	-1.291722	0.513020
