Time[s]	Fx[N]	Fy[N]	Fz[N]	Mx[Nm]	My[Nm]	Mz[Nm]	COPx[cm]	COPy[cm]
0.010	0.837522	-5.425756	448.717115	-10.633865	6.111789	-0.342152	-1.362058	-2.369837
0.020	0.996948	-5.551977	450.596016	-10.829221	6.023315	-0.354099	-1.336744	-2.403310
0.030	1.145487	-5.673247	452.643298	-11.021195	5.940555	-0.367858	-1.312414	-2.434852
0.040	1.272504	-5.785423	454.954939	-11.206335	5.868951	-0.384549	-1.290007	-2.463175
0.050	1.368959	-5.885807	457.514235	-11.381284	5.813652	-0.404314	-1.270704	-2.487635
0.060	1.430479	-5.974415	460.190743	-11.542380	5.778894	-0.426221	-1.255761	-2.508173
0.070	1.459274	-6.054435	462.774965	-11.685541	5.767032	-0.448504	-1.246185	-2.525102
0.080	1.462837	-6.131101	465.032840	-11.806743	5.777651	-0.469096	-1.242418	-2.538905
0.090	1.449855	-6.209273	466.762882	-11.902941	5.807264	-0.486332	-1.244157	-2.550104
0.100	1.425844	-6.290888	467.842161	-11.973036	5.849843	-0.499547	-1.250388	-2.559204
0.110	1.391089	-6.373713	468.251267	-12.018579	5.897995	-0.509269	-1.259579	-2.566694
0.120	1.341813	-6.452209	468.072954	-12.044046	5.944277	-0.516877	-1.269947	-2.573113
0.130	1.273622	-6.520281	467.465560	-12.056509	5.982197	-0.523898	-1.279709	-2.579122
0.140	1.185390	-6.574604	466.619033	-12.064518	6.006746	-0.531326	-1.287291	-2.585518
0.150	1.081817	-6.616797	465.705951	-12.076184	6.014597	-0.539249	-1.291501	-2.593092
0.160	0.973659	-6.653333	464.841181	-12.097005	6.004244	-0.546839	-1.291676	-2.602395
0.170	0.875618	-6.693268	464.061838	-12.128307	5.976259	-0.552568	-1.287815	-2.613511
0.180	0.802735	-6.744879	463.333760	-12.166993	5.933650	-0.554566	-1.280643	-2.625967
0.190	0.766444	-6.812657	462.581971	-12.206592	5.882078	-0.551111	-1.271575	-2.638796
0.200	0.771378	-6.895788	461.733756	-12.239047	5.829532	-0.541194	-1.262531	-2.650672
0.210	0.813827	-6.988571	460.759035	-12.256612	5.785130	-0.524988	-1.255565	-2.660091
0.220	0.882323	-7.082255	459.695462	-12.253605	5.757150	-0.504020	-1.252383	-2.665592
0.230	0.960233	-7.167220	458.651787	-12.227851	5.750869	-0.480965	-1.253864	-2.666042
0.240	1.029603	-7.234473	457.788219	-12.181379	5.767002	-0.459121	-1.259753	-2.660920
0.250	1.075279	-7.276124	457.277278	-12.119885	5.801357	-0.441714	-1.268674	-2.650446
0.260	1.088387	-7.285333	457.254601	-12.050874	5.845967	-0.431199	-1.278493	-2.635484
0.270	1.068312	-7.256634	457.774850	-11.981184	5.891492	-0.428717	-1.286985	-2.617266
0.280	1.022416	-7.187383	458.788481	-11.914943	5.930155	-0.433828	-1.292568	-2.597045
0.290	0.963379	-7.080149	460.148657	-11.852718	5.958127	-0.444606	-1.294826	-2.575845
0.300	0.905048	-6.944665	461.646558	-11.791979	5.976412	-0.458082	-1.294586	-2.554330
0.310	0.858522	-6.797381	463.063009	-11.728389	5.989914	-0.470938	-1.293542	-2.532785
0.320	0.829936	-6.657620	464.219151	-11.657186	6.005133	-0.480317	-1.293599	-2.511139
0.330	0.820393	-6.541362	465.010607	-11.574007	6.027432	-0.484567	-1.296192	-2.488977
0.340	0.827368	-6.455103	465.417233	-11.474979	6.058828	-0.483720	-1.301806	-2.465525
0.350	0.846394	-6.392278	465.490051	-11.356389	6.097017	-0.479526	-1.309806	-2.439663
0.360	0.872151	-6.333734	465.323579	-11.214382	6.135952	-0.474963	-1.318642	-2.410018
0.370	0.898932	-6.252502	465.023660	-11.044888	6.167767	-0.473344	-1.326334	-2.375124
0.380	0.921077	-6.121673	464.679754	-10.843783	6.185290	-0.477319	-1.331087	-2.333604
0.390	0.933957	-5.922789	464.348377	-10.607278	6.184155	-0.488149	-1.331792	-2.284336
0.400	0.935639	-5.651576	464.050739	-10.332668	6.163701	-0.505487	-1.328238	-2.226625
0.410	0.928633	-5.318855	463.782279	-10.019374	6.126533	-0.527700	-1.320993	-2.160362
0.420	0.920436	-4.946665	463.526950	-9.669937	6.077211	-0.552444	-1.311080	-2.086165
0.430	0.921500	-4.561634	463.268038	-9.290561	6.020843	-0.577233	-1.299646	-2.005440
0.440	0.940429	-4.188454	462.991453	-8.890994	5.962214	-0.599852	-1.287759	-1.920337
0.450	0.978271	-3.845611	462.683906	-8.483681	5.905615	-0.618637	-1.276382	-1.833580
0.460	1.025206	-3.544229	462.332540	-8.082313	5.855027	-0.632613	-1.266410	-1.748160
0.470	1.062297	-3.289523	461.931931	-7.700107	5.814048	-0.641462	-1.258637	-1.666935
0.480	1.068625	-3.083315	461.498478	-7.348311	5.785102	-0.645348	-1.253547	-1.592272
0.490	1.031127	-2.925716	461.083907	-7.035327	5.768056	-0.644732	-1.250977	-1.525824
0.500	0.952501	-2.814782	460.775069	-6.766485	5.759045	-0.640280	-1.249860	-1.468501
0.510	0.852882	-2.744651	460.672350	-6.544192	5.750500	-0.632927	-1.248284	-1.420574
0.520	0.763859	-2.704040	460.852285	-6.368157	5.732876	-0.623973	-1.243973	-1.381822
0.530	0.717220	-2.676990	461.331376	-6.235583	5.697636	-0.615093	-1.235042	-1.351649
0.540	0.733423	-2.646214	462.049115	-6.141456	5.640250	-0.608130	-1.220704	-1.329178
0.550	0.814713	-2.597471	462.879058	-6.079034	5.561768	-0.604700	-1.201560	-1.313309
0.560	0.945592	-2.522631	463.664124	-6.040523	5.468145	-0.605765	-1.179333	-1.302780
0.570	1.099912	-2.420184	464.262970	-6.017780	5.367611	-0.611313	-1.156158	-1.296201
0.580	1.251137	-2.293776	464.591397	-6.002852	5.267234	-0.620271	-1.133735	-1.292071
0.590	1.381369	-2.150415	464.645500	-5.988359	5.170126	-0.630708	-1.112703	-1.288802
0.600	1.485996	-1.999367	464.499188	-5.967884	5.074321	-0.640281	-1.092428	-1.284800
0.610	1.573071	-1.851406	464.276268	-5.936464	4.973585	-0.646854	-1.071255	-1.278649
0.620	1.658590	-1.717454	464.105480	-5.891049	4.859592	-0.649095	-1.047088	-1.269334
0.630	1.759884	-1.606268	464.073578	-5.830784	4.724514	-0.646863	-1.018053	-1.256435
0.640	1.889489	-1.522017	464.193278	-5.757074	4.563225	-0.641201	-0.983044	-1.240232
0.650	2.051244	-1.463242	464.397968	-5.673623	4.374832	-0.633860	-0.942044	-1.221716
0.660	2.239511	-1.424077	464.564845	-5.586520	4.163402	-0.626496	-0.896194	-1.202528
0.670	2.441614	-1.397382	464.557247	-5.504198	3.937675	-0.619854	-0.847619	-1.184827
0.680	2.642746	-1.378342	464.270050	-5.436862	3.709550	-0.613344	-0.799007	-1.171056
0.690	2.831687	-1.366906	463.661801	-5.395126	3.491624	-0.605235	-0.753054	-1.163591
0.700	3.004852	-1.368099	462.763109	-5.388065	3.294668	-0.593418	-0.711956	-1.164325
0.710	3.166613	-1.390269	461.660141	-5.421447	3.126021	-0.576410	-0.677126	-1.174337
0.720	3.325445	-1.442283	460.461681	-5.496961	2.989372	-0.554137	-0.649212	-1.193793
0.730	3.487667	-1.531044	459.265060	-5.612849	2.885698	-0.528173	-0.628330	-1.222137
0.740	3.651822	-1.660216	458.136649	-5.765583	2.814683	-0.501326	-0.614376	-1.258485
0.750	3.806554	-1.830064	457.114583	-5.951674	2.775884	-0.476773	-0.607262	-1.302009
0.760	3.933299	-2.037586	456.228465	-6.168634	2.769068	-0.457132	-0.606948	-1.352093
0.770	4.012782	-2.276236	455.521126	-6.414716	2.793690	-0.443843	-0.613295	-1.408215
0.780	4.032135	-2.535452	455.057425	-6.687964	2.848071	-0.437050	-0.625871	-1.469697
0.790	3.988976	-2.801085	454.914185	-6.985592	2.929005	-0.435848	-0.643859	-1.535585
0.800	3.890462	-3.057822	455.157190	-7.304315	3.032083	-0.438711	-0.666162	-1.604790
0.810	3.748426	-3.293602	455.817979	-7.641344	3.152353	-0.443900	-0.691581	-1.676403
0.820	3.573987	-3.504378	456.881691	-7.995082	3.284713	-0.449792	-0.718942	-1.749924
0.830	3.375035	-3.696633	458.290314	-8.364728	3.423758	-0.455112	-0.747072	-1.825203
0.840	3.157801	-3.885730	459.958603	-8.748754	3.563283	-0.459020	-0.774696	-1.902074
0.850	2.931096	-4.090241	461.794843	-9.143031	3.695930	-0.461089	-0.800340	-1.979890
0.860	2.710373	-4.324515	463.716406	-9.539758	3.813347	-0.461214	-0.822345	-2.057240
0.870	2.518806	-4.592639	465.652076	-9.927974	3.906981	-0.459558	-0.839034	-2.132058
0.880	2.383681	-4.886298	467.530248	-10.295588	3.969331	-0.456535	-0.849000	-2.202122
0.890	2.328443	-5.187355	469.261270	-10.632017	3.995296	-0.452733	-0.851401	-2.265692
0.900	2.363300	-5.473939	470.727169	-10.930322	3.983179	-0.448758	-0.846176	-2.322008
0.910	2.479190	-5.727410	471.788266	-11.188099	3.934943	-0.445058	-0.834049	-2.371424
0.920	2.649133	-5.937397	472.305938	-11.406986	3.855672	-0.441859	-0.816351	-2.415169
0.930	2.837424	-6.103395	472.171641	-11.591075	3.752496	-0.439205	-0.794731	-2.454844
0.940	3.012690	-6.233094	471.330527	-11.744804	3.633495	-0.437018	-0.770902	-2.491840
0.950	3.158533	-6.338745	469.793040	-11.871101	3.507009	-0.435142	-0.746501	-2.526879
0.960	3.276821	-6.433053	467.634353	-11.970523	3.381457	-0.433362	-0.723099	-2.559804
0.970	3.382669	-6.525814	464.985178	-12.041795	3.265517	-0.431441	-0.702284	-2.589716
0.980	3.494208	-6.621883	462.017720	-12.083460	3.168312	-0.429164	-0.685756	-2.615367
0.990	3.622114	-6.720458	458.929261	-12.095766	3.099313	-0.426376	-0.675336	-2.635649
1.000	3.763177	-6.815350	455.924802	-12.081782	3.067802	-0.423018	-0.672874	-2.649951
1.010	3.899954	-6.896158	453.200084	-12.047152	3.081935	-0.419148	-0.680038	-2.658241
1.020	4.006103	-6.950598	450.927191	-11.998608	3.147579	-0.415026	-0.698024	-2.660875
1.030	4.055012	-6.967792	449.245036	-11.942038	3.267265	-0.411266	-0.727279	-2.658246
1.040	4.028385	-6.941546	448.255445	-11.881094	3.439674	-0.408987	-0.767347	-2.650519
1.050	3.921737	-6.872331	448.023281	-11.817073	3.659992	-0.409760	-0.816920	-2.637602
1.060	3.745100	-6.767240	448.577632	-11.750166	3.921049	-0.415249	-0.874107	-2.619428
1.070	3.519073	-6.637955	449.911424	-11.681481	4.214752	-0.426560	-0.936796	-2.596396
1.080	3.268001	-6.497320	451.978633	-11.614727	4.533122	-0.443577	-1.002951	-2.569751
1.090	3.012860	-6.355757	454.690261	-11.556542	4.868534	-0.464623	-1.070736	-2.541630
1.100	2.766122	-6.219221	457.910924	-11.515001	5.213336	-0.486753	-1.138504	-2.514681
1.110	2.529966	-6.089940	461.457609	-11.496824	5.559398	-0.506670	-1.204747	-2.491415
1.120	2.298118	-5.969426	465.102562	-11.504410	5.898155	-0.521881	-1.268141	-2.473521
1.130	2.060584	-5.861309	468.583815	-11.533940	6.221304	-0.531499	-1.327682	-2.461446
1.140	1.809662	-5.771354	471.627012	-11.575362	6.521884	-0.536264	-1.382848	-2.454347
1.150	1.545068	-5.704172	473.978186	-11.614400	6.795195	-0.537838	-1.433651	-2.450408
1.160	1.276272	-5.658915	475.440253	-11.635870	7.039262	-0.537824	-1.480578	-2.447388
1.170	1.021064	-5.627338	475.901661	-11.627165	7.254793	-0.537075	-1.524431	-2.443187
1.180	0.800790	-5.596019	475.348145	-11.580790	7.444803	-0.535542	-1.566179	-2.436276
1.190	0.633970	-5.551617	473.856680	-11.495374	7.613997	-0.532617	-1.606814	-2.425918
1.200	0.530535	-5.485992	471.578729	-11.375090	7.767989	-0.527714	-1.647231	-2.412130
1.210	0.488687	-5.398396	468.722465	-11.227869	7.912440	-0.520857	-1.688086	-2.395419
1.220	0.495405	-5.294015	465.539433	-11.063116	8.052256	-0.513119	-1.729661	-2.376408
1.230	0.530205	-5.180216	462.313401	-10.889939	8.190873	-0.506741	-1.771714	-2.355532
1.240	0.570365	-5.062667	459.343477	-10.716669	8.329647	-0.504739	-1.813381	-2.333040
1.250	0.595372	-4.943250	456.914789	-10.551633	8.467511	-0.509954	-1.853193	-2.309322
1.260	0.589315	-4.820787	455.258358	-10.404161	8.601191	-0.523860	-1.889299	-2.285331
1.270	0.541470	-4.694223	454.511206	-10.284602	8.726196	-0.545669	-1.919908	-2.262783
1.280	0.446144	-4.566543	454.691223	-10.202765	8.838436	-0.572251	-1.943833	-2.243889
1.290	0.302798	-4.447212	455.696345	-10.165351	8.935918	-0.598961	-1.960937	-2.230729
1.300	0.116992	-4.351528	457.328088	-10.173662	9.019780	-0.621061	-1.972278	-2.224587
1.310	-0.098165	-4.296643	459.331052	-10.222856	9.094155	-0.635166	-1.979869	-2.225597
1.320	-0.321407	-4.295680	461.436633	-10.303132	9.164896	-0.640158	-1.986166	-2.232838
1.330	-0.525379	-4.352484	463.400995	-10.402269	9.237768	-0.637276	-1.993472	-2.244766
1.340	-0.682158	-4.459330	465.032021	-10.508375	9.316832	-0.629425	-2.003482	-2.259710
1.350	-0.770837	-4.598376	466.204482	-10.611919	9.403525	-0.620110	-2.017039	-2.276237
1.360	-0.784096	-4.746000	466.864865	-10.706716	9.496506	-0.612408	-2.034102	-2.293322
1.370	-0.730853	-4.878435	467.027063	-10.790122	9.592096	-0.608294	-2.053863	-2.310385
1.380	-0.633843	-4.977271	466.759617	-10.862885	9.685105	-0.608385	-2.074966	-2.327298
1.390	-0.523050	-5.033769	466.166444	-10.928891	9.769843	-0.611975	-2.095784	-2.344418
1.400	-0.427300	-5.051168	465.365760	-10.994794	9.841186	-0.617252	-2.114721	-2.362614
1.410	-0.366645	-5.044397	464.473420	-11.069272	9.895455	-0.621647	-2.130467	-2.383187
1.420	-0.347675	-5.036921	463.594510	-11.161663	9.930805	-0.622359	-2.142132	-2.407635
1.430	-0.362702	-5.055030	462.821937	-11.279992	9.946925	-0.617078	-2.149191	-2.437221
1.440	-0.392470	-5.120826	462.236873	-11.428820	9.944141	-0.604753	-2.151308	-2.472503
1.450	-0.411157	-5.245914	461.905854	-11.607643	9.922369	-0.586100	-2.148137	-2.512989
1.460	-0.392284	-5.427966	461.871871	-11.810455	9.880527	-0.563556	-2.139235	-2.557085
1.470	-0.314526	-5.651386	462.140347	-12.026663	9.816849	-0.540615	-2.124214	-2.602383
1.480	-0.166751	-5.891769	462.664944	-12.243066	9.730169	-0.520857	-2.103070	-2.646206
1.490	0.048545	-6.122418	463.341515	-12.446288	9.621783	-0.507044	-2.076607	-2.686202
1.500	0.314661	-6.320673	464.017931	-12.624949	9.497021	-0.500568	-2.046693	-2.720789
1.510	0.603951	-6.472305	464.521415	-12.771054	9.365473	-0.501271	-2.016155	-2.749293
1.520	0.884325	-6.573146	464.696737	-12.880335	9.239355	-0.507598	-1.988255	-2.771772
1.530	1.126636	-6.628058	464.443505	-12.951612	9.130584	-0.517011	-1.965919	-2.788630
1.540	1.310205	-6.647913	463.741213	-12.985525	9.047946	-0.526620	-1.951077	-2.800166
1.550	1.425138	-6.645611	462.654928	-12.983293	8.995668	-0.533885	-1.944358	-2.806258
1.560	1.471824	-6.632148	461.320118	-12.946115	8.973863	-0.537213	-1.945257	-2.806319
1.570	1.458844	-6.613775	459.910880	-12.875404	8.980304	-0.536253	-1.952618	-2.799543
1.580	1.400117	-6.591129	458.601105	-12.773601	9.012391	-0.531805	-1.965192	-2.785340
1.590	1.311641	-6.560837	457.531294	-12.644981	9.068310	-0.525437	-1.982009	-2.763741
1.600	1.208277	-6.518982	456.791988	-12.495880	9.147040	-0.519064	-2.002452	-2.735573
1.610	1.101393	-6.464665	456.427082	-12.334123	9.247426	-0.514665	-2.026047	-2.702321
1.620	0.998053	-6.401567	456.450727	-12.167827	9.366893	-0.514112	-2.052115	-2.665748
1.630	0.901903	-6.336467	456.866356	-12.004089	9.500426	-0.518943	-2.079476	-2.627484
1.640	0.815124	-6.275494	457.677963	-11.847987	9.640358	-0.529938	-2.106363	-2.588717
1.650	0.740364	-6.220335	458.888855	-11.702093	9.777163	-0.546608	-2.130617	-2.550093
1.660	0.681441	-6.166751	460.487706	-11.566492	9.900985	-0.566949	-2.150108	-2.511792
1.670	0.642277	-6.106319	462.425835	-11.439161	10.003356	-0.587819	-2.163235	-2.473729
1.680	0.624741	-6.030398	464.594323	-11.316589	10.078485	-0.605934	-2.169309	-2.435800
1.690	0.626852	-5.934164	466.813020	-11.194463	10.123781	-0.619083	-2.168702	-2.398061
1.700	0.642533	-5.818756	468.841757	-11.068349	10.139718	-0.626922	-2.162716	-2.360786
1.710	0.663283	-5.690489	470.415906	-10.934363	10.129351	-0.630952	-2.153276	-2.324403
1.720	0.681261	-5.557560	471.297779	-10.789795	10.097737	-0.633708	-2.142539	-2.289380
1.730	0.692511	-5.425860	471.328179	-10.633556	10.051183	-0.637638	-2.132523	-2.256083
1.740	0.698740	-5.296053	470.462472	-10.466314	9.996264	-0.644245	-2.124774	-2.224686
1.750	0.706694	-5.163448	468.781670	-10.290334	9.938805	-0.653831	-2.120135	-2.195123
1.760	0.725532	-5.020800	466.477093	-10.109110	9.883290	-0.665795	-2.118708	-2.167118
1.770	0.763324	-4.862790	463.814016	-9.926825	9.832984	-0.679148	-2.120027	-2.140260
1.780	0.823729	-4.690002	461.084542	-9.747543	9.790643	-0.692919	-2.123394	-2.114047
1.790	0.903605	-4.510152	458.561894	-9.574254	9.759253	-0.706324	-2.128230	-2.087887
1.800	0.992250	-4.335494	456.465973	-9.408219	9.742357	-0.718817	-2.134301	-2.061100
1.810	1.072704	-4.177458	454.944220	-9.249112	9.743945	-0.730151	-2.141789	-2.033021
1.820	1.124858	-4.041480	454.066039	-9.095946	9.768195	-0.740483	-2.151272	-2.003221
1.830	1.129486	-3.925186	453.826492	-8.948178	9.819239	-0.750399	-2.163655	-1.971718
1.840	1.072303	-3.821064	454.156212	-8.806273	9.900856	-0.760818	-2.180055	-1.939041
1.850	0.947439	-3.721955	454.937111	-8.671521	10.015949	-0.772730	-2.201612	-1.906092
1.860	0.759662	-3.626038	456.024495	-8.545536	10.165832	-0.786822	-2.229229	-1.873920
1.870	0.524492	-3.538354	457.274082	-8.430097	10.349487	-0.803073	-2.263301	-1.843555
1.880	0.265629	-3.468043	458.568529	-8.327500	10.562989	-0.820495	-2.303470	-1.815977
1.890	0.009812	-3.422975	459.835627	-8.240990	10.799357	-0.837154	-2.348526	-1.792160
1.900	-0.220004	-3.405004	461.051822	-8.174606	11.049112	-0.850539	-2.396501	-1.773034
1.910	-0.411453	-3.408770	462.229899	-8.132189	11.301592	-0.858268	-2.445015	-1.759339
1.920	-0.567000	-3.424585	463.396039	-8.116030	11.546636	-0.858940	-2.491742	-1.751424
1.930	-0.702991	-3.443285	464.565932	-8.126020	11.775896	-0.852769	-2.534817	-1.749164
1.940	-0.842423	-3.459992	465.729273	-8.159863	11.983188	-0.841593	-2.572994	-1.752062
1.950	-1.003510	-3.475115	466.847077	-8.214149	12.163775	-0.828126	-2.605516	-1.759494
1.960	-1.189029	-3.492974	467.859716	-8.285410	12.313230	-0.814827	-2.631821	-1.770918
1.970	-1.381969	-3.519500	468.699226	-8.370479	12.426820	-0.802999	-2.651342	-1.785896
1.980	-1.550433	-3.560146	469.299355	-8.466089	12.500083	-0.792613	-2.663563	-1.803985
1.990	-1.660387	-3.618422	469.601241	-8.568318	12.530401	-0.782824	-2.668307	-1.824594
2.000	-1.690813	-3.694984	469.558463	-8.672486	12.518693	-0.772789	-2.666056	-1.846945
2.010	-1.644218	-3.787168	469.147148	-8.773800	12.470072	-0.762242	-2.658030	-1.870159
2.020	-1.547206	-3.889133	468.382306	-8.868572	12.392718	-0.751530	-2.645855	-1.893447
2.030	-1.440473	-3.993058	467.334227	-8.955516	12.294946	-0.741156	-2.630868	-1.916298
2.040	-1.362483	-4.091620	466.135011	-9.036587	12.181535	-0.731122	-2.613306	-1.938620
2.050	-1.333789	-4.181143	464.967750	-9.116993	12.050943	-0.720429	-2.591780	-1.960780
2.060	-1.348220	-4.263975	464.037179	-9.204296	11.894750	-0.706999	-2.563318	-1.983526
2.070	-1.373893	-4.348706	463.527505	-9.306657	11.699545	-0.688112	-2.524024	-2.007790
2.080	-1.362947	-4.447883	463.558619	-9.430507	11.450449	-0.661243	-2.470119	-2.034372
2.090	-1.266080	-4.574205	464.153893	-9.578108	11.135039	-0.625000	-2.398997	-2.063563
2.100	-1.046895	-4.736663	465.228872	-9.745827	10.746625	-0.579831	-2.309965	-2.094846
2.110	-0.691629	-4.937746	466.602116	-9.923983	10.286260	-0.528228	-2.204504	-2.126862
2.120	-0.211737	-5.172268	468.022468	-10.098663	9.763270	-0.474338	-2.086069	-2.157730
2.130	0.360501	-5.427985	469.205414	-10.255013	9.194335	-0.423037	-1.959554	-2.185613
2.140	0.980891	-5.687727	469.873914	-10.380680	8.601311	-0.378724	-1.830557	-2.209248
2.150	1.603564	-5.932309	469.801478	-10.467996	8.008136	-0.344203	-1.704579	-2.228174
2.160	2.190093	-6.143399	468.853494	-10.514196	7.437389	-0.320081	-1.586293	-2.242533
2.170	2.715948	-6.305911	467.018196	-10.520121	6.907310	-0.304921	-1.479024	-2.252615
2.180	3.173089	-6.409969	464.416541	-10.488565	6.430066	-0.296053	-1.384547	-2.258439
2.190	3.567751	-6.452327	461.284334	-10.423257	6.011722	-0.290699	-1.303257	-2.259617
2.200	3.913582	-6.436667	457.928710	-10.328648	5.653743	-0.286932	-1.234634	-2.255514
2.210	4.222470	-6.372311	454.669892	-10.209999	5.355306	-0.284136	-1.177845	-2.245585
2.220	4.497038	-6.271551	451.784598	-10.073290	5.115488	-0.282901	-1.132285	-2.229667
2.230	4.728140	-6.146485	449.467799	-9.924781	4.934649	-0.284541	-1.097887	-2.208118
2.240	4.897989	-6.006398	447.823257	-9.770494	4.814769	-0.290528	-1.075149	-2.181775
2.250	4.986819	-5.856645	446.881190	-9.615966	4.758800	-0.302052	-1.064892	-2.151795
2.260	4.980012	-5.699614	446.629909	-9.466424	4.769294	-0.319764	-1.067840	-2.119523
2.270	4.873292	-5.537436	447.044924	-9.327126	4.846734	-0.343657	-1.084172	-2.086396
2.280	4.674826	-5.375005	448.104909	-9.203383	4.988092	-0.373027	-1.113153	-2.053846
2.290	4.403932	-5.221467	449.792789	-9.099899	5.185989	-0.406493	-1.152973	-2.023131
2.300	4.086931	-5.089123	452.085493	-9.019549	5.428640	-0.442118	-1.200799	-1.995098
2.310	3.751389	-4.990128	454.936781	-8.962109	5.700534	-0.477670	-1.253039	-1.969968
