Time[s]	Fx[N]	Fy[N]	Fz[N]	Mx[Nm]	My[Nm]	Mz[Nm]	COPx[cm]	COPy[cm]
0.010	2.329585	-1.278258	492.548140	7.891347	1.217929	-0.267511	-0.247271	1.602147
0.020	2.319696	-1.122943	492.342060	7.915078	1.218048	-0.288313	-0.247399	1.607638
0.030	2.340841	-0.976512	492.181392	7.937088	1.215494	-0.308103	-0.246961	1.612635
0.040	2.408607	-0.847381	492.127556	7.956353	1.210134	-0.325892	-0.245899	1.616726
0.050	2.516556	-0.741697	492.249350	7.972180	1.205364	-0.340810	-0.244869	1.619541
0.060	2.638484	-0.661636	492.605821	7.984433	1.207420	-0.352107	-0.245109	1.620856
0.070	2.738863	-0.604427	493.219840	7.993717	1.223088	-0.359168	-0.247980	1.620721
0.080	2.786386	-0.563013	494.054514	8.001311	1.256788	-0.361619	-0.254382	1.619520
0.090	2.765091	-0.528548	495.005752	8.008683	1.308331	-0.359498	-0.264306	1.617897
0.100	2.679301	-0.493917	495.918499	8.016683	1.372358	-0.353376	-0.276731	1.616532
0.110	2.551365	-0.456851	496.623756	8.024826	1.439798	-0.344302	-0.289917	1.615876
0.120	2.413871	-0.421223	496.984614	8.031148	1.500811	-0.333503	-0.301983	1.615975
0.130	2.299672	-0.395959	496.936409	8.032908	1.548077	-0.321962	-0.311524	1.616486
0.140	2.233213	-0.392025	496.508346	8.027906	1.579132	-0.310082	-0.318048	1.616872
0.150	2.225357	-0.418753	495.819570	8.015839	1.596944	-0.297646	-0.322082	1.616685
0.160	2.272282	-0.480794	495.050686	7.999058	1.608709	-0.284146	-0.324958	1.615806
0.170	2.357915	-0.576505	494.399417	7.982243	1.623513	-0.269311	-0.328381	1.614533
0.180	2.458974	-0.697995	494.032883	7.970910	1.649668	-0.253576	-0.333919	1.613437
0.190	2.551474	-0.832666	494.048528	7.969149	1.692521	-0.238253	-0.342582	1.613030
0.200	2.617150	-0.965797	494.452959	7.977518	1.753320	-0.225276	-0.354598	1.613403
0.210	2.647990	-1.083476	495.163780	7.992075	1.829373	-0.216611	-0.369448	1.614027
0.220	2.647273	-1.175039	496.033725	8.005060	1.915319	-0.213606	-0.386127	1.613814
0.230	2.626517	-1.234250	496.890136	8.007054	2.004919	-0.216628	-0.403493	1.611433
0.240	2.599339	-1.258814	497.577934	7.989859	2.092688	-0.225120	-0.420575	1.605750
0.250	2.574786	-1.248601	497.992791	7.949109	2.174815	-0.237977	-0.436716	1.596230
0.260	2.553189	-1.203937	498.094498	7.885655	2.249123	-0.254002	-0.451545	1.583164
0.270	2.526570	-1.125484	497.897871	7.805170	2.314326	-0.272214	-0.464819	1.567625
0.280	2.483563	-1.016199	497.447449	7.716183	2.369132	-0.291962	-0.476258	1.551155
0.290	2.416808	-0.884265	496.789494	7.627518	2.411767	-0.312852	-0.485471	1.535362
0.300	2.329442	-0.744994	495.956507	7.546252	2.440160	-0.334552	-0.492011	1.521555
0.310	2.237367	-0.620182	494.973026	7.476820	2.452653	-0.356532	-0.495512	1.510551
0.320	2.165413	-0.534517	493.878747	7.421136	2.448897	-0.377888	-0.495850	1.502623
0.330	2.138235	-0.509723	492.753443	7.379259	2.430599	-0.397397	-0.493269	1.497556
0.340	2.169421	-0.558049	491.725686	7.350159	2.401955	-0.413857	-0.488475	1.494768
0.350	2.253450	-0.677296	490.956234	7.332368	2.369689	-0.426572	-0.482668	1.493487
0.360	2.364064	-0.849469	490.600926	7.324472	2.342503	-0.435651	-0.477476	1.492959
0.370	2.460121	-1.044098	490.767459	7.325417	2.329723	-0.441926	-0.474710	1.492645
0.380	2.497301	-1.225807	491.480983	7.334646	2.339130	-0.446512	-0.475935	1.492356
0.390	2.442038	-1.364010	492.668156	7.352057	2.374495	-0.450289	-0.481967	1.492294
0.400	2.283069	-1.441416	494.163448	7.377755	2.433706	-0.453597	-0.492490	1.492979
0.410	2.036581	-1.458055	495.737066	7.411548	2.508367	-0.456192	-0.505987	1.495056
0.420	1.743021	-1.429475	497.139952	7.452340	2.585417	-0.457300	-0.520058	1.499043
0.430	1.456568	-1.380284	498.156949	7.497726	2.650510	-0.455621	-0.532063	1.505093
0.440	1.230767	-1.335852	498.654702	7.544124	2.692156	-0.449384	-0.539884	1.512895
0.450	1.104991	-1.315061	498.609156	7.587542	2.705084	-0.436677	-0.542526	1.521741
0.460	1.095991	-1.326188	498.102135	7.624816	2.691517	-0.416105	-0.540354	1.530774
0.470	1.196854	-1.366700	497.287429	7.654811	2.659834	-0.387489	-0.534869	1.539313
0.480	1.382859	-1.426370	496.338756	7.679035	2.621124	-0.352243	-0.528092	1.547136
0.490	1.621190	-1.492050	495.398753	7.701282	2.584955	-0.313237	-0.521793	1.554562
0.500	1.880587	-1.552132	494.546803	7.726415	2.556048	-0.274251	-0.516847	1.562322
0.510	2.137744	-1.599111	493.795361	7.758847	2.533315	-0.239208	-0.513029	1.571268
0.520	2.379039	-1.629700	493.113061	7.801454	2.511772	-0.211322	-0.509370	1.582082
0.530	2.598175	-1.643067	492.463126	7.855398	2.486440	-0.192311	-0.504899	1.595124
0.540	2.791856	-1.638449	491.840863	7.920769	2.456208	-0.181860	-0.499391	1.610433
0.550	2.956041	-1.613478	491.294958	7.997489	2.425681	-0.177566	-0.493732	1.627839
0.560	3.084508	-1.564063	490.923560	8.085819	2.404226	-0.175503	-0.489735	1.647063
0.570	3.170025	-1.485808	490.845850	8.186108	2.402911	-0.171314	-0.489545	1.667755
0.580	3.207096	-1.376130	491.159614	8.297961	2.430882	-0.161487	-0.494927	1.689463
0.590	3.194433	-1.235940	491.901196	8.419347	2.492662	-0.144368	-0.506740	1.711593
0.600	3.135548	-1.070172	493.023326	8.546262	2.587226	-0.120497	-0.524767	1.733440
0.610	3.037181	-0.887171	494.399130	8.673242	2.708813	-0.092199	-0.547900	1.754300
0.620	2.907019	-0.697602	495.850422	8.794518	2.848772	-0.062639	-0.574523	1.773623
0.630	2.752626	-0.513449	497.189318	8.905311	2.997521	-0.034827	-0.602893	1.791131
0.640	2.582290	-0.346932	498.257909	9.002632	3.145958	-0.010989	-0.631391	1.806822
0.650	2.406577	-0.208719	498.953164	9.085256	3.286179	0.007544	-0.658615	1.820864
0.660	2.238495	-0.105310	499.232388	9.152974	3.411736	0.020026	-0.683396	1.833410
0.670	2.091007	-0.036465	499.103837	9.205609	3.517846	0.025841	-0.704833	1.844428
0.680	1.972569	0.005859	498.612245	9.242470	3.601907	0.024158	-0.722386	1.853639
0.690	1.883041	0.035979	497.827710	9.262577	3.664292	0.013905	-0.736056	1.860599
0.700	1.812646	0.070275	496.839678	9.265423	3.708933	-0.005866	-0.746505	1.864872
0.710	1.745205	0.121450	495.750655	9.251680	3.742939	-0.035348	-0.755004	1.866196
0.720	1.664583	0.193304	494.663295	9.223437	3.774922	-0.073433	-0.763130	1.864589
0.730	1.561585	0.278111	493.662170	9.184056	3.812529	-0.117639	-0.772295	1.860393
0.740	1.438409	0.357886	492.800678	9.138036	3.860328	-0.164654	-0.783345	1.854307
0.750	1.308900	0.409405	492.103890	9.091000	3.919060	-0.211224	-0.796389	1.847374
0.760	1.194477	0.411531	491.587246	9.049450	3.986544	-0.254909	-0.810954	1.840863
0.770	1.116938	0.352528	491.277790	9.019838	4.059623	-0.294380	-0.826340	1.835996
0.780	1.090369	0.234995	491.220802	9.007002	4.136096	-0.329331	-0.842004	1.833595
0.790	1.115020	0.076482	491.463381	9.012630	4.215618	-0.360245	-0.857769	1.833835
0.800	1.175768	-0.094921	492.021483	9.034655	4.299163	-0.388181	-0.873775	1.836232
0.810	1.246199	-0.248925	492.848137	9.068054	4.387488	-0.414484	-0.890231	1.839929
0.820	1.296716	-0.362338	493.821993	9.106766	4.479592	-0.440372	-0.907127	1.844139
0.830	1.303111	-0.425648	494.766656	9.145843	4.572201	-0.466409	-0.924113	1.848516
0.840	1.252101	-0.444355	495.496758	9.182924	4.660782	-0.492095	-0.940628	1.853276
0.850	1.142175	-0.434948	495.873690	9.218614	4.741705	-0.515805	-0.956232	1.859065
0.860	0.980465	-0.417582	495.848692	9.255869	4.814525	-0.535181	-0.970966	1.866672
0.870	0.777877	-0.408463	495.476232	9.298661	4.883159	-0.547861	-0.985548	1.876712
0.880	0.544878	-0.414676	494.893214	9.350199	4.955254	-0.552227	-1.001277	1.889337
0.890	0.289586	-0.433061	494.273075	9.411137	5.039851	-0.547877	-1.019649	1.904036
0.900	0.018704	-0.453195	493.772484	9.478415	5.144184	-0.535668	-1.041813	1.919592
0.910	-0.259151	-0.463000	493.489393	9.545476	5.270724	-0.517419	-1.068052	1.934282
0.920	-0.529050	-0.454707	493.444918	9.604166	5.415384	-0.495494	-1.097465	1.946350
0.930	-0.766266	-0.428962	493.591342	9.647765	5.567401	-0.472409	-1.127937	1.954606
0.940	-0.935968	-0.395690	493.839643	9.673821	5.710999	-0.450518	-1.156448	1.958899
0.950	-0.997870	-0.371404	494.095426	9.685387	5.828564	-0.431753	-1.179643	1.960226
0.960	-0.916009	-0.373718	494.291251	9.690032	5.904729	-0.417398	-1.194585	1.960389
0.970	-0.671214	-0.414661	494.405255	9.697078	5.930311	-0.407917	-1.199484	1.961362
0.980	-0.271370	-0.495061	494.460927	9.714301	5.904760	-0.402920	-1.194181	1.964625
0.990	0.245765	-0.602386	494.509919	9.745516	5.836109	-0.401344	-1.180180	1.970742
1.000	0.819589	-0.713461	494.606026	9.789987	5.738377	-0.401843	-1.160191	1.979350
1.010	1.381276	-0.801459	494.780720	9.843658	5.627525	-0.403239	-1.137378	1.989499
1.020	1.870206	-0.844480	495.028135	9.901295	5.517579	-0.404801	-1.114599	2.000148
1.030	2.246115	-0.832244	495.302616	9.958331	5.418193	-0.406202	-1.093916	2.010555
1.040	2.493592	-0.768337	495.528543	10.011699	5.334065	-0.407200	-1.076440	2.020408
1.050	2.619096	-0.667519	495.620490	10.059616	5.265864	-0.407232	-1.062479	2.029701
1.060	2.643073	-0.549843	495.509773	10.100826	5.211936	-0.405216	-1.051833	2.038472
1.070	2.590491	-0.434522	495.170422	10.133935	5.169996	-0.399748	-1.044084	2.046555
1.080	2.482824	-0.335814	494.635881	10.157303	5.138269	-0.389648	-1.038798	2.053491
1.090	2.333764	-0.261353	493.998944	10.169551	5.115936	-0.374564	-1.035617	2.058618
1.100	2.149558	-0.212153	493.391983	10.170354	5.103114	-0.355285	-1.034292	2.061313
1.110	1.933030	-0.183645	492.951329	10.160972	5.100560	-0.333598	-1.034698	2.061253
1.120	1.688902	-0.167775	492.776311	10.144185	5.109033	-0.311794	-1.036785	2.058578
1.130	1.427767	-0.156182	492.896839	10.123624	5.128243	-0.292019	-1.040429	2.053903
1.140	1.167260	-0.143582	493.261686	10.102830	5.155622	-0.275734	-1.045210	2.048168
1.150	0.930438	-0.129722	493.753440	10.084371	5.185590	-0.263458	-1.050239	2.042390
1.160	0.742217	-0.118661	494.227056	10.069320	5.210050	-0.254897	-1.054182	2.037387
1.170	0.624538	-0.115705	494.559481	10.057282	5.220323	-0.249406	-1.055550	2.033584
1.180	0.590931	-0.123822	494.691472	10.046922	5.209908	-0.246546	-1.053163	2.030947
1.190	0.641799	-0.141558	494.644020	10.036693	5.176855	-0.246422	-1.046582	2.029074
1.200	0.762580	-0.163402	494.502039	10.025365	5.124576	-0.249548	-1.036310	2.027366
1.210	0.926408	-0.182210	494.372877	10.012167	5.060642	-0.256280	-1.023649	2.025226
1.220	1.101080	-0.192457	494.339121	9.996731	4.993998	-0.266135	-1.010237	2.022241
1.230	1.257996	-0.192760	494.427447	9.979106	4.931771	-0.277458	-0.997471	2.018316
1.240	1.379691	-0.186419	494.606596	9.959906	4.877009	-0.287703	-0.986038	2.013703
1.250	1.463085	-0.179578	494.812258	9.940323	4.828260	-0.294254	-0.975776	2.008908
1.260	1.517439	-0.177892	494.983397	9.921780	4.781076	-0.295385	-0.965906	2.004467
1.270	1.558253	-0.183497	495.090794	9.905271	4.730612	-0.290890	-0.955504	2.000698
1.280	1.599820	-0.193935	495.145528	9.890788	4.674083	-0.282046	-0.943982	1.997552
1.290	1.649409	-0.203593	495.186898	9.877303	4.612014	-0.271002	-0.931368	1.994662
1.300	1.705171	-0.206784	495.258723	9.863525	4.547909	-0.259960	-0.918289	1.991590
1.310	1.758320	-0.200678	495.386006	9.849150	4.486610	-0.250565	-0.905680	1.988177
1.320	1.798374	-0.186541	495.561540	9.835817	4.432174	-0.243707	-0.894374	1.984782
1.330	1.818951	-0.168921	495.746694	9.827045	4.386135	-0.239637	-0.884753	1.982271
1.340	1.821438	-0.153737	495.885017	9.827059	4.346813	-0.238193	-0.876577	1.981721
1.350	1.814946	-0.146568	495.923066	9.839109	4.309887	-0.238927	-0.869064	1.983999
1.360	1.812726	-0.151728	495.830932	9.864154	4.269963	-0.241073	-0.861173	1.989419
1.370	1.826744	-0.171720	495.615255	9.900471	4.222539	-0.243415	-0.851979	1.997612
1.380	1.862675	-0.206417	495.320081	9.944209	4.165672	-0.244297	-0.841006	2.007633
1.390	1.917148	-0.251940	495.015213	9.990413	4.100760	-0.241995	-0.828411	2.018203
1.400	1.978126	-0.299998	494.776622	10.034005	4.032178	-0.235403	-0.814949	2.027987
1.410	2.028335	-0.338657	494.666041	10.070473	3.965910	-0.224700	-0.801735	2.035813
1.420	2.050705	-0.354928	494.715233	10.096358	3.907677	-0.211556	-0.789884	2.040842
1.430	2.033953	-0.338562	494.916836	10.109713	3.861193	-0.198717	-0.780170	2.042710
1.440	1.976281	-0.285671	495.222146	10.110448	3.827086	-0.189103	-0.772802	2.041598
1.450	1.886016	-0.200839	495.547456	10.100299	3.802757	-0.184823	-0.767385	2.038210
1.460	1.779387	-0.096874	495.791263	10.082314	3.783109	-0.186515	-0.763045	2.033580
1.470	1.676422	0.007830	495.861645	10.060029	3.761794	-0.193273	-0.758638	2.028798
1.480	1.596050	0.093605	495.706618	10.036721	3.732578	-0.203134	-0.752981	2.024730
1.490	1.551511	0.144173	495.335117	10.015019	3.690577	-0.213907	-0.745067	2.021867
1.500	1.547220	0.150400	494.817839	9.996865	3.633313	-0.223996	-0.734273	2.020312
1.510	1.577920	0.112389	494.266097	9.983533	3.561449	-0.232877	-0.720553	2.019870
1.520	1.630202	0.039642	493.796918	9.975451	3.478962	-0.241070	-0.704533	2.020153
1.530	1.685659	-0.050847	493.497965	9.971823	3.392497	-0.249680	-0.687439	2.020641
1.540	1.724818	-0.138406	493.405213	9.970296	3.309888	-0.259795	-0.670825	2.020712
1.550	1.731273	-0.203686	493.500707	9.966979	3.238181	-0.271978	-0.656165	2.019648
1.560	1.695611	-0.233555	493.728988	9.957049	3.181763	-0.286005	-0.644435	2.016703
1.570	1.618324	-0.224558	494.022731	9.935951	3.141197	-0.300900	-0.635841	2.011234
1.580	1.510473	-0.183953	494.325370	9.900813	3.113167	-0.315220	-0.629781	2.002894
1.590	1.391165	-0.127899	494.602340	9.851412	3.091577	-0.327440	-0.625063	1.991784
1.600	1.282082	-0.077003	494.839764	9.790164	3.069477	-0.336299	-0.620297	1.978451
1.610	1.200802	-0.050330	495.035180	9.721057	3.041149	-0.341029	-0.614330	1.963710
1.620	1.155310	-0.059737	495.186755	9.648010	3.003609	-0.341458	-0.606561	1.948358
1.630	1.141842	-0.106492	495.285991	9.573417	2.956980	-0.338021	-0.597025	1.932907
1.640	1.146980	-0.181389	495.316290	9.497547	2.903648	-0.331689	-0.586221	1.917471
1.650	1.153255	-0.268241	495.257011	9.419107	2.846684	-0.323841	-0.574789	1.901862
1.660	1.145959	-0.349330	495.090554	9.336720	2.788298	-0.316050	-0.563190	1.885861
1.670	1.118207	-0.410771	494.809572	9.250629	2.728996	-0.309840	-0.551524	1.869533
1.680	1.072210	-0.446042	494.422955	9.163785	2.667703	-0.306497	-0.539559	1.853430
1.690	1.016790	-0.456817	493.960728	9.081757	2.602640	-0.306977	-0.526892	1.838558
1.700	0.962982	-0.451293	493.477108	9.011423	2.532405	-0.311817	-0.513176	1.826108
1.710	0.920054	-0.440953	493.048198	8.958892	2.456611	-0.320980	-0.498250	1.817042
1.720	0.893556	-0.437063	492.759937	8.927387	2.375674	-0.333650	-0.482116	1.811711
1.730	0.885715	-0.447956	492.686050	8.915881	2.289825	-0.348159	-0.464764	1.809648
1.740	0.897278	-0.477592	492.862695	8.919045	2.198014	-0.362216	-0.445969	1.809641
1.750	0.929129	-0.525317	493.270956	8.928560	2.097468	-0.373467	-0.425216	1.810072
1.760	0.982291	-0.586594	493.836366	8.935338	1.984248	-0.380232	-0.401803	1.809372
1.770	1.056250	-0.654529	494.447313	8.931822	1.854469	-0.382094	-0.375059	1.806425
1.780	1.147099	-0.721874	494.985470	8.913599	1.705608	-0.380075	-0.344577	1.800780
1.790	1.247308	-0.782931	495.356371	8.879799	1.537387	-0.376365	-0.310360	1.792608
1.800	1.347876	-0.834650	495.509102	8.832246	1.352028	-0.373773	-0.272856	1.782459
1.810	1.442069	-0.876605	495.440221	8.773798	1.153894	-0.375106	-0.232903	1.770909
1.820	1.528915	-0.910185	495.184769	8.706658	0.948638	-0.382535	-0.191572	1.758265
1.830	1.614482	-0.937775	494.802160	8.631410	0.742052	-0.396994	-0.149969	1.744416
1.840	1.709955	-0.962612	494.363708	8.547122	0.538881	-0.417739	-0.109005	1.728914
1.850	1.827061	-0.989294	493.943455	8.452386	0.341932	-0.442323	-0.069225	1.711205
1.860	1.972671	-1.024176	493.610051	8.346637	0.151793	-0.467143	-0.030752	1.690937
1.870	2.144627	-1.074852	493.417615	8.231032	-0.032656	-0.488462	0.006618	1.668167
1.880	2.330227	-1.148502	493.396172	8.108475	-0.213040	-0.503549	0.043178	1.643400
1.890	2.507911	-1.249669	493.544518	7.982849	-0.390048	-0.511489	0.079030	1.617453
1.900	2.652030	-1.378409	493.828808	7.857921	-0.562478	-0.513367	0.113902	1.591224
1.910	2.739901	-1.529649	494.189280	7.736605	-0.727336	-0.511783	0.147178	1.565514
1.920	2.759323	-1.694136	494.555182	7.621083	-0.881024	-0.509974	0.178145	1.540997
1.930	2.713743	-1.860649	494.864359	7.513690	-1.021099	-0.510936	0.206339	1.518333
1.940	2.622407	-2.018497	495.080771	7.417860	-1.147697	-0.516823	0.231820	1.498313
1.950	2.514765	-2.159337	495.202895	7.338380	-1.263875	-0.528670	0.255224	1.481894
1.960	2.421164	-2.277883	495.259149	7.280680	-1.374660	-0.546310	0.277564	1.470075
1.970	2.363754	-2.371644	495.292088	7.249521	-1.485300	-0.568397	0.299884	1.463686
1.980	2.351419	-2.439972	495.338423	7.247746	-1.599573	-0.592577	0.322925	1.463191
1.990	2.380498	-2.482622	495.413837	7.275687	-1.718844	-0.615885	0.346951	1.468608
2.000	2.440310	-2.498124	495.509238	7.331432	-1.842167	-0.635375	0.371773	1.479575
2.010	2.520337	-2.482622	495.599559	7.411799	-1.967395	-0.648848	0.396973	1.495522
2.020	2.615591	-2.429922	495.659826	7.513551	-2.092827	-0.655433	0.422230	1.515869
2.030	2.728079	-2.333032	495.679059	7.634271	-2.218572	-0.655764	0.447582	1.540164
2.040	2.864190	-2.186714	495.664333	7.772447	-2.346782	-0.651618	0.473462	1.568087
2.050	3.029393	-1.990114	495.634244	7.926749	-2.480402	-0.645152	0.500450	1.599314
2.060	3.222382	-1.748624	495.607523	8.095019	-2.620940	-0.638120	0.528834	1.633353
2.070	3.431085	-1.474324	495.593629	8.273710	-2.766410	-0.631456	0.558201	1.669454
2.080	3.632520	-1.184598	495.588694	8.458100	-2.910629	-0.625374	0.587307	1.706677
2.090	3.797289	-0.898864	495.576529	8.643014	-3.044371	-0.619802	0.614309	1.744032
2.100	3.897521	-0.634182	495.533118	8.823525	-3.157848	-0.614818	0.637263	1.780613
2.110	3.915337	-0.401321	495.433455	8.995384	-3.243375	-0.610794	0.654654	1.815659
2.120	3.848332	-0.202895	495.259601	9.155202	-3.297203	-0.608156	0.665753	1.848566
2.130	3.709804	-0.034271	495.007910	9.300469	-3.320067	-0.606861	0.670710	1.878853
2.140	3.523788	0.113362	494.692753	9.429367	-3.316528	-0.605863	0.670422	1.906106
2.150	3.317020	0.249093	494.345645	9.540369	-3.293430	-0.602868	0.666220	1.929898
2.160	3.110830	0.378827	494.010964	9.631864	-3.257870	-0.594612	0.659473	1.949727
2.170	2.915718	0.502968	493.739865	9.702120	-3.215182	-0.577602	0.651189	1.965027
2.180	2.730358	0.615494	493.581967	9.749717	-3.167593	-0.549094	0.641756	1.975298
2.190	2.545088	0.704731	493.573222	9.774175	-3.114146	-0.508008	0.630939	1.980289
2.200	2.348105	0.756191	493.720825	9.776386	-3.052088	-0.455481	0.618181	1.980145
2.210	2.131475	0.757222	493.990612	9.758459	-2.979234	-0.394856	0.603095	1.975434
2.220	1.894659	0.702017	494.305065	9.722888	-2.896282	-0.331023	0.585930	1.966981
2.230	1.644882	0.594520	494.557947	9.671360	-2.807951	-0.269219	0.567770	1.955556
2.240	1.395191	0.447263	494.644803	9.603817	-2.722394	-0.213696	0.550374	1.941558
2.250	1.161627	0.276223	494.499842	9.518379	-2.649176	-0.166759	0.535728	1.924850
2.260	0.960685	0.094211	494.124331	9.412310	-2.596713	-0.128578	0.525518	1.904847
2.270	0.807467	-0.093577	493.594197	9.283796	-2.570255	-0.097724	0.520722	1.880856
2.280	0.714187	-0.289263	493.043902	9.133912	-2.571149	-0.072071	0.521485	1.852556
2.290	0.688724	-0.497463	492.633081	8.967896	-2.597554	-0.049589	0.527280	1.820401
2.300	0.733510	-0.718927	492.506528	8.794929	-2.646223	-0.028870	0.537297	1.785749
2.310	0.845281	-0.946657	492.757593	8.626273	-2.714668	-0.009448	0.550913	1.750612
2.320	1.015871	-1.166953	493.403053	8.472434	-2.802928	0.007976	0.568081	1.717143
2.330	1.233825	-1.364569	494.375324	8.340458	-2.914278	0.021465	0.589487	1.687070
2.340	1.486447	-1.528706	495.534483	8.232337	-3.054596	0.028113	0.616424	1.661305
2.350	1.761823	-1.656436	496.697953	8.145058	-3.230594	0.024718	0.650414	1.639841
2.360	2.050311	-1.752125	497.681246	8.072276	-3.447545	0.008672	0.692722	1.621977
2.370	2.345241	-1.823661	498.340397	8.006998	-3.707217	-0.021294	0.743913	1.606733
2.380	2.643001	-1.877699	498.606015	7.944216	-4.006734	-0.064871	0.803587	1.593285
2.390	2.942795	-1.916401	498.500107	7.882400	-4.338807	-0.120506	0.870372	1.581223
2.400	3.246105	-1.937384	498.129988	7.823358	-4.693349	-0.186102	0.942194	1.570546
