Time[s]	Fx[N]	Fy[N]	Fz[N]	Mx[Nm]	My[Nm]	Mz[Nm]	COPx[cm]	COPy[cm]
0.010	1.324861	-3.407534	715.003890	-0.782658	-0.068860	0.560316	0.009631	-0.109462
0.020	1.443885	-3.449635	714.995681	-0.797864	-0.131466	0.551650	0.018387	-0.111590
0.030	1.562805	-3.483504	714.939624	-0.806943	-0.201719	0.542577	0.028215	-0.112869
0.040	1.681310	-3.504947	714.810404	-0.805424	-0.284667	0.533274	0.039824	-0.112677
0.050	1.798325	-3.514967	714.619648	-0.791343	-0.381761	0.524711	0.053422	-0.110736
0.060	1.912963	-3.519189	714.417922	-0.764856	-0.490708	0.518266	0.068686	-0.107060
0.070	2.025850	-3.525242	714.281256	-0.727300	-0.606669	0.515092	0.084934	-0.101823
0.080	2.139789	-3.539511	714.286187	-0.680557	-0.724340	0.515581	0.101407	-0.095278
0.090	2.259154	-3.564789	714.482532	-0.627058	-0.840057	0.519125	0.117576	-0.087764
0.100	2.388102	-3.599530	714.873902	-0.570090	-0.953080	0.524262	0.133321	-0.079747
0.110	2.528351	-3.638507	715.412868	-0.513765	-1.065558	0.529189	0.148943	-0.071814
0.120	2.677551	-3.674325	716.012481	-0.462350	-1.181348	0.532483	0.164990	-0.064573
0.130	2.829232	-3.699348	716.570243	-0.419168	-1.304268	0.533711	0.182015	-0.058496
0.140	2.974717	-3.707892	716.996251	-0.385498	-1.436540	0.533615	0.200355	-0.053766
0.150	3.106430	-3.698478	717.235908	-0.359886	-1.578021	0.533721	0.220014	-0.050177
0.160	3.221181	-3.675345	717.280096	-0.338157	-1.726454	0.535531	0.240695	-0.047144
0.170	3.321949	-3.648099	717.160964	-0.314284	-1.878573	0.539720	0.261946	-0.043823
0.180	3.417307	-3.628846	716.936809	-0.281988	-2.031594	0.545714	0.283371	-0.039332
0.190	3.518642	-3.627445	716.672697	-0.236711	-2.184442	0.551840	0.304803	-0.033029
0.200	3.636195	-3.646803	716.423416	-0.177416	-2.338111	0.555943	0.326359	-0.024764
0.210	3.775430	-3.680484	716.222740	-0.107529	-2.494922	0.556185	0.348344	-0.015013
0.220	3.935021	-3.713928	716.079612	-0.034472	-2.657021	0.551633	0.371051	-0.004814
0.230	4.107127	-3.728818	715.980447	0.032311	-2.824841	0.542405	0.394542	0.004513
0.240	4.279775	-3.708861	715.897398	0.084206	-2.996314	0.529353	0.418540	0.011762
0.250	4.440456	-3.645006	715.802131	0.116027	-3.167151	0.513574	0.442462	0.016209
0.260	4.579536	-3.538734	715.681151	0.127305	-3.331975	0.496078	0.465567	0.017788
0.270	4.692188	-3.402794	715.545401	0.121871	-3.485708	0.477755	0.487140	0.017032
0.280	4.778221	-3.259122	715.428212	0.106175	-3.624651	0.459545	0.506641	0.014841
0.290	4.840151	-3.133976	715.371743	0.087207	-3.747028	0.442540	0.523788	0.012190
0.300	4.880829	-3.050979	715.408471	0.070734	-3.853074	0.427821	0.538584	0.009887
0.310	4.902146	-3.023942	715.546174	0.060176	-3.944842	0.416064	0.551305	0.008410
0.320	4.905529	-3.052286	715.762153	0.056102	-4.025756	0.407160	0.562443	0.007838
0.330	4.893516	-3.121452	716.007975	0.056396	-4.099842	0.400144	0.572597	0.007876
0.340	4.870870	-3.208538	716.222492	0.057103	-4.170638	0.393552	0.582310	0.007973
0.350	4.844001	-3.290784	716.348964	0.053771	-4.240049	0.386055	0.591897	0.007506
0.360	4.818683	-3.353169	716.351349	0.042846	-4.307571	0.377081	0.601321	0.005981
0.370	4.797214	-3.392063	716.225056	0.022652	-4.370281	0.367099	0.610183	0.003163
0.380	4.776579	-3.413854	715.998894	-0.006320	-4.423666	0.357447	0.617831	-0.000883
0.390	4.748703	-3.429865	715.727636	-0.041778	-4.463041	0.349836	0.623567	-0.005837
0.400	4.702985	-3.450445	715.477544	-0.080375	-4.485111	0.345777	0.626870	-0.011234
0.410	4.630425	-3.481083	715.308992	-0.118538	-4.489176	0.346180	0.627586	-0.016572
0.420	4.527937	-3.521855	715.260620	-0.153139	-4.477539	0.351207	0.626001	-0.021410
0.430	4.401056	-3.569659	715.338957	-0.181918	-4.454886	0.360356	0.622766	-0.025431
0.440	4.263496	-3.621524	715.516393	-0.203520	-4.426791	0.372698	0.618685	-0.028444
0.450	4.133316	-3.676948	715.738875	-0.217194	-4.397839	0.387149	0.614447	-0.030345
0.460	4.027346	-3.737799	715.942007	-0.222403	-4.370119	0.402651	0.610401	-0.031064
0.470	3.956599	-3.805760	716.070622	-0.218710	-4.342789	0.418219	0.606475	-0.030543
0.480	3.924700	-3.878889	716.094612	-0.205994	-4.312978	0.432922	0.602292	-0.028766
0.490	3.929306	-3.949633	716.015165	-0.184737	-4.277632	0.445941	0.597422	-0.025801
0.500	3.964837	-4.005736	715.859722	-0.156045	-4.235390	0.456771	0.591651	-0.021798
0.510	4.024555	-4.033777	715.668137	-0.121379	-4.187534	0.465440	0.585122	-0.016960
0.520	4.101028	-4.023571	715.475576	-0.082273	-4.137541	0.472510	0.578292	-0.011499
0.530	4.185324	-3.971407	715.299287	-0.040403	-4.089438	0.478706	0.571710	-0.005648
0.540	4.266002	-3.880998	715.135672	0.002038	-4.045676	0.484250	0.565722	0.000285
0.550	4.328893	-3.762346	714.969686	0.042213	-4.005448	0.488315	0.560226	0.005904
0.560	4.358233	-3.629541	714.791877	0.077291	-3.964219	0.489025	0.554598	0.010813
0.570	4.339290	-3.498423	714.613776	0.105682	-3.914812	0.484200	0.547822	0.014789
0.580	4.262023	-3.384182	714.472871	0.128043	-3.849661	0.472581	0.538811	0.017921
0.590	4.124591	-3.298654	714.423425	0.147276	-3.763387	0.454921	0.526773	0.020615
0.600	3.935108	-3.247705	714.516182	0.167405	-3.654750	0.434315	0.511500	0.023429
0.610	3.710656	-3.229969	714.775173	0.191954	-3.527343	0.415516	0.493490	0.026855
0.620	3.473818	-3.237978	715.181522	0.222790	-3.388903	0.403430	0.473852	0.031152
0.630	3.248082	-3.261245	715.671926	0.260025	-3.249523	0.401415	0.454052	0.036333
0.640	3.053609	-3.289573	716.154007	0.302872	-3.119368	0.410040	0.435572	0.042292
0.650	2.904200	-3.314932	716.533345	0.350666	-3.006518	0.426805	0.419592	0.048939
0.660	2.805619	-3.331450	716.741400	0.403197	-2.915418	0.446941	0.406760	0.056254
0.670	2.755180	-3.334248	716.753572	0.460126	-2.846259	0.464993	0.397104	0.064196
0.680	2.742674	-3.318465	716.592067	0.519980	-2.795367	0.476623	0.390092	0.072563
0.690	2.752842	-3.279675	716.314752	0.579581	-2.756464	0.479986	0.384812	0.080911
0.700	2.769194	-3.215962	715.995244	0.634390	-2.722490	0.476177	0.380239	0.088603
0.710	2.778193	-3.130643	715.700850	0.679715	-2.687549	0.468617	0.375513	0.094972
0.720	2.772294	-3.033795	715.475065	0.712142	-2.648524	0.461612	0.370177	0.099534
0.730	2.750856	-2.941037	715.329837	0.730465	-2.605891	0.458721	0.364292	0.102116
0.740	2.718951	-2.869545	715.249339	0.735705	-2.563400	0.461587	0.358392	0.102860
0.750	2.684838	-2.833062	715.202605	0.730357	-2.526626	0.469700	0.353274	0.102119
0.760	2.656974	-2.838140	715.159443	0.717336	-2.500914	0.481049	0.349700	0.100304
0.770	2.641356	-2.882823	715.103658	0.699041	-2.489552	0.493251	0.348139	0.097754
0.780	2.639839	-2.957564	715.039423	0.676795	-2.492874	0.504602	0.348635	0.094651
0.790	2.649945	-3.047819	714.989256	0.650851	-2.508498	0.514578	0.350844	0.091029
0.800	2.666293	-3.137789	714.984518	0.620865	-2.532407	0.523653	0.354191	0.086836
0.810	2.683209	-3.214476	715.051576	0.586451	-2.560391	0.532623	0.358071	0.082015
0.820	2.697393	-3.270836	715.198926	0.547388	-2.589384	0.541910	0.362051	0.076536
0.830	2.709531	-3.306995	715.411486	0.503574	-2.618381	0.551281	0.365996	0.070389
0.840	2.724298	-3.329216	715.655406	0.455156	-2.648656	0.560089	0.370102	0.063600
0.850	2.748926	-3.347222	715.890762	0.403198	-2.683173	0.567748	0.374802	0.056321
0.860	2.790904	-3.370834	716.084992	0.350742	-2.725343	0.574004	0.380589	0.048980
0.870	2.855600	-3.406680	716.220260	0.303662	-2.777616	0.578800	0.387816	0.042398
0.880	2.944701	-3.455371	716.292469	0.270526	-2.840458	0.581899	0.396550	0.037768
0.890	3.056012	-3.509785	716.304738	0.260957	-2.912056	0.582651	0.406539	0.036431
0.900	3.184452	-3.555391	716.260619	0.282664	-2.988752	0.580133	0.417272	0.039464
0.910	3.323508	-3.573259	716.161205	0.338202	-3.065920	0.573552	0.428105	0.047224
0.920	3.466315	-3.545379	716.007213	0.422920	-3.138885	0.562633	0.438387	0.059066
0.930	3.606079	-3.460757	715.803919	0.525285	-3.203618	0.547753	0.447555	0.073384
0.940	3.736243	-3.320029	715.565126	0.629743	-3.257178	0.529875	0.455190	0.088006
0.950	3.850938	-3.136667	715.313160	0.721123	-3.298032	0.510392	0.461061	0.100812
0.960	3.945719	-2.934203	715.074984	0.788898	-3.326326	0.490983	0.465172	0.110324
0.970	4.017970	-2.740684	714.877440	0.829628	-3.343937	0.473465	0.467764	0.116052
0.980	4.066382	-2.582540	714.744605	0.846796	-3.353991	0.459601	0.469257	0.118475
0.990	4.089704	-2.479839	714.697220	0.848386	-3.359705	0.450846	0.470088	0.118706
1.000	4.085849	-2.443772	714.751489	0.843554	-3.362944	0.448057	0.470505	0.118021
1.010	4.052428	-2.476164	714.914936	0.839805	-3.363231	0.451269	0.470438	0.117469
1.020	3.988842	-2.570198	715.180189	0.841535	-3.357903	0.459612	0.469518	0.117667
1.030	3.898817	-2.711625	715.520497	0.849929	-3.343504	0.471421	0.467283	0.118785
1.040	3.791769	-2.880271	715.890755	0.863697	-3.317729	0.484537	0.463441	0.120647
1.050	3.681735	-3.052221	716.234874	0.879995	-3.280880	0.496804	0.458073	0.122864
1.060	3.583742	-3.203100	716.497043	0.895117	-3.236051	0.506625	0.451649	0.124930
1.070	3.508898	-3.312256	716.633678	0.904917	-3.188011	0.513366	0.444859	0.126273
1.080	3.460573	-3.366996	716.623749	0.905218	-3.141411	0.517377	0.438363	0.126317
1.090	3.433625	-3.365671	716.475192	0.892493	-3.099138	0.519564	0.432553	0.124567
1.100	3.417065	-3.318429	716.224495	0.864857	-3.061419	0.520789	0.427438	0.120752
1.110	3.398980	-3.244851	715.928156	0.823077	-3.026040	0.521422	0.422674	0.114966
1.120	3.371783	-3.168641	715.648423	0.771078	-2.989591	0.521273	0.417746	0.107745
1.130	3.335955	-3.110873	715.438508	0.715464	-2.949300	0.519863	0.412237	0.100004
1.140	3.300826	-3.084298	715.332175	0.663958	-2.904617	0.516854	0.406051	0.092818
1.150	3.281788	-3.090821	715.339410	0.623197	-2.857876	0.512350	0.399513	0.087119
1.160	3.294698	-3.122625	715.446554	0.596682	-2.813764	0.506887	0.393288	0.083400
1.170	3.349533	-3.165999	715.618857	0.583587	-2.777823	0.501164	0.388171	0.081550
1.180	3.445900	-3.206409	715.805664	0.578849	-2.754516	0.495764	0.384813	0.080867
1.190	3.572094	-3.233362	715.950042	0.574604	-2.745461	0.491036	0.383471	0.080257
1.200	3.707762	-3.243520	716.002821	0.562625	-2.748340	0.487158	0.383845	0.078579
1.210	3.828710	-3.240933	715.937372	0.536944	-2.756730	0.484264	0.385052	0.074999
1.220	3.911912	-3.234457	715.759800	0.495686	-2.760854	0.482551	0.385724	0.069253
1.230	3.939380	-3.233818	715.510731	0.441505	-2.749155	0.482324	0.384223	0.061705
1.240	3.900620	-3.246181	715.257633	0.380563	-2.710551	0.483980	0.378961	0.053206
1.250	3.794036	-3.274403	715.079182	0.320507	-2.637057	0.487952	0.368778	0.044821
1.260	3.627361	-3.317135	715.045214	0.268167	-2.526121	0.494599	0.353281	0.037503
1.270	3.416687	-3.370210	715.197099	0.227676	-2.381832	0.504015	0.333032	0.031834
1.280	3.183667	-3.428522	715.533535	0.199525	-2.214360	0.515817	0.309470	0.027885
1.290	2.951158	-3.487675	716.006306	0.180773	-2.037548	0.529062	0.284571	0.025247
1.300	2.738374	-3.544961	716.529054	0.166333	-1.865272	0.542393	0.260320	0.023214
1.310	2.557067	-3.599353	716.998127	0.150850	-1.707768	0.554403	0.238183	0.021039
1.320	2.410019	-3.650510	717.318896	0.130373	-1.569174	0.564086	0.218755	0.018175
1.330	2.292404	-3.697316	717.427702	0.103069	-1.447102	0.571187	0.201707	0.014366
1.340	2.195488	-3.736925	717.302103	0.068832	-1.334262	0.576271	0.186011	0.009596
1.350	2.111271	-3.765193	716.958564	0.028268	-1.221523	0.580431	0.170376	0.003943
1.360	2.036209	-3.778595	716.442002	-0.018267	-1.101409	0.584708	0.153733	-0.002550
1.370	1.972599	-3.776715	715.812518	-0.071088	-0.970951	0.589491	0.135643	-0.009931
1.380	1.927186	-3.763796	715.133054	-0.130985	-0.832934	0.594184	0.116473	-0.018316
1.390	1.907664	-3.748021	714.460326	-0.198532	-0.695068	0.597327	0.097286	-0.027788
1.400	1.918449	-3.738430	713.840604	-0.273261	-0.567319	0.597121	0.079474	-0.038280
1.410	1.957279	-3.740906	713.310599	-0.353096	-0.458338	0.592126	0.064255	-0.049501
1.420	2.013753	-3.755461	712.901990	-0.434395	-0.372272	0.581806	0.052219	-0.060933
1.430	2.070393	-3.776306	712.646497	-0.512639	-0.307148	0.566740	0.043100	-0.071934
1.440	2.106339	-3.794559	712.577247	-0.583521	-0.255494	0.548438	0.035855	-0.081889
1.450	2.103259	-3.802178	712.722713	-0.644023	-0.206983	0.528900	0.029041	-0.090361
1.460	2.051920	-3.795488	713.093293	-0.693075	-0.152116	0.510113	0.021332	-0.097193
1.470	1.956716	-3.777151	713.666658	-0.731545	-0.085587	0.493707	0.011993	-0.102505
1.480	1.835436	-3.755933	714.381290	-0.761549	-0.008091	0.480835	0.001133	-0.106603
1.490	1.713539	-3.744277	715.144428	-0.785379	0.074063	0.472206	-0.010356	-0.109821
1.500	1.615118	-3.754340	715.852678	-0.804545	0.151327	0.468115	-0.021139	-0.112390
1.510	1.554536	-3.793709	716.417007	-0.819342	0.214313	0.468371	-0.029915	-0.114367
1.520	1.532386	-3.862272	716.782577	-0.829073	0.256875	0.472168	-0.035837	-0.115666
1.530	1.537101	-3.951493	716.937281	-0.832740	0.277803	0.478021	-0.038749	-0.116152
1.540	1.550946	-4.046664	716.907914	-0.829898	0.280677	0.483942	-0.039151	-0.115761
1.550	1.557441	-4.131516	716.747036	-0.821306	0.272154	0.487888	-0.037971	-0.114588
1.560	1.547225	-4.193392	716.515609	-0.809077	0.259508	0.488377	-0.036218	-0.112918
1.570	1.520480	-4.226887	716.266834	-0.796138	0.248402	0.484989	-0.034680	-0.111151
1.580	1.485628	-4.234488	716.035866	-0.785149	0.241580	0.478460	-0.033738	-0.109652
1.590	1.455426	-4.224208	715.837864	-0.777403	0.238637	0.470325	-0.033337	-0.108600
1.600	1.442514	-4.205633	715.673329	-0.772359	0.236579	0.462311	-0.033057	-0.107921
1.610	1.456384	-4.186328	715.536628	-0.768071	0.230760	0.455816	-0.032250	-0.107342
1.620	1.502558	-4.169987	715.423543	-0.762201	0.215878	0.451645	-0.030175	-0.106538
1.630	1.583257	-4.156574	715.335701	-0.752977	0.186799	0.450024	-0.026113	-0.105262
1.640	1.698215	-4.143702	715.281290	-0.739625	0.139071	0.450724	-0.019443	-0.103403
1.650	1.844825	-4.128292	715.271757	-0.722207	0.069128	0.453175	-0.009665	-0.100970
1.660	2.017858	-4.107817	715.314936	-0.701122	-0.025605	0.456523	0.003580	-0.098016
1.670	2.209475	-4.081026	715.407263	-0.676656	-0.146491	0.459730	0.020477	-0.094583
1.680	2.409960	-4.048347	715.529893	-0.648884	-0.293239	0.461834	0.040982	-0.090686
1.690	2.609082	-4.012211	715.652659	-0.617964	-0.463460	0.462329	0.064761	-0.086350
1.700	2.797732	-3.977160	715.745158	-0.584581	-0.652551	0.461473	0.091171	-0.081674
1.710	2.969445	-3.949358	715.789270	-0.550129	-0.854111	0.460247	0.119324	-0.076856
1.720	3.121341	-3.935195	715.786540	-0.516422	-1.060801	0.459867	0.148201	-0.072147
1.730	3.254031	-3.939097	715.757555	-0.485042	-1.265350	0.461069	0.176785	-0.067766
1.740	3.370508	-3.961348	715.734853	-0.456620	-1.461342	0.463565	0.204174	-0.063797
1.750	3.474659	-3.997149	715.752550	-0.430411	-1.643657	0.466064	0.229640	-0.060134
1.760	3.570191	-4.037756	715.835113	-0.404423	-1.808646	0.466860	0.252662	-0.056497
1.770	3.660281	-4.073319	715.987000	-0.376177	-1.954192	0.464637	0.272937	-0.052540
1.780	3.747572	-4.095922	716.186057	-0.343878	-2.079696	0.459056	0.290385	-0.048015
1.790	3.833883	-4.101346	716.384849	-0.307416	-2.185818	0.450870	0.305118	-0.042912
1.800	3.919261	-4.089157	716.522622	-0.268634	-2.273902	0.441630	0.317352	-0.037491
1.810	4.000750	-4.061782	716.545683	-0.230613	-2.345192	0.433211	0.327291	-0.032184
1.820	4.071893	-4.023398	716.428371	-0.196254	-2.400094	0.427345	0.335008	-0.027393
1.830	4.123861	-3.978991	716.184292	-0.166767	-2.437876	0.425291	0.340398	-0.023285
1.840	4.148132	-3.933504	715.861182	-0.140729	-2.457079	0.427654	0.343234	-0.019659
1.850	4.139537	-3.890974	715.521620	-0.114147	-2.456667	0.434334	0.343339	-0.015953
1.860	4.098230	-3.853825	715.220391	-0.081595	-2.437376	0.444583	0.340787	-0.011408
1.870	4.029699	-3.822449	714.990663	-0.038033	-2.402473	0.457156	0.336015	-0.005319
1.880	3.942975	-3.795020	714.844488	0.019407	-2.357398	0.470573	0.329778	0.002715
1.890	3.847980	-3.767487	714.783817	0.090361	-2.308396	0.483439	0.322950	0.012642
1.900	3.753211	-3.733980	714.812588	0.171263	-2.260726	0.494683	0.316268	0.023959
1.910	3.664527	-3.687980	714.941080	0.256288	-2.217194	0.503599	0.310123	0.035847
1.920	3.585127	-3.624334	715.179710	0.338698	-2.177505	0.509701	0.304470	0.047358
1.930	3.516216	-3.541537	715.526839	0.412062	-2.138565	0.512566	0.298880	0.057589
1.940	3.457908	-3.443269	715.959146	0.471189	-2.095471	0.511838	0.292680	0.065812
1.950	3.410223	-3.338290	716.431091	0.512894	-2.042828	0.507462	0.285139	0.071590
1.960	3.374047	-3.238529	716.883761	0.536707	-1.976147	0.500013	0.275658	0.074867
1.970	3.351713	-3.156174	717.257779	0.545274	-1.893269	0.490880	0.263959	0.076022
1.980	3.346703	-3.101069	717.503925	0.543942	-1.795465	0.482152	0.250238	0.075810
1.990	3.362245	-3.079249	717.588827	0.539344	-1.687648	0.476141	0.235183	0.075161
2.000	3.399211	-3.092426	717.497435	0.537436	-1.577255	0.474720	0.219827	0.074904
2.010	3.454253	-3.137704	717.234730	0.541844	-1.472116	0.478692	0.205249	0.075546
2.020	3.519209	-3.207402	716.826463	0.553220	-1.378212	0.487467	0.192266	0.077176
2.030	3.582175	-3.289719	716.316800	0.569735	-1.298253	0.499147	0.181240	0.079537
2.040	3.629844	-3.370853	715.761791	0.588260	-1.231419	0.511027	0.172043	0.082187
2.050	3.650292	-3.438240	715.220152	0.605609	-1.173981	0.520376	0.164143	0.084674
2.060	3.635413	-3.483651	714.744480	0.619507	-1.120364	0.525265	0.156750	0.086675
2.070	3.582449	-3.504866	714.375563	0.629196	-1.064380	0.525144	0.148994	0.088076
2.080	3.494355	-3.505446	714.140805	0.635645	-1.000574	0.520968	0.140109	0.089008
2.090	3.378884	-3.492971	714.055828	0.641291	-0.925535	0.514854	0.129617	0.089810
2.100	3.246484	-3.476510	714.126816	0.649361	-0.838810	0.509394	0.117460	0.090931
2.110	3.107331	-3.463903	714.350909	0.663063	-0.742949	0.506821	0.104003	0.092820
2.120	2.968321	-3.459340	714.713451	0.684918	-0.642499	0.508285	0.089896	0.095831
2.130	2.831029	-3.461779	715.183631	0.716340	-0.542311	0.513483	0.075828	0.100162
2.140	2.691634	-3.464885	715.712426	0.757380	-0.445879	0.520841	0.062299	0.105822
2.150	2.543188	-3.459041	716.236689	0.806589	-0.354438	0.528142	0.049486	0.112615
2.160	2.379743	-3.435159	716.690096	0.861049	-0.267173	0.533338	0.037279	0.120142
2.170	2.200920	-3.388806	717.017410	0.916724	-0.182421	0.535197	0.025442	0.127852
2.180	2.015210	-3.322527	717.185903	0.969165	-0.099384	0.533593	0.013858	0.135134
2.190	1.840500	-3.245079	717.188809	1.014399	-0.019603	0.529413	0.002733	0.141441
2.200	1.701122	-3.168141	717.039853	1.049663	0.052539	0.524215	-0.007327	0.146388
2.210	1.621917	-3.102396	716.762711	1.073784	0.110649	0.519746	-0.015437	0.149810
2.220	1.621165	-3.054896	716.381549	1.087268	0.148263	0.517485	-0.020696	0.151772
2.230	1.704741	-3.028597	715.917286	1.092179	0.161146	0.518303	-0.022509	0.152557
2.240	1.863398	-3.023619	715.390608	1.091811	0.149073	0.522276	-0.020838	0.152617
2.250	2.074028	-3.038832	714.829319	1.090093	0.116451	0.528697	-0.016291	0.152497
2.260	2.304566	-3.072278	714.275631	1.090784	0.071535	0.536246	-0.010015	0.152712
2.270	2.520913	-3.120220	713.788666	1.096585	0.024548	0.543325	-0.003439	0.153629
2.280	2.693575	-3.176098	713.438909	1.108389	-0.014615	0.548492	0.002049	0.155359
2.290	2.802222	-3.231030	713.294108	1.124980	-0.038350	0.550844	0.005376	0.157716
2.300	2.837600	-3.276177	713.399651	1.143371	-0.042515	0.550200	0.005959	0.160271
2.310	2.801173	-3.305711	713.759809	1.159679	-0.026756	0.547070	0.003749	0.162475
2.320	2.703139	-3.318515	714.327971	1.170173	0.005885	0.542499	-0.000824	0.163815
2.330	2.559450	-3.317669	715.012097	1.172105	0.049894	0.537850	-0.006978	0.163928
2.340	2.388446	-3.308357	715.695922	1.164070	0.098623	0.534504	-0.013780	0.162649
2.350	2.207782	-3.295845	716.269670	1.145926	0.145794	0.533503	-0.020355	0.159985
2.360	2.032350	-3.284669	716.659751	1.118522	0.186808	0.535225	-0.026067	0.156074
2.370	1.873614	-3.278883	716.846572	1.083502	0.219460	0.539242	-0.030615	0.151148
2.380	1.740157	-3.282498	716.863485	1.043258	0.243871	0.544438	-0.034019	0.145531
2.390	1.638592	-3.299581	716.777070	1.000835	0.261722	0.549350	-0.036514	0.139630
2.400	1.574022	-3.334051	716.656828	0.959527	0.275102	0.552599	-0.038387	0.133889
