Time[s]	Fx[N]	Fy[N]	Fz[N]	Mx[Nm]	My[Nm]	Mz[Nm]	COPx[cm]	COPy[cm]
0.010	9.459344	3.937099	678.807292	13.444057	6.419166	2.339901	-0.945654	1.980541
0.020	9.785049	3.861290	679.222978	13.305041	6.236687	2.350179	-0.918209	1.958862
0.030	10.124292	3.813381	679.552141	13.197288	6.040340	2.355502	-0.888871	1.942057
0.040	10.488215	3.811162	679.721610	13.142649	5.819551	2.351748	-0.856167	1.933534
0.050	10.881516	3.857602	679.679350	13.147825	5.569302	2.336873	-0.819401	1.934416
0.060	11.299908	3.939767	679.394986	13.203088	5.291218	2.311368	-0.778813	1.943360
0.070	11.727960	4.033378	678.855851	13.286010	4.993253	2.278269	-0.735539	1.957118
0.080	12.137901	4.111619	678.063138	13.368880	4.688206	2.242713	-0.691411	1.971628
0.090	12.491087	4.155056	677.031722	13.427544	4.391500	2.211016	-0.648640	1.983296
0.100	12.743966	4.158883	675.794586	13.448813	4.118609	2.189314	-0.609447	1.990074
0.110	12.858790	4.134660	674.409898	13.434025	3.882531	2.182038	-0.575693	1.991967
0.120	12.816451	4.105981	672.966170	13.397642	3.691697	2.190674	-0.548571	1.990834
0.130	12.626626	4.099918	671.579655	13.361719	3.548756	2.213243	-0.528419	1.989596
0.140	12.330279	4.137367	670.379960	13.348578	3.450682	2.244736	-0.514735	1.991196
0.150	11.992117	4.225398	669.484977	13.374282	3.390345	2.278334	-0.506411	1.997697
0.160	11.684541	4.353983	668.972571	13.444798	3.359118	2.307038	-0.502131	2.009768
0.170	11.468320	4.498527	668.860358	13.555593	3.349646	2.325287	-0.500799	2.026670
0.180	11.376654	4.628050	669.103065	13.694430	3.357798	2.330205	-0.501836	2.046685
0.190	11.407989	4.716801	669.609426	13.846244	3.383217	2.322147	-0.505252	2.067809
0.200	11.529615	4.755043	670.271382	13.998308	3.428518	2.304335	-0.511512	2.088454
0.210	11.690278	4.754225	670.993100	14.143754	3.497711	2.281619	-0.521274	2.107884
0.220	11.836912	4.743608	671.709567	14.282143	3.594523	2.258806	-0.535131	2.126238
0.230	11.929332	4.759244	672.392097	14.417134	3.721029	2.239243	-0.553402	2.144156
0.240	11.948043	4.829931	673.044137	14.552529	3.876639	2.224220	-0.575986	2.162195
0.250	11.893902	4.966176	673.691543	14.688573	4.057421	2.213307	-0.602267	2.180311
0.260	11.782154	5.156403	674.369506	14.820141	4.255942	2.205262	-0.631099	2.197629
0.270	11.635206	5.371006	675.107610	14.937534	4.461901	2.198893	-0.660917	2.212615
0.280	11.477445	5.571479	675.915413	15.029458	4.663715	2.193448	-0.689985	2.223571
0.290	11.332489	5.720666	676.771739	15.086823	4.850880	2.188505	-0.716768	2.229234
0.300	11.220762	5.791229	677.620882	15.105774	5.016441	2.183622	-0.740302	2.229237
0.310	11.155238	5.771177	678.377861	15.088846	5.158735	2.178105	-0.760452	2.224254
0.320	11.135725	5.666251	678.942790	15.044028	5.281662	2.171058	-0.777924	2.215802
0.330	11.145044	5.499048	679.221904	14.982364	5.393283	2.161688	-0.794038	2.205813
0.340	11.151320	5.304810	679.150795	14.915101	5.503158	2.149686	-0.810300	2.196140
0.350	11.118163	5.124306	678.714074	14.851284	5.619384	2.135428	-0.827946	2.188150
0.360	11.019681	4.994881	677.955292	14.796285	5.746344	2.119909	-0.847599	2.182487
0.370	10.853375	4.941450	676.972520	14.751235	5.883793	2.104463	-0.869133	2.179001
0.380	10.644166	4.969682	675.899269	14.713109	6.027355	2.090472	-0.891753	2.176820
0.390	10.437064	5.063425	674.876110	14.675276	6.170076	2.079172	-0.914253	2.174514
0.400	10.281298	5.187301	674.022343	14.628555	6.304620	2.071565	-0.935373	2.170337
0.410	10.211867	5.293888	673.416987	14.562792	6.425628	2.068369	-0.954183	2.162522
0.420	10.234910	5.333850	673.093967	14.468657	6.531655	2.069966	-0.970393	2.149575
0.430	10.322102	5.266646	673.049782	14.339046	6.625935	2.076351	-0.984464	2.130459
0.440	10.416812	5.069163	673.256915	14.169645	6.715479	2.087010	-0.997462	2.104642
0.450	10.451074	4.739905	673.675813	13.958725	6.808605	2.100723	-1.010665	2.072024
0.460	10.368118	4.297684	674.261767	13.706632	6.911644	2.115383	-1.025068	2.032835
0.470	10.142555	3.775602	674.967362	13.415304	7.026028	2.128050	-1.040943	1.987549
0.480	9.790661	3.212650	675.743929	13.087818	7.146906	2.135399	-1.057635	1.936801
0.490	9.366527	2.645987	676.545441	12.727904	7.263900	2.134550	-1.073675	1.881308
0.500	8.945125	2.106568	677.335567	12.339644	7.363738	2.124125	-1.087163	1.821792
0.510	8.598684	1.619292	678.095149	11.927834	7.433648	2.105203	-1.096254	1.759021
0.520	8.375983	1.206675	678.825727	11.499256	7.464028	2.081827	-1.099550	1.693992
0.530	8.293101	0.893135	679.545981	11.064526	7.449218	2.060706	-1.096205	1.628223
0.540	8.338967	0.706290	680.280661	10.639521	7.386169	2.049941	-1.085753	1.563990
0.550	8.491975	0.672787	681.044556	10.245327	7.271974	2.056923	-1.067768	1.504355
0.560	8.738523	0.808964	681.826206	9.906142	7.101889	2.085981	-1.041598	1.452884
0.570	9.083184	1.109767	682.576509	9.645473	6.869306	2.136664	-1.006379	1.413098
0.580	9.544345	1.541089	683.206433	9.481688	6.568139	2.203444	-0.961370	1.387822
0.590	10.136976	2.040391	683.596097	9.424219	6.196705	2.277140	-0.906486	1.378624
0.600	10.851776	2.527848	683.614774	9.471498	5.761273	2.347628	-0.842766	1.385502
0.610	11.642773	2.925963	683.147712	9.611135	5.277423	2.406786	-0.772516	1.406890
0.620	12.431337	3.181113	682.122915	9.822258	4.768361	2.450490	-0.699047	1.439954
0.630	13.125649	3.278238	680.531027	10.079274	4.260805	2.478959	-0.626100	1.481090
0.640	13.646479	3.242259	678.433844	10.355930	3.780115	2.495568	-0.557183	1.526447
0.650	13.947456	3.125851	675.959411	10.628606	3.346559	2.504875	-0.495083	1.572373
0.660	14.021794	2.989652	673.283876	10.878440	2.973824	2.510721	-0.441690	1.615729
0.670	13.894852	2.883829	670.603762	11.092491	2.669699	2.515036	-0.398104	1.654105
0.680	13.608512	2.837956	668.106021	11.264372	2.437888	2.517534	-0.364895	1.686016
0.690	13.205849	2.861126	665.944347	11.394314	2.279678	2.516175	-0.342323	1.711001
0.700	12.722453	2.949039	664.227562	11.488239	2.194641	2.508077	-0.330405	1.729564
0.710	12.186093	3.092156	663.021490	11.555427	2.180331	2.490579	-0.328848	1.742843
0.720	11.622063	3.280025	662.361464	11.605066	2.231493	2.462208	-0.336900	1.752074
0.730	11.059453	3.500591	662.268976	11.642780	2.339483	2.423310	-0.353253	1.758014
0.740	10.534061	3.737363	662.763768	11.668576	2.492297	2.376246	-0.376046	1.760594
0.750	10.085811	3.968760	663.863453	11.677268	2.675423	2.325076	-0.403008	1.758986
0.760	9.751184	4.172118	665.568090	11.661268	2.873527	2.274787	-0.431741	1.752077
0.770	9.553336	4.331102	667.835606	11.614611	3.072719	2.230230	-0.460101	1.739142
0.780	9.493613	4.442290	670.560654	11.536515	3.262731	2.195043	-0.486568	1.720428
0.790	9.547904	4.516568	673.569530	11.432954	3.438199	2.170881	-0.510445	1.697368
0.800	9.670046	4.573709	676.636849	11.315412	3.598466	2.157206	-0.531816	1.672302
0.810	9.802505	4.632445	679.520019	11.197165	3.745960	2.151659	-0.551266	1.647805
0.820	9.891927	4.700700	682.000261	11.088627	3.883736	2.150820	-0.569463	1.625898
0.830	9.904617	4.770336	683.916615	10.993842	4.013110	2.151111	-0.586784	1.607483
0.840	9.835974	4.818530	685.182807	10.909654	4.132305	2.149641	-0.603095	1.592225
0.850	9.709791	4.815262	685.783920	10.827747	4.236531	2.144818	-0.617765	1.578886
0.860	9.567425	4.734278	685.757962	10.738316	4.319262	2.136583	-0.629852	1.565905
0.870	9.451104	4.563677	685.173219	10.633518	4.374057	2.126152	-0.638387	1.551946
0.880	9.387972	4.312098	684.112917	10.509276	4.396255	2.115367	-0.642621	1.536190
0.890	9.381238	4.007692	682.673001	10.365056	4.384042	2.105905	-0.642188	1.518305
0.900	9.412011	3.689678	680.969711	10.202176	4.338506	2.098705	-0.637107	1.498183
0.910	9.451075	3.395364	679.147226	10.021667	4.262453	2.093837	-0.627618	1.475625
0.920	9.475472	3.147890	677.375723	9.822866	4.158206	2.090729	-0.613870	1.450136
0.930	9.482429	2.950079	675.835719	9.603646	4.025137	2.088553	-0.595579	1.421003
0.940	9.494344	2.787203	674.691526	9.362549	3.858118	2.086504	-0.571834	1.387679
0.950	9.552550	2.637075	674.061214	9.101959	3.647997	2.083909	-0.541197	1.350316
0.960	9.702381	2.482231	673.990939	8.830608	3.384501	2.080177	-0.502158	1.310197
0.970	9.975136	2.318196	674.439422	8.563821	3.060910	2.074761	-0.453845	1.269769
0.980	10.373402	2.154368	675.276685	8.320923	2.678803	2.067256	-0.396697	1.232224
0.990	10.864879	2.008226	676.300603	8.120728	2.250823	2.057682	-0.332814	1.200757
1.000	11.387279	1.896857	677.272494	7.977007	1.800023	2.046818	-0.265775	1.177814
1.010	11.863353	1.830441	677.966398	7.895934	1.355590	2.036354	-0.199949	1.164650
1.020	12.221398	1.810602	678.218893	7.876557	0.946245	2.028719	-0.139519	1.161359
1.030	12.414223	1.833764	677.963586	7.913850	0.593480	2.026660	-0.087539	1.167297
1.040	12.430016	1.897016	677.239098	8.002732	0.306923	2.032722	-0.045320	1.181670
1.050	12.291969	2.002487	676.169054	8.141045	0.083423	2.048783	-0.012338	1.203995
1.060	12.047925	2.156973	674.922983	8.329958	-0.089988	2.075666	0.013333	1.234209
1.070	11.754549	2.366362	673.673624	8.571441	-0.230614	2.112866	0.034232	1.272343
1.080	11.461615	2.627912	672.565183	8.863993	-0.354345	2.158409	0.052686	1.317938
1.090	11.201237	2.924989	671.699179	9.198881	-0.471647	2.208921	0.070217	1.369494
1.100	10.984662	3.227609	671.135101	9.559019	-0.586287	2.259949	0.087358	1.424306
1.110	10.806418	3.499073	670.898187	9.921244	-0.696637	2.306538	0.103836	1.478800
1.120	10.653072	3.706131	670.987704	10.260965	-0.798648	2.343971	0.119026	1.529233
1.130	10.512720	3.828969	671.383042	10.557074	-0.889242	2.368517	0.132449	1.572437
1.140	10.381866	3.867711	672.048166	10.795051	-0.968921	2.378062	0.144174	1.606291
1.150	10.267901	3.843503	672.935935	10.967291	-1.042772	2.372533	0.154959	1.629767
1.160	10.186940	3.793693	673.992927	11.071129	-1.119674	2.354011	0.166126	1.642618
1.170	10.158246	3.761820	675.163955	11.105905	-1.210155	2.326441	0.179239	1.644920
1.180	10.197495	3.784423	676.394620	11.070540	-1.323799	2.294843	0.195714	1.636698
1.190	10.311371	3.878204	677.630933	10.962584	-1.467215	2.264118	0.216521	1.617781
1.200	10.495199	4.032055	678.816935	10.778955	-1.643146	2.237750	0.242060	1.587903
1.210	10.734112	4.207675	679.892743	10.518134	-1.850794	2.216828	0.272219	1.547028
1.220	11.007007	4.349772	680.795033	10.183210	-2.086871	2.199851	0.306534	1.495782
1.230	11.291558	4.403280	681.460375	9.784920	-2.346838	2.183474	0.344384	1.435875
1.240	11.568342	4.332017	681.830812	9.343536	-2.625833	2.163985	0.385115	1.370360
1.250	11.822846	4.132049	681.860719	8.888401	-2.919074	2.138925	0.428104	1.303551
1.260	12.045345	3.834423	681.524015	8.454369	-3.221836	2.108156	0.472740	1.240509
1.270	12.229708	3.495438	680.820797	8.075491	-3.529382	2.073918	0.518401	1.186140
1.280	12.372481	3.177275	679.782570	7.777650	-3.837318	2.039903	0.564492	1.144138
1.290	12.473234	2.925915	678.475613	7.572566	-4.142446	2.009808	0.610552	1.116115
1.300	12.536307	2.755078	677.002038	7.455360	-4.443858	1.986022	0.656402	1.101232
1.310	12.573191	2.642883	675.497362	7.406482	-4.743861	1.968948	0.702277	1.096449
1.320	12.604199	2.542535	674.122277	7.397136	-5.048438	1.957156	0.748891	1.097299
1.330	12.657948	2.402163	673.046364	7.396106	-5.366982	1.948209	0.797416	1.098900
1.340	12.767516	2.185207	672.423157	7.375639	-5.711058	1.939748	0.849325	1.096875
1.350	12.963000	1.883190	672.359182	7.314840	-6.092117	1.930366	0.906081	1.087936
1.360	13.261705	1.516734	672.883724	7.200318	-6.518390	1.919918	0.968725	1.070069
1.370	13.658820	1.126043	673.929553	7.025103	-6.991743	1.909242	1.037459	1.042409
1.380	14.122401	0.756316	675.334590	6.787392	-7.505590	1.899568	1.111388	1.005041
1.390	14.596099	0.444938	676.868604	6.490228	-8.044963	1.891983	1.188556	0.958861
1.400	15.011169	0.215292	678.279511	6.142162	-8.589131	1.887179	1.266311	0.905550
1.410	15.305957	0.077792	679.346034	5.758217	-9.116226	1.885487	1.341912	0.847612
1.420	15.447021	0.034923	679.921423	5.360191	-9.608461	1.887012	1.413172	0.788354
1.430	15.443300	0.085826	679.956658	4.975465	-10.056208	1.891684	1.478948	0.731733
1.440	15.345984	0.227544	679.498134	4.633883	-10.459523	1.899140	1.539301	0.681957
1.450	15.232519	0.453005	678.662066	4.362908	-10.826599	1.908516	1.595286	0.642869
1.460	15.180720	0.748122	677.594502	4.182142	-11.169709	1.918379	1.648436	0.617204
1.470	15.243682	1.090803	676.429950	4.098808	-11.500156	1.927026	1.700125	0.605947
1.480	15.435350	1.453137	675.260991	4.105881	-11.824017	1.933136	1.751029	0.608044
1.490	15.731149	1.805952	674.125999	4.183891	-12.140002	1.936440	1.800851	0.620639
1.500	16.081412	2.124008	673.015623	4.306224	-12.439817	1.937934	1.848370	0.639840
1.510	16.430655	2.390555	671.893561	4.446364	-12.710469	1.939426	1.891738	0.661766
1.520	16.734845	2.600585	670.724400	4.584693	-12.937416	1.942715	1.928872	0.683543
1.530	16.971162	2.761921	669.500670	4.712608	-13.107572	1.948901	1.957813	0.703899
1.540	17.138639	2.892922	668.262166	4.832762	-13.211637	1.958134	1.977014	0.723184
1.550	17.251584	3.016304	667.102303	4.955687	-13.245696	1.969783	1.985557	0.742868
1.560	17.329708	3.150598	666.159095	5.094345	-13.212196	1.982769	1.983339	0.764734
1.570	17.389298	3.302561	665.592503	5.258718	-13.120265	1.995865	1.971216	0.790081
1.580	17.438439	3.464137	665.554426	5.452159	-12.985193	2.007920	1.951034	0.819190
1.590	17.476904	3.615868	666.159488	5.670251	-12.826794	2.018001	1.925484	0.851185
1.600	17.499029	3.735767	667.462531	5.902021	-12.666561	2.025519	1.897719	0.884248
1.610	17.497050	3.809746	669.444469	6.132738	-12.523967	2.030290	1.870800	0.916094
1.620	17.463081	3.838697	672.006005	6.347307	-12.412711	2.032522	1.847113	0.944531
1.630	17.389379	3.838822	674.969835	6.533330	-12.338012	2.032749	1.827935	0.967944
1.640	17.267718	3.835151	678.093813	6.683179	-12.295941	2.031825	1.813310	0.985583
1.650	17.089142	3.851397	681.096995	6.794766	-12.275235	2.030969	1.802274	0.997621
1.660	16.845198	3.900625	683.697272	6.870946	-12.261184	2.031752	1.793364	1.004969
1.670	16.531100	3.980349	685.654530	6.917784	-12.240379	2.035872	1.785211	1.008931
1.680	16.150217	4.073389	686.809244	6.942163	-12.204723	2.044712	1.777018	1.010785
1.690	15.718233	4.153426	687.105796	6.949432	-12.153274	2.058836	1.768763	1.011406
1.700	15.264931	4.192757	686.593642	6.941798	-12.091462	2.077682	1.761080	1.011049
1.710	14.832301	4.169674	685.406425	6.918041	-12.028327	2.099642	1.754919	1.009334
1.720	14.468997	4.073723	683.726231	6.874650	-11.973216	2.122558	1.751171	1.005468
1.730	14.222428	3.908131	681.744764	6.808001	-11.933216	2.144430	1.750394	0.998614
1.740	14.130505	3.689236	679.632953	6.716771	-11.911935	2.164008	1.752701	0.988294
1.750	14.215219	3.443053	677.525265	6.603748	-11.909454	2.180968	1.757787	0.974687
1.760	14.479540	3.199464	675.518121	6.476381	-11.922901	2.195620	1.765001	0.958728
1.770	14.907899	2.985287	673.677296	6.345752	-11.947169	2.208390	1.773426	0.941957
1.780	15.469333	2.818182	672.048877	6.224264	-11.975667	2.219354	1.781964	0.926162
1.790	16.121864	2.703505	670.670102	6.122918	-12.001211	2.228014	1.789436	0.912955
1.800	16.817073	2.635203	669.577434	6.049090	-12.017001	2.233365	1.794714	0.903419
1.810	17.504404	2.600119	668.808801	6.005260	-12.017301	2.234264	1.796822	0.897904
1.820	18.135036	2.583597	668.397144	5.988651	-11.997378	2.229988	1.794947	0.895972
1.830	18.665205	2.574249	668.354890	5.991690	-11.952564	2.220813	1.788356	0.896483
1.840	19.058907	2.566925	668.653150	6.003438	-11.876597	2.208304	1.776197	0.897840
1.850	19.289884	2.563996	669.202802	6.012140	-11.759665	2.195128	1.757265	0.898403
1.860	19.342690	2.575186	669.845829	6.008713	-11.586767	2.184363	1.729766	0.897029
1.870	19.212318	2.615437	670.364119	5.990410	-11.337113	2.178509	1.691187	0.893605
1.880	18.902099	2.699923	670.509436	5.963261	-10.985267	2.178438	1.638346	0.889363
1.890	18.420714	2.836097	670.053172	5.941853	-10.504391	2.182602	1.567695	0.886773
1.900	17.780679	3.014625	668.848522	5.945694	-9.871285	2.186813	1.475863	0.888945
1.910	17.000617	3.203063	666.891322	5.992850	-9.072148	2.184940	1.360364	0.898625
1.920	16.110995	3.346860	664.359911	6.093130	-8.107325	2.170525	1.220321	0.917143
1.930	15.159179	3.380914	661.613911	6.243891	-6.993224	2.138928	1.056995	0.943736
1.940	14.207976	3.251380	659.141974	6.430900	-5.760282	2.089178	0.873906	0.975647
1.950	13.324283	2.942385	657.467758	6.634388	-4.447309	2.024680	0.676430	1.009082
1.960	12.560063	2.497632	657.041455	6.837647	-3.094070	1.952319	0.470909	1.040672
1.970	11.933407	2.025610	658.150331	7.034090	-1.734799	1.880259	0.263587	1.068766
1.980	11.419163	1.681323	660.872156	7.229516	-0.394851	1.815360	0.059747	1.093936
1.990	10.955236	1.626492	665.076812	7.438797	0.908764	1.761364	-0.136640	1.118487
2.000	10.463835	1.979896	670.464663	7.678658	2.163978	1.718679	-0.322758	1.145274
2.010	9.880130	2.775059	676.623146	7.959606	3.359416	1.685782	-0.496497	1.176372
2.020	9.177293	3.940845	683.085893	8.280027	4.481329	1.661373	-0.656042	1.212150
2.030	8.378187	5.312662	689.385538	8.624476	5.512885	1.646016	-0.799681	1.251038
2.040	7.549274	6.671310	695.095884	8.966572	6.435930	1.642378	-0.925905	1.289976
2.050	6.779073	7.797037	699.859816	9.275332	7.234396	1.654102	-1.033692	1.325313
2.060	6.148988	8.521747	703.400686	9.522712	7.898148	1.684087	-1.122852	1.353810
2.070	5.706625	8.764025	705.519786	9.689903	8.426097	1.733112	-1.194311	1.373442
2.080	5.450528	8.538811	706.088444	9.770613	8.827700	1.799292	-1.250226	1.383766
2.090	5.331264	7.942533	705.045121	9.770533	9.122313	1.878349	-1.293862	1.385803
2.100	5.268301	7.121471	702.404020	9.703344	9.336272	1.964338	-1.329188	1.381448
2.110	5.176775	6.233980	698.273740	9.584669	9.498273	2.050513	-1.360251	1.372623
2.120	4.994596	5.416428	692.876524	9.426163	9.634409	2.130158	-1.390494	1.360439
2.130	4.700025	4.759902	686.555238	9.231900	9.764471	2.197305	-1.422241	1.344670
2.140	4.313523	4.301133	679.757952	8.998391	9.900591	2.247355	-1.456488	1.323764
2.150	3.884203	4.027446	672.997546	8.718264	10.048198	2.277624	-1.493051	1.295438
2.160	3.467873	3.892280	666.793235	8.386206	10.208304	2.287848	-1.530955	1.257692
2.170	3.106878	3.835706	661.607647	8.004853	10.379782	2.280517	-1.568873	1.209909
2.180	2.820135	3.803729	657.793471	7.588160	10.560671	2.260825	-1.605469	1.153578
2.190	2.605732	3.761137	655.558627	7.160671	10.748346	2.236014	-1.639571	1.092301
2.200	2.451872	3.694985	654.953441	6.752632	10.939085	2.214077	-1.670208	1.031009
2.210	2.348558	3.609073	655.879944	6.392473	11.127797	2.202080	-1.696621	0.974641
2.220	2.293728	3.512925	658.120498	6.099255	11.308328	2.204567	-1.718276	0.926769
2.230	2.291987	3.410721	661.378869	5.877749	11.474303	2.222551	-1.734906	0.888711
2.240	2.348413	3.295496	665.323366	5.717873	11.620129	2.253454	-1.746538	0.859413
2.250	2.462035	3.151461	669.622362	5.598689	11.741680	2.292027	-1.753478	0.836096
2.260	2.622916	2.963335	673.968047	5.495595	11.836404	2.331908	-1.756226	0.815409
2.270	2.814423	2.727807	678.090226	5.388328	11.902888	2.367293	-1.755355	0.794633
2.280	3.019150	2.460836	681.764069	5.267070	11.940221	2.394170	-1.751371	0.772565
2.290	3.224960	2.196457	684.814098	5.134569	11.947509	2.410865	-1.744635	0.749776
2.300	3.427626	1.977079	687.115506	5.003463	11.923716	2.417957	-1.735329	0.728184
2.310	3.628830	1.839364	688.595267	4.889794	11.867574	2.417796	-1.723447	0.710111
2.320	3.831519	1.801532	689.237020	4.805247	11.777083	2.413835	-1.708713	0.697184
2.330	4.036866	1.856972	689.091332	4.751411	11.648133	2.409827	-1.690361	0.689518
2.340	4.246746	1.976472	688.286585	4.718577	11.472410	2.408922	-1.666807	0.685554
2.350	4.472284	2.118402	687.030025	4.689648	11.235423	2.412770	-1.635361	0.682597
2.360	4.744348	2.243341	685.588293	4.647232	10.916029	2.420867	-1.592213	0.677846
2.370	5.118523	2.327623	684.243563	4.580569	10.488657	2.430434	-1.532884	0.669435
2.380	5.667566	2.370220	683.232625	4.489081	9.928594	2.436960	-1.453179	0.657036
2.390	6.459365	2.389970	682.686698	4.381089	9.219285	2.435397	-1.350442	0.641742
2.400	7.526401	2.414238	682.593454	4.268631	8.359408	2.421775	-1.224654	0.625355
2.410	8.839407	2.463801	682.796436	4.161159	7.367045	2.394831	-1.078952	0.609429
2.420	10.298856	2.540267	683.033485	4.061263	6.279091	2.357035	-0.919295	0.594592
