Time[s]	Fx[N]	Fy[N]	Fz[N]	Mx[Nm]	My[Nm]	Mz[Nm]	COPx[cm]	COPy[cm]
0.010	3.318843	-1.231150	522.379690	9.705953	-3.780005	-0.169799	0.723613	1.858027
0.020	3.350133	-1.065769	523.032089	9.736149	-3.726907	-0.174422	0.712558	1.861482
0.030	3.353932	-0.920102	523.681114	9.776496	-3.675299	-0.178474	0.701820	1.866880
0.040	3.312640	-0.811301	524.317513	9.833740	-3.626218	-0.181635	0.691607	1.875531
0.050	3.223035	-0.751246	524.920083	9.909133	-3.579895	-0.183828	0.681989	1.887741
0.060	3.096083	-0.743567	525.454918	9.998395	-3.535500	-0.185223	0.672846	1.902807
0.070	2.952598	-0.781797	525.880962	10.093291	-3.491509	-0.186091	0.663935	1.919311
0.080	2.817270	-0.850189	526.160811	10.183875	-3.446764	-0.186541	0.655078	1.935506
0.090	2.713072	-0.927838	526.271737	10.260630	-3.401749	-0.186257	0.646386	1.949683
0.100	2.656820	-0.994879	526.211217	10.316136	-3.359308	-0.184423	0.638395	1.960455
0.110	2.655960	-1.038295	525.995080	10.346286	-3.324242	-0.179963	0.631991	1.966993
0.120	2.707068	-1.054922	525.651074	10.351052	-3.301864	-0.172037	0.628147	1.969187
0.130	2.796960	-1.050621	525.212366	10.334688	-3.296139	-0.160554	0.627582	1.967716
0.140	2.906791	-1.036321	524.713794	10.305201	-3.308305	-0.146412	0.630497	1.963966
0.150	3.017891	-1.022972	524.190620	10.272975	-3.336452	-0.131339	0.636496	1.959778
0.160	3.116846	-1.017661	523.677400	10.248678	-3.376046	-0.117385	0.644681	1.957059
0.170	3.197542	-1.022191	523.205095	10.240903	-3.420984	-0.106240	0.653851	1.957340
0.180	3.259695	-1.033992	522.797029	10.254197	-3.464839	-0.098615	0.662750	1.961411
0.190	3.305487	-1.048333	522.466386	10.288103	-3.502067	-0.093950	0.670295	1.969142
0.200	3.336590	-1.060652	522.217506	10.337603	-3.529039	-0.090620	0.675779	1.979559
0.210	3.353065	-1.068214	522.050477	10.394964	-3.544622	-0.086588	0.678981	1.991180
0.220	3.354088	-1.070685	521.965469	10.452408	-3.550063	-0.080256	0.680134	2.002510
0.230	3.339477	-1.069412	521.962953	10.504492	-3.548078	-0.071154	0.679757	2.012498
0.240	3.310783	-1.065733	522.039272	10.549215	-3.541536	-0.060153	0.678404	2.020770
0.250	3.271266	-1.059463	522.181447	10.587542	-3.532363	-0.049130	0.676463	2.027560
0.260	3.225067	-1.049143	522.366426	10.621760	-3.521178	-0.040322	0.674082	2.033393
0.270	3.176615	-1.034614	522.566746	10.653426	-3.507745	-0.035718	0.671253	2.038673
0.280	3.131036	-1.020486	522.759818	10.681610	-3.491850	-0.036687	0.667965	2.043311
0.290	3.095204	-1.018021	522.935713	10.702033	-3.474085	-0.043834	0.664343	2.046529
0.300	3.078001	-1.043671	523.099449	10.707542	-3.456118	-0.056961	0.660700	2.046942
0.310	3.088553	-1.114109	523.266147	10.689961	-3.440301	-0.075080	0.657467	2.042930
0.320	3.132691	-1.239006	523.449889	10.642702	-3.428725	-0.096500	0.655025	2.033184
0.330	3.209330	-1.414196	523.650254	10.563127	-3.422174	-0.119025	0.653523	2.017210
0.340	3.308702	-1.618750	523.843365	10.453767	-3.419447	-0.140296	0.652761	1.995590
0.350	3.413334	-1.818744	523.983679	10.322034	-3.417357	-0.158253	0.652188	1.969915
0.360	3.501358	-1.977589	524.017481	10.178497	-3.411312	-0.171581	0.650992	1.942396
0.370	3.551180	-2.069233	523.902470	10.034222	-3.396246	-0.179942	0.648259	1.915284
0.380	3.546556	-2.088466	523.624537	9.898056	-3.367662	-0.183899	0.643144	1.890297
0.390	3.481122	-2.053540	523.204467	9.774829	-3.322636	-0.184681	0.635055	1.868262
0.400	3.361191	-1.999766	522.692520	9.665119	-3.260571	-0.183916	0.623803	1.849102
0.410	3.205580	-1.966840	522.154369	9.566511	-3.183358	-0.183343	0.609658	1.832123
0.420	3.041721	-1.985128	521.654790	9.475666	-3.094661	-0.184479	0.593239	1.816463
0.430	2.898507	-2.065925	521.244900	9.390340	-2.998446	-0.188265	0.575247	1.801522
0.440	2.798005	-2.198574	520.956294	9.310708	-2.897355	-0.194842	0.556161	1.787234
0.450	2.749156	-2.354673	520.802981	9.239658	-2.791793	-0.203550	0.536056	1.774118
0.460	2.746005	-2.497402	520.789578	9.182039	-2.680247	-0.213156	0.514651	1.763100
0.470	2.770909	-2.592756	520.921447	9.143093	-2.560672	-0.222163	0.491566	1.755177
0.480	2.800915	-2.619237	521.210839	9.126601	-2.432224	-0.229086	0.466649	1.751038
0.490	2.814547	-2.573329	521.674712	9.133478	-2.296505	-0.232618	0.440218	1.750799
0.500	2.796810	-2.469413	522.324517	9.161457	-2.157898	-0.231728	0.413133	1.753978
0.510	2.741752	-2.334477	523.152885	9.205999	-2.022966	-0.225764	0.386687	1.759715
0.520	2.653097	-2.199683	524.123581	9.261900	-1.899253	-0.214615	0.362367	1.767121
0.530	2.543569	-2.091703	525.168976	9.324667	-1.793859	-0.198870	0.341578	1.775556
0.540	2.432795	-2.026380	526.195822	9.390970	-1.712083	-0.179841	0.325370	1.784691
0.550	2.343175	-2.006112	527.097431	9.458122	-1.656240	-0.159355	0.314219	1.794378
0.560	2.293759	-2.021263	527.769276	9.523153	-1.624936	-0.139313	0.307888	1.804416
0.570	2.293813	-2.054942	528.125184	9.582117	-1.613206	-0.121183	0.305459	1.814365
0.580	2.339046	-2.089668	528.112011	9.630102	-1.613830	-0.105667	0.305585	1.823496
0.590	2.413013	-2.113789	527.720804	9.661996	-1.619566	-0.092690	0.306898	1.830892
0.600	2.493872	-2.125324	526.991288	9.673759	-1.625404	-0.081690	0.308431	1.835658
0.610	2.563796	-2.131512	526.006043	9.663742	-1.629800	-0.072013	0.309844	1.837192
0.620	2.616668	-2.144025	524.873520	9.633550	-1.634300	-0.063232	0.311370	1.835404
0.630	2.660372	-2.171839	523.704634	9.588036	-1.641783	-0.055298	0.313494	1.830810
0.640	2.712395	-2.215078	522.591604	9.534339	-1.654137	-0.048529	0.316526	1.824434
0.650	2.790552	-2.262804	521.596774	9.480296	-1.670368	-0.043497	0.320241	1.817553
0.660	2.902986	-2.296014	520.754328	9.432826	-1.685896	-0.040855	0.323741	1.811377
0.670	3.042165	-2.294810	520.081604	9.396788	-1.693280	-0.041090	0.325580	1.806791
0.680	3.185804	-2.246764	519.592289	9.374592	-1.684115	-0.044268	0.324122	1.804221
0.690	3.304418	-2.152912	519.303742	9.366523	-1.651402	-0.049873	0.318003	1.803669
0.700	3.372233	-2.028766	519.235344	9.371483	-1.591545	-0.056879	0.306517	1.804862
0.710	3.376760	-1.899816	519.400601	9.387722	-1.505280	-0.064012	0.289811	1.807414
0.720	3.322835	-1.793375	519.798460	9.413218	-1.397220	-0.070045	0.268800	1.810936
0.730	3.229289	-1.730180	520.408205	9.445653	-1.274273	-0.073982	0.244860	1.815047
0.740	3.119940	-1.719132	521.189284	9.482160	-1.143649	-0.075136	0.219431	1.819331
0.750	3.013593	-1.756756	522.084671	9.519050	-1.011289	-0.073220	0.193702	1.823277
0.760	2.918031	-1.830640	523.025149	9.551688	-0.881129	-0.068458	0.168468	1.826239
0.770	2.830408	-1.924600	523.933040	9.574658	-0.755109	-0.061657	0.144123	1.827458
0.780	2.742777	-2.023234	524.726556	9.582343	-0.633410	-0.054113	0.120712	1.826159
0.790	2.649083	-2.114437	525.327635	9.569858	-0.514629	-0.047324	0.097963	1.821693
0.800	2.549717	-2.189901	525.674262	9.534016	-0.395977	-0.042652	0.075327	1.813674
0.810	2.451498	-2.244752	525.733640	9.473908	-0.273803	-0.041047	0.052080	1.802036
0.820	2.363685	-2.277538	525.509735	9.390888	-0.144451	-0.042910	0.027488	1.787005
0.830	2.292759	-2.290874	525.041408	9.288169	-0.005138	-0.048105	0.000979	1.769035
0.840	2.239074	-2.291880	524.393342	9.170390	0.145465	-0.056102	-0.027740	1.748762
0.850	2.197093	-2.291119	523.645619	9.043299	0.307036	-0.066207	-0.058634	1.726988
0.860	2.158766	-2.299416	522.886029	8.913344	0.477642	-0.077730	-0.091347	1.704644
0.870	2.117753	-2.323431	522.203953	8.786886	0.653991	-0.090025	-0.125237	1.682654
0.880	2.071744	-2.362162	521.681307	8.669034	0.831982	-0.102402	-0.159481	1.661749
0.890	2.021358	-2.406586	521.378074	8.562469	1.007616	-0.114032	-0.193260	1.642276
0.900	1.966390	-2.443135	521.316432	8.466839	1.178135	-0.123942	-0.225992	1.624127
0.910	1.902061	-2.459642	521.472764	8.379113	1.342909	-0.131165	-0.257522	1.606817
0.920	1.818266	-2.451225	521.785622	8.294804	1.503481	-0.134944	-0.288142	1.589696
0.930	1.703418	-2.423660	522.179773	8.209612	1.662416	-0.134937	-0.318361	1.572181
0.940	1.551655	-2.392801	522.597241	8.120967	1.821206	-0.131346	-0.348491	1.553963
0.950	1.369518	-2.380080	523.021191	8.029046	1.978193	-0.124942	-0.378224	1.535128
0.960	1.177654	-2.405568	523.480387	7.936970	2.127693	-0.116965	-0.406451	1.516193
0.970	1.005649	-2.481155	524.030229	7.849970	2.261026	-0.108887	-0.431469	1.497999
0.980	0.882120	-2.606499	524.717211	7.773553	2.369088	-0.102079	-0.451498	1.481475
0.990	0.824804	-2.769205	525.541630	7.711218	2.445373	-0.097449	-0.465305	1.467290
1.000	0.835002	-2.948738	526.434955	7.662694	2.488210	-0.095224	-0.472653	1.455582
1.010	0.898309	-3.121920	527.263321	7.623749	2.501448	-0.095012	-0.474421	1.445909
1.020	0.990660	-3.267544	527.858876	7.587864	2.493489	-0.096199	-0.472378	1.437480
1.030	1.086623	-3.368849	528.069271	7.549085	2.475083	-0.098480	-0.468704	1.429563
1.040	1.166379	-3.414496	527.807162	7.504667	2.456685	-0.102164	-0.465451	1.421858
1.050	1.219198	-3.399644	527.080684	7.456162	2.446138	-0.107983	-0.464092	1.414615
1.060	1.243300	-3.328014	525.993449	7.408358	2.447325	-0.116525	-0.465277	1.408451
1.070	1.243548	-3.214081	524.715004	7.366649	2.460049	-0.127671	-0.468835	1.403933
1.080	1.228745	-3.083221	523.434070	7.334265	2.481084	-0.140409	-0.474001	1.401182
1.090	1.209522	-2.967943	522.312167	7.310829	2.505912	-0.153143	-0.479773	1.399705
1.100	1.196561	-2.900192	521.452386	7.292813	2.530425	-0.164274	-0.485265	1.398558
1.110	1.198337	-2.902075	520.890031	7.275391	2.552045	-0.172703	-0.489939	1.396723
1.120	1.218252	-2.978534	520.603544	7.254643	2.570132	-0.178023	-0.493683	1.393506
1.130	1.252268	-3.114914	520.538872	7.229133	2.585864	-0.180420	-0.496767	1.388779
1.140	1.288752	-3.280618	520.638346	7.200270	2.601627	-0.180488	-0.499699	1.382970
1.150	1.311580	-3.438158	520.864914	7.171306	2.619857	-0.179155	-0.502982	1.376807
1.160	1.306140	-3.555005	521.213821	7.145394	2.641429	-0.177681	-0.506784	1.370914
1.170	1.266316	-3.614138	521.707284	7.123690	2.664190	-0.177556	-0.510668	1.365457
1.180	1.199420	-3.619123	522.373528	7.104481	2.682511	-0.180151	-0.513523	1.360038
1.190	1.126142	-3.591563	523.218128	7.083809	2.688451	-0.186168	-0.513830	1.353892
1.200	1.074369	-3.561803	524.200020	7.057274	2.674294	-0.195163	-0.510167	1.346294
1.210	1.068784	-3.556444	525.223918	7.022164	2.635356	-0.205456	-0.501759	1.336985
1.220	1.120773	-3.587615	526.154418	6.978934	2.571744	-0.214629	-0.488781	1.326404
1.230	1.223467	-3.648586	526.847811	6.931338	2.488319	-0.220416	-0.472303	1.315624
1.240	1.354238	-3.717845	527.189959	6.885159	2.393053	-0.221567	-0.453926	1.306011
1.250	1.483309	-3.769801	527.125991	6.846141	2.294633	-0.218275	-0.435310	1.298768
1.260	1.584745	-3.786901	526.671174	6.817998	2.200240	-0.212026	-0.417764	1.294546
1.270	1.645747	-3.767188	525.900964	6.801269	2.114118	-0.205023	-0.401999	1.293260
1.280	1.671268	-3.723861	524.927253	6.793381	2.037094	-0.199498	-0.388072	1.294157
1.290	1.682504	-3.677631	523.871942	6.789900	1.967016	-0.197122	-0.375477	1.296099
1.300	1.709524	-3.646187	522.846952	6.786514	1.899960	-0.198600	-0.363387	1.297993
1.310	1.780137	-3.636037	521.944419	6.780989	1.831914	-0.203477	-0.350979	1.299178
1.320	1.908734	-3.640356	521.235121	6.774262	1.760482	-0.210210	-0.337752	1.299656
1.330	2.089428	-3.643363	520.769719	6.770235	1.685973	-0.216563	-0.323746	1.300044
1.340	2.296633	-3.628799	520.578205	6.774427	1.611309	-0.220245	-0.309523	1.301327
1.350	2.493322	-3.588414	520.667137	6.792208	1.540688	-0.219555	-0.295907	1.304520
1.360	2.643728	-3.526578	521.017328	6.827418	1.477558	-0.213750	-0.283591	1.310401
1.370	2.725176	-3.458807	521.584101	6.881844	1.422949	-0.203036	-0.272813	1.319412
1.380	2.734262	-3.404623	522.300255	6.955460	1.375060	-0.188274	-0.263270	1.331698
1.390	2.685474	-3.377808	523.081617	7.047033	1.330295	-0.170613	-0.254319	1.347215
1.400	2.603921	-3.378477	523.835998	7.154792	1.285134	-0.151191	-0.245331	1.365846
1.410	2.516250	-3.390683	524.476101	7.277014	1.237776	-0.131029	-0.236002	1.387482
1.420	2.443689	-3.387026	524.934746	7.412390	1.188679	-0.111093	-0.226443	1.412059
1.430	2.399064	-3.338943	525.178073	7.560010	1.139805	-0.092394	-0.217032	1.439514
1.440	2.387260	-3.228777	525.211303	7.718808	1.093160	-0.075999	-0.208137	1.469658
1.450	2.407525	-3.058487	525.073293	7.886535	1.049602	-0.062863	-0.199896	1.501988
1.460	2.455962	-2.850759	524.820624	8.058786	1.008591	-0.053579	-0.192178	1.535532
1.470	2.527188	-2.641498	524.507330	8.228977	0.968857	-0.048156	-0.184718	1.568896
1.480	2.614870	-2.466625	524.169391	8.389874	0.929345	-0.045970	-0.177299	1.600604
1.490	2.711633	-2.348761	523.820855	8.536272	0.889729	-0.045972	-0.169854	1.629617
1.500	2.809146	-2.289349	523.461760	8.667428	0.850260	-0.047097	-0.162430	1.655790
1.510	2.898840	-2.269244	523.091559	8.787794	0.811238	-0.048716	-0.155085	1.679972
1.520	2.973016	-2.257027	522.720021	8.905363	0.772649	-0.050915	-0.147813	1.703658
1.530	3.025898	-2.221184	522.370679	9.028224	0.734237	-0.054405	-0.140559	1.728318
1.540	3.054548	-2.141064	522.076883	9.160984	0.695859	-0.060078	-0.133287	1.754719
1.550	3.059770	-2.012601	521.873945	9.302880	0.657716	-0.068341	-0.126030	1.782591
1.560	3.046845	-1.847336	521.791160	9.448522	0.620299	-0.078607	-0.118879	1.810786
1.570	3.025376	-1.666221	521.845289	9.590704	0.584213	-0.089244	-0.111951	1.837844
1.580	3.007288	-1.491612	522.035356	9.723625	0.550223	-0.098118	-0.105400	1.862637
1.590	3.002797	-1.340801	522.339162	9.844803	0.519492	-0.103470	-0.099455	1.884753
1.600	3.015725	-1.222906	522.713373	9.954878	0.493786	-0.104658	-0.094466	1.904462
1.610	3.040822	-1.139120	523.098918	10.055881	0.475415	-0.102389	-0.090884	1.922367
1.620	3.065187	-1.085097	523.431240	10.149279	0.466995	-0.098376	-0.089218	1.938990
1.630	3.073385	-1.053806	523.652531	10.234943	0.471153	-0.094655	-0.089974	1.954530
1.640	3.053548	-1.037468	523.722489	10.311339	0.490171	-0.092871	-0.093594	1.968856
1.650	3.001456	-1.028183	523.625848	10.376475	0.525481	-0.093797	-0.100354	1.981658
1.660	2.921209	-1.017965	523.377069	10.428896	0.576937	-0.097211	-0.110234	1.992616
1.670	2.823228	-0.999326	523.022877	10.468179	0.642066	-0.102147	-0.122761	2.001476
1.680	2.721331	-0.967034	522.641193	10.494733	0.715685	-0.107389	-0.136936	2.008019
1.690	2.630195	-0.920744	522.332600	10.509055	0.790364	-0.111951	-0.151314	2.011947
1.700	2.563176	-0.867252	522.201395	10.510884	0.857905	-0.115354	-0.164286	2.012803
1.710	2.529772	-0.820782	522.328253	10.498844	0.911487	-0.117631	-0.174505	2.010009
1.720	2.532702	-0.800192	522.742680	10.470874	0.947598	-0.119189	-0.181274	2.003065
1.730	2.565957	-0.823291	523.406556	10.425248	0.966857	-0.120624	-0.184724	1.991807
1.740	2.615613	-0.900036	524.217428	10.361577	0.973371	-0.122570	-0.185681	1.976580
1.750	2.663830	-1.027468	525.032719	10.281245	0.973035	-0.125578	-0.185329	1.958210
1.760	2.694394	-1.189164	525.707063	10.187108	0.971559	-0.130005	-0.184810	1.937792
1.770	2.697280	-1.360355	526.129189	10.082621	0.972926	-0.135934	-0.184921	1.916377
1.780	2.670568	-1.517090	526.245539	9.970676	0.978624	-0.143137	-0.185963	1.894681
1.790	2.619644	-1.645538	526.064828	9.852482	0.987665	-0.151144	-0.187746	1.872865
1.800	2.554673	-1.747162	525.646303	9.726922	0.997188	-0.159410	-0.189707	1.850469
1.810	2.487689	-1.837372	525.079316	9.590766	1.003327	-0.167551	-0.191081	1.826537
1.820	2.430359	-1.938255	524.461252	9.439849	1.002128	-0.175523	-0.191078	1.799914
1.830	2.392691	-2.068391	523.877927	9.270977	0.990464	-0.183611	-0.189064	1.769683
1.840	2.381997	-2.233642	523.388897	9.084057	0.966954	-0.192204	-0.184749	1.735623
1.850	2.401310	-2.422300	523.020345	8.883808	0.932632	-0.201482	-0.178317	1.698559
1.860	2.447416	-2.606529	522.767656	8.680220	0.890988	-0.211204	-0.170437	1.660435
1.870	2.510126	-2.750184	522.606963	8.487067	0.847122	-0.220689	-0.162095	1.623987
1.880	2.574543	-2.820936	522.510985	8.318531	0.806226	-0.228973	-0.154298	1.592030
1.890	2.626281	-2.802944	522.462287	8.184962	0.772046	-0.235071	-0.147771	1.566613
1.900	2.657199	-2.705341	522.458360	8.089489	0.745978	-0.238242	-0.142782	1.548351
1.910	2.668418	-2.562486	522.507495	8.027004	0.727100	-0.238143	-0.139156	1.536247
1.920	2.668789	-2.424574	522.619203	7.986123	0.712914	-0.234798	-0.136412	1.528096
1.930	2.669701	-2.341222	522.794937	7.953445	0.700385	-0.228438	-0.133969	1.521332
1.940	2.679207	-2.344182	523.023255	7.918330	0.686945	-0.219344	-0.131341	1.513954
1.950	2.698665	-2.436209	523.280462	7.876184	0.671265	-0.207822	-0.128280	1.505155
1.960	2.723249	-2.590481	523.535402	7.829124	0.653570	-0.194313	-0.124838	1.495434
1.970	2.745352	-2.760414	523.756526	7.784172	0.635385	-0.179569	-0.121313	1.486220
1.980	2.758676	-2.895480	523.919438	7.750092	0.618823	-0.164739	-0.118114	1.479253
1.990	2.761053	-2.956980	524.012445	7.734165	0.605668	-0.151202	-0.115583	1.475951
2.000	2.755028	-2.928621	524.037295	7.739778	0.596593	-0.140140	-0.113846	1.476952
2.010	2.746393	-2.819292	524.004607	7.765263	0.590675	-0.132004	-0.112723	1.481907
2.020	2.741772	-2.658268	523.927380	7.804167	0.585341	-0.126177	-0.111722	1.489551
2.030	2.746643	-2.485215	523.817492	7.846955	0.576774	-0.121068	-0.110110	1.498032
2.040	2.764628	-2.338494	523.687399	7.883800	0.560705	-0.114700	-0.107069	1.505440
2.050	2.797833	-2.245250	523.554517	7.907521	0.533386	-0.105578	-0.101878	1.510353
2.060	2.847251	-2.216013	523.442864	7.915456	0.492547	-0.093407	-0.094098	1.512191
2.070	2.912437	-2.244938	523.378013	7.909417	0.438127	-0.079322	-0.083711	1.511224
2.080	2.990492	-2.314801	523.376425	7.893832	0.372546	-0.065520	-0.071181	1.508251
2.090	3.075206	-2.404235	523.434649	7.873048	0.300338	-0.054457	-0.057378	1.504113
2.100	3.157338	-2.494324	523.524538	7.849028	0.227196	-0.047937	-0.043397	1.499267
2.110	3.226374	-2.572688	523.597906	7.820368	0.158744	-0.046467	-0.030318	1.493583
2.120	3.273277	-2.634738	523.600738	7.782921	0.099437	-0.049138	-0.018991	1.486423
2.130	3.293304	-2.682913	523.493797	7.731710	0.051751	-0.054084	-0.009886	1.476944
2.140	3.288122	-2.724847	523.272725	7.663308	0.015641	-0.059313	-0.002989	1.464496
2.150	3.266642	-2.771007	522.978189	7.577701	-0.011680	-0.063546	0.002233	1.448952
2.160	3.243849	-2.831788	522.688595	7.478833	-0.035378	-0.066721	0.006768	1.430839
2.170	3.237134	-2.914166	522.495449	7.373584	-0.061793	-0.069951	0.011827	1.411225
2.180	3.260887	-3.018743	522.470772	7.269645	-0.096594	-0.074953	0.018488	1.391398
2.190	3.321522	-3.138485	522.640559	7.173264	-0.142965	-0.083175	0.027354	1.372504
2.200	3.415250	-3.260038	522.974787	7.087792	-0.200608	-0.094983	0.038359	1.355284
2.210	3.529450	-3.367382	523.395675	7.013419	-0.265888	-0.109316	0.050800	1.339984
2.220	3.646592	-3.446694	523.798387	6.947844	-0.332788	-0.124018	0.063534	1.326435
2.230	3.748893	-3.490859	524.076248	6.887254	-0.394159	-0.136737	0.075210	1.314170
2.240	3.822350	-3.502211	524.144706	6.827101	-0.442909	-0.145904	0.084501	1.302522
2.250	3.859697	-3.492592	523.960640	6.762537	-0.473167	-0.151288	0.090306	1.290658
2.260	3.862227	-3.480516	523.534038	6.688835	-0.481477	-0.153838	0.091967	1.277631
2.270	3.840302	-3.485927	522.928727	6.602261	-0.467779	-0.155004	0.089454	1.262555
2.280	3.811984	-3.523880	522.250249	6.501508	-0.435716	-0.155961	0.083431	1.244903
2.290	3.799125	-3.599199	521.622544	6.389127	-0.391802	-0.157193	0.075112	1.224856
2.300	3.820932	-3.704142	521.159409	6.272010	-0.343460	-0.158549	0.065903	1.203472
2.310	3.886399	-3.820084	520.939117	6.160346	-0.296587	-0.159613	0.056933	1.182546
2.320	3.988570	-3.922701	520.989975	6.065257	-0.253637	-0.160066	0.048684	1.164179
2.330	4.104057	-3.988996	521.290841	5.995982	-0.213173	-0.159830	0.040893	1.150218
2.340	4.199538	-4.004065	521.785240	5.957614	-0.171115	-0.158954	0.032794	1.141775
2.350	4.243433	-3.965605	522.402772	5.949974	-0.123179	-0.157412	0.023579	1.138963
2.360	4.217821	-3.884830	523.079034	5.967808	-0.067350	-0.154978	0.012876	1.140900
2.370	4.124980	-3.783421	523.766016	6.002162	-0.005175	-0.151317	0.000988	1.145962
2.380	3.985622	-3.687306	524.429313	6.042612	0.058800	-0.146246	-0.011212	1.152226
2.390	3.830246	-3.619048	525.035461	6.079920	0.119156	-0.140017	-0.022695	1.158002
