Time[s]	Fx[N]	Fy[N]	Fz[N]	Mx[Nm]	My[Nm]	Mz[Nm]	COPx[cm]	COPy[cm]
0.010	3.204051	-1.628521	562.745299	-3.531909	18.364043	-0.412630	-3.263296	-0.627621
0.020	3.195397	-1.492098	563.089678	-3.424236	18.347700	-0.409655	-3.258398	-0.608116
0.030	3.184050	-1.362205	563.378192	-3.319736	18.336841	-0.406614	-3.254801	-0.589255
0.040	3.167838	-1.243772	563.573454	-3.220310	18.335584	-0.403401	-3.253451	-0.571409
0.050	3.146488	-1.138443	563.667724	-3.126061	18.345705	-0.400001	-3.254702	-0.554593
0.060	3.121908	-1.044556	563.678850	-3.035874	18.366231	-0.396669	-3.258279	-0.538582
0.070	3.097793	-0.958520	563.637265	-2.948508	18.393837	-0.394042	-3.263418	-0.523122
0.080	3.078625	-0.876942	563.572148	-2.863531	18.423932	-0.393029	-3.269135	-0.508104
0.090	3.068362	-0.798435	563.502695	-2.781734	18.452040	-0.394475	-3.274526	-0.493650
0.100	3.069194	-0.724351	563.436149	-2.705024	18.475010	-0.398758	-3.278989	-0.480094
0.110	3.080747	-0.658300	563.371187	-2.635925	18.491685	-0.405523	-3.282327	-0.467884
0.120	3.100036	-0.604765	563.304069	-2.576839	18.502952	-0.413716	-3.284718	-0.457451
0.130	3.122187	-0.567385	563.234738	-2.529247	18.511291	-0.421888	-3.286603	-0.449057
0.140	3.141717	-0.547628	563.170322	-2.493115	18.520054	-0.428636	-3.288535	-0.442693
0.150	3.153864	-0.544439	563.124225	-2.466750	18.532625	-0.432986	-3.291037	-0.438047
0.160	3.155355	-0.554937	563.110797	-2.447230	18.551584	-0.434608	-3.294482	-0.434591
0.170	3.144364	-0.575559	563.138253	-2.431314	18.578048	-0.433852	-3.299021	-0.431744
0.180	3.120218	-0.602841	563.203931	-2.416484	18.611465	-0.431659	-3.304569	-0.429060
0.190	3.083642	-0.633454	563.294533	-2.401663	18.649993	-0.429350	-3.310878	-0.426360
0.200	3.037561	-0.663847	563.390965	-2.387311	18.691367	-0.428312	-3.317655	-0.423740
0.210	2.987455	-0.690263	563.475156	-2.374914	18.733815	-0.429639	-3.324692	-0.421476
0.220	2.940259	-0.709516	563.535940	-2.366166	18.776559	-0.433840	-3.331919	-0.419879
0.230	2.902004	-0.720117	563.571982	-2.362147	18.819681	-0.440754	-3.339357	-0.419138
0.240	2.875408	-0.722925	563.590891	-2.362742	18.863507	-0.449662	-3.347021	-0.419230
0.250	2.858790	-0.720894	563.604895	-2.366517	18.907926	-0.459529	-3.354819	-0.419889
0.260	2.846849	-0.718129	563.624625	-2.371129	18.952051	-0.469252	-3.362531	-0.420693
0.270	2.832963	-0.718711	563.653336	-2.374119	18.994359	-0.477833	-3.369865	-0.421202
0.280	2.812003	-0.725643	563.683912	-2.373697	19.033249	-0.484457	-3.376582	-0.421104
0.290	2.782419	-0.740022	563.700043	-2.369224	19.067711	-0.488511	-3.382599	-0.420299
0.300	2.746705	-0.760606	563.681424	-2.361292	19.097792	-0.489648	-3.388047	-0.418905
0.310	2.710117	-0.784044	563.611433	-2.351466	19.124642	-0.487903	-3.393232	-0.417214
0.320	2.678278	-0.805935	563.484914	-2.341809	19.150130	-0.483819	-3.398517	-0.415594
0.330	2.654731	-0.822355	563.313295	-2.334284	19.176234	-0.478459	-3.404186	-0.414385
0.340	2.639493	-0.831130	563.124577	-2.330215	19.204499	-0.473189	-3.410346	-0.413801
0.350	2.629145	-0.832267	562.957569	-2.329959	19.235839	-0.469296	-3.416925	-0.413878
0.360	2.618277	-0.827507	562.852149	-2.332876	19.270731	-0.467588	-3.423764	-0.414474
0.370	2.601508	-0.819474	562.838439	-2.337534	19.309538	-0.468175	-3.430743	-0.415312
0.380	2.575309	-0.810933	562.927563	-2.341953	19.352600	-0.470536	-3.437849	-0.416031
0.390	2.539100	-0.804410	563.106504	-2.343887	19.399935	-0.473771	-3.445163	-0.416242
0.400	2.495398	-0.801964	563.339322	-2.341272	19.450748	-0.476863	-3.452759	-0.415606
0.410	2.449067	-0.804830	563.575338	-2.332888	19.503177	-0.478815	-3.460616	-0.413944
0.420	2.405927	-0.812996	563.762240	-2.318902	19.554538	-0.478707	-3.468579	-0.411326
0.430	2.371077	-0.825046	563.860063	-2.300879	19.601953	-0.475815	-3.476386	-0.408059
0.440	2.347345	-0.838364	563.851766	-2.281073	19.643018	-0.469874	-3.483720	-0.404552
0.450	2.334440	-0.849557	563.747429	-2.261304	19.676243	-0.461357	-3.490259	-0.401120
0.460	2.329243	-0.854936	563.581003	-2.242032	19.701244	-0.451518	-3.495725	-0.397819
0.470	2.327267	-0.851003	563.400514	-2.222245	19.718798	-0.442075	-3.499961	-0.394434
0.480	2.324666	-0.834941	563.254366	-2.200248	19.730776	-0.434632	-3.502996	-0.390631
0.490	2.319796	-0.805121	563.177451	-2.174859	19.739880	-0.430129	-3.505091	-0.386177
0.500	2.313577	-0.761809	563.181031	-2.146224	19.749109	-0.428612	-3.506707	-0.381090
0.510	2.308448	-0.708072	563.249783	-2.115785	19.761024	-0.429435	-3.508394	-0.375639
0.520	2.306361	-0.650432	563.347738	-2.085461	19.777052	-0.431732	-3.510630	-0.370191
0.530	2.306870	-0.598352	563.431793	-2.056522	19.797136	-0.434865	-3.513670	-0.364999
0.540	2.306464	-0.561855	563.468109	-2.028759	19.819906	-0.438529	-3.517485	-0.360049
0.550	2.299861	-0.547632	563.444710	-2.000424	19.843293	-0.442481	-3.521782	-0.355035
0.560	2.282939	-0.555292	563.374688	-1.968994	19.865369	-0.446139	-3.526138	-0.349500
0.570	2.255774	-0.575987	563.288615	-1.932281	19.885085	-0.448405	-3.530177	-0.343036
0.580	2.223798	-0.594673	563.219890	-1.889252	19.902593	-0.447941	-3.533716	-0.335438
0.590	2.195894	-0.595352	563.189883	-1.840180	19.919007	-0.443734	-3.536819	-0.326742
0.600	2.180182	-0.566895	563.199750	-1.786187	19.935712	-0.435594	-3.539723	-0.317150
0.610	2.179869	-0.506714	563.232893	-1.728544	19.953608	-0.424217	-3.542692	-0.306897
0.620	2.191532	-0.420827	563.266780	-1.668155	19.972677	-0.410813	-3.545865	-0.296157
0.630	2.206683	-0.320876	563.287590	-1.605497	19.992061	-0.396551	-3.549175	-0.285023
0.640	2.215662	-0.219948	563.299230	-1.541053	20.010508	-0.382155	-3.552376	-0.273576
0.650	2.211929	-0.129009	563.321256	-1.475928	20.026856	-0.367842	-3.555139	-0.262005
0.660	2.194761	-0.054825	563.376571	-1.412241	20.040226	-0.353586	-3.557164	-0.250674
0.670	2.169122	0.000539	563.475782	-1.353032	20.049922	-0.339557	-3.558258	-0.240122
0.680	2.142989	0.038909	563.607362	-1.301745	20.055279	-0.326485	-3.558378	-0.230967
0.690	2.123835	0.064275	563.739508	-1.261541	20.055771	-0.315688	-3.557631	-0.223781
0.700	2.116256	0.080822	563.832691	-1.234684	20.051415	-0.308758	-3.556270	-0.218981
0.710	2.121579	0.091528	563.856371	-1.222137	20.043199	-0.307058	-3.554664	-0.216746
0.720	2.138938	0.097840	563.802286	-1.223396	20.033208	-0.311325	-3.553233	-0.216990
0.730	2.166614	0.100183	563.688974	-1.236596	20.024229	-0.321516	-3.552354	-0.219376
0.740	2.202672	0.098566	563.555600	-1.258982	20.018936	-0.336890	-3.552256	-0.223400
0.750	2.244775	0.092788	563.447172	-1.287713	20.018935	-0.356192	-3.552939	-0.228542
0.760	2.289791	0.082355	563.397184	-1.320758	20.024128	-0.377895	-3.554176	-0.234427
0.770	2.333812	0.066364	563.415123	-1.357454	20.032756	-0.400440	-3.555594	-0.240933
0.780	2.372752	0.043306	563.483666	-1.398441	20.042165	-0.422416	-3.556832	-0.248178
0.790	2.403226	0.010663	563.565838	-1.445046	20.049903	-0.442647	-3.557686	-0.256411
0.800	2.423293	-0.035443	563.618844	-1.498544	20.054520	-0.460210	-3.558171	-0.265879
0.810	2.432850	-0.099954	563.609737	-1.559619	20.055624	-0.474469	-3.558424	-0.276720
0.820	2.433556	-0.187402	563.527658	-1.628156	20.053254	-0.485174	-3.558522	-0.288922
0.830	2.428301	-0.299480	563.388008	-1.703241	20.047093	-0.492577	-3.558310	-0.302321
0.840	2.420411	-0.432719	563.226598	-1.783224	20.036120	-0.497462	-3.557382	-0.316609
0.850	2.413051	-0.577817	563.086433	-1.865788	20.019016	-0.500993	-3.555230	-0.331350
0.860	2.409231	-0.721545	563.003360	-1.948152	19.995134	-0.504379	-3.551512	-0.346029
0.870	2.412166	-0.850726	562.996262	-2.027564	19.965480	-0.508466	-3.546290	-0.360138
0.880	2.425256	-0.956441	563.063667	-2.101969	19.933009	-0.513420	-3.540099	-0.373309
0.890	2.451194	-1.036377	563.185495	-2.170569	19.901895	-0.518691	-3.533808	-0.385409
0.900	2.490567	-1.094237	563.328374	-2.233932	19.875994	-0.523301	-3.528314	-0.396559
0.910	2.540941	-1.136703	563.453794	-2.293626	19.857231	-0.526343	-3.524199	-0.407065
0.920	2.597191	-1.169761	563.528211	-2.351514	19.844792	-0.527442	-3.521526	-0.417284
0.930	2.653103	-1.196368	563.532742	-2.408922	19.835548	-0.526958	-3.519857	-0.427468
0.940	2.703547	-1.216508	563.468967	-2.465933	19.825494	-0.525833	-3.518471	-0.437634
0.950	2.746037	-1.229170	563.358426	-2.521193	19.811417	-0.525192	-3.516663	-0.447529
0.960	2.780826	-1.234779	563.235977	-2.572534	19.792009	-0.525858	-3.513982	-0.456742
0.970	2.809559	-1.236609	563.139492	-2.618341	19.768056	-0.528000	-3.510330	-0.464954
0.980	2.833527	-1.240335	563.098959	-2.658943	19.741866	-0.531062	-3.505932	-0.472198
0.990	2.852786	-1.251903	563.127669	-2.697112	19.716350	-0.534003	-3.501222	-0.478952
1.000	2.866604	-1.274912	563.217877	-2.737140	19.694089	-0.535695	-3.496709	-0.485982
1.010	2.874559	-1.309161	563.342998	-2.782911	19.676658	-0.535273	-3.492838	-0.493999
1.020	2.877146	-1.351276	563.466375	-2.836039	19.664328	-0.532367	-3.489885	-0.503320
1.030	2.875351	-1.396897	563.553065	-2.895158	19.656144	-0.527198	-3.487896	-0.513733
1.040	2.869624	-1.442832	563.579252	-2.956710	19.650361	-0.520555	-3.486708	-0.524631
1.050	2.859202	-1.487862	563.536283	-3.016733	19.645148	-0.513595	-3.486048	-0.535322
1.060	2.842429	-1.531939	563.430703	-3.072683	19.639356	-0.507474	-3.485674	-0.545352
1.070	2.817879	-1.574806	563.283578	-3.124477	19.633048	-0.502940	-3.485464	-0.554690
1.080	2.785583	-1.615441	563.129971	-3.174389	19.627559	-0.500085	-3.485440	-0.563705
1.090	2.747793	-1.652980	563.015496	-3.225971	19.625053	-0.498325	-3.485704	-0.572981
1.100	2.709115	-1.688448	562.986349	-3.282519	19.627744	-0.496557	-3.486362	-0.583055
1.110	2.675969	-1.725871	563.073881	-3.345758	19.637018	-0.493369	-3.487467	-0.594195
1.120	2.655143	-1.771750	563.280467	-3.415232	19.652673	-0.487258	-3.488968	-0.606311
1.130	2.651434	-1.832878	563.574502	-3.488423	19.672535	-0.476910	-3.490672	-0.618982
1.140	2.665227	-1.913418	563.897787	-3.561241	19.692703	-0.461579	-3.492247	-0.631540
1.150	2.691436	-2.012420	564.182301	-3.628655	19.708501	-0.441431	-3.493286	-0.643171
1.160	2.720777	-2.122688	564.369561	-3.685560	19.715855	-0.417665	-3.493430	-0.653040
1.170	2.742966	-2.231472	564.425296	-3.727956	19.712561	-0.392300	-3.492501	-0.660487
1.180	2.750318	-2.322993	564.344666	-3.754191	19.698935	-0.367740	-3.490586	-0.665230
1.190	2.740180	-2.382382	564.147812	-3.765565	19.677625	-0.346330	-3.488027	-0.667478
1.200	2.715387	-2.399965	563.870095	-3.765767	19.652713	-0.330048	-3.485326	-0.667843
1.210	2.682838	-2.374249	563.552827	-3.759229	19.628519	-0.320337	-3.482995	-0.667059
1.220	2.650873	-2.312119	563.237741	-3.749163	19.608604	-0.317925	-3.481408	-0.665645
1.230	2.626392	-2.226022	562.964213	-3.736224	19.595270	-0.322593	-3.480731	-0.663670
1.240	2.612586	-2.129662	562.766043	-3.718338	19.589535	-0.332972	-3.480938	-0.660725
1.250	2.607913	-2.034403	562.665929	-3.691620	19.591319	-0.346615	-3.481874	-0.656095
1.260	2.606688	-1.947662	562.669049	-3.651908	19.599599	-0.360436	-3.483326	-0.649033
1.270	2.601227	-1.872940	562.759864	-3.596289	19.612495	-0.371456	-3.485056	-0.639045
1.280	2.584833	-1.810474	562.906025	-3.524091	19.627389	-0.377599	-3.486797	-0.626053
1.290	2.554483	-1.757938	563.069714	-3.437029	19.641196	-0.378302	-3.488235	-0.610409
1.300	2.512273	-1.711297	563.221447	-3.338559	19.650831	-0.374694	-3.489006	-0.592761
1.310	2.465317	-1.665912	563.348559	-3.232899	19.653761	-0.369227	-3.488739	-0.573872
1.320	2.424202	-1.617692	563.453380	-3.124197	19.648455	-0.364806	-3.487148	-0.554473
1.330	2.400225	-1.563887	563.542926	-3.016082	19.634653	-0.363782	-3.484145	-0.535200
1.340	2.401869	-1.503298	563.617798	-2.911396	19.613427	-0.367194	-3.479916	-0.516555
1.350	2.431526	-1.435919	563.668398	-2.811829	19.587036	-0.374560	-3.474922	-0.498845
1.360	2.483942	-1.362324	563.681071	-2.717500	19.558596	-0.384219	-3.469798	-0.482099
1.370	2.547428	-1.283199	563.649108	-2.626876	19.531629	-0.394036	-3.465211	-0.466048
1.380	2.607561	-1.199270	563.580105	-2.537431	19.509521	-0.402196	-3.461712	-0.450234
1.390	2.651843	-1.111487	563.494523	-2.446975	19.494867	-0.407830	-3.459637	-0.434250
1.400	2.673436	-1.021327	563.417101	-2.355085	19.488779	-0.411269	-3.459032	-0.418000
1.410	2.672642	-0.931299	563.366804	-2.263903	19.490445	-0.413829	-3.459637	-0.401852
1.420	2.655805	-0.845644	563.350191	-2.177808	19.497247	-0.417208	-3.460946	-0.386582
1.430	2.632229	-0.770678	563.360028	-2.102003	19.505476	-0.422764	-3.462346	-0.373119
1.440	2.610442	-0.713897	563.378714	-2.040543	19.511321	-0.430984	-3.463269	-0.362197
1.450	2.595376	-0.681552	563.384916	-1.994613	19.511777	-0.441301	-3.463312	-0.354041
1.460	2.587614	-0.675604	563.361224	-1.961830	19.505233	-0.452281	-3.462296	-0.348237
1.470	2.584747	-0.691806	563.300575	-1.936973	19.491651	-0.462157	-3.460258	-0.343861
1.480	2.583728	-0.720185	563.209561	-1.913897	19.472391	-0.469545	-3.457397	-0.339820
1.490	2.582718	-0.747983	563.107205	-1.887809	19.449714	-0.474081	-3.453998	-0.335249
1.500	2.581652	-0.763845	563.018998	-1.856883	19.426082	-0.476645	-3.450342	-0.329808
1.510	2.581661	-0.761642	562.968099	-1.822477	19.403419	-0.478987	-3.446629	-0.323727
1.520	2.584097	-0.742371	562.967781	-1.788050	19.382615	-0.482916	-3.442935	-0.317611
1.530	2.589924	-0.713329	563.018853	-1.757470	19.363550	-0.489438	-3.439236	-0.312151
1.540	2.599763	-0.684857	563.112412	-1.733623	19.345657	-0.498339	-3.435488	-0.307864
1.550	2.614325	-0.666076	563.234890	-1.717784	19.328644	-0.508376	-3.431720	-0.304985
1.560	2.634656	-0.661486	563.372066	-1.709668	19.312768	-0.517936	-3.428066	-0.303470
1.570	2.661948	-0.669850	563.510958	-1.707732	19.298478	-0.525696	-3.424685	-0.303052
1.580	2.696991	-0.685752	563.640361	-1.709420	19.285705	-0.530968	-3.421633	-0.303282
1.590	2.739540	-0.702911	563.750979	-1.711410	19.273448	-0.533672	-3.418787	-0.303575
1.600	2.787962	-0.717428	563.835215	-1.710129	19.259975	-0.534093	-3.415887	-0.303303
1.610	2.839477	-0.729197	563.886364	-1.702683	19.243514	-0.532634	-3.412658	-0.301955
1.620	2.891022	-0.740808	563.898000	-1.687853	19.222962	-0.529636	-3.408943	-0.299319
1.630	2.940353	-0.754836	563.865254	-1.666547	19.198259	-0.525277	-3.404760	-0.295558
1.640	2.986692	-0.771386	563.788583	-1.641276	19.170376	-0.519566	-3.400277	-0.291115
1.650	3.030381	-0.787469	563.677658	-1.614933	19.141069	-0.512478	-3.395747	-0.286499
1.660	3.071719	-0.798398	563.551364	-1.589641	19.112529	-0.504207	-3.391444	-0.282076
1.670	3.109897	-0.800049	563.432206	-1.566327	19.087007	-0.495358	-3.387632	-0.277997
1.680	3.142816	-0.790548	563.338223	-1.545039	19.066414	-0.486844	-3.384541	-0.274265
1.690	3.167732	-0.770773	563.277693	-1.525554	19.051955	-0.479486	-3.382338	-0.270835
1.700	3.182064	-0.743892	563.248906	-1.507763	19.043892	-0.473593	-3.381079	-0.267690
1.710	3.184014	-0.714542	563.243132	-1.491689	19.041520	-0.468811	-3.380693	-0.264839
1.720	3.173115	-0.687961	563.248236	-1.477232	19.043379	-0.464347	-3.380992	-0.262270
1.730	3.150720	-0.669116	563.252427	-1.463933	19.047651	-0.459395	-3.381725	-0.259907
1.740	3.120050	-0.661741	563.248100	-1.451023	19.052633	-0.453520	-3.382636	-0.257617
1.750	3.085528	-0.667390	563.234320	-1.437797	19.057146	-0.446796	-3.383520	-0.255275
1.760	3.051626	-0.684815	563.216121	-1.424112	19.060731	-0.439601	-3.384266	-0.252853
1.770	3.021792	-0.710013	563.200688	-1.410568	19.063624	-0.432225	-3.384872	-0.250456
1.780	2.997905	-0.737216	563.192746	-1.398211	19.066611	-0.424579	-3.385450	-0.248265
1.790	2.980312	-0.760808	563.192265	-1.387918	19.070867	-0.416266	-3.386209	-0.246438
1.800	2.968276	-0.777531	563.195953	-1.379848	19.077727	-0.407001	-3.387405	-0.245003
1.810	2.960556	-0.787765	563.200895	-1.373258	19.088298	-0.397067	-3.389252	-0.243831
1.820	2.955927	-0.794926	563.206938	-1.366712	19.102968	-0.387437	-3.391820	-0.242666
1.830	2.953504	-0.803177	563.215954	-1.358588	19.121022	-0.379473	-3.394972	-0.241220
1.840	2.952795	-0.814734	563.229263	-1.347639	19.140567	-0.374387	-3.398362	-0.239270
1.850	2.953548	-0.828221	563.245815	-1.333356	19.158861	-0.372795	-3.401510	-0.236727
1.860	2.955479	-0.838783	563.262604	-1.315975	19.173034	-0.374556	-3.403925	-0.233634
1.870	2.958102	-0.839828	563.276942	-1.296155	19.181086	-0.378891	-3.405267	-0.230110
1.880	2.960815	-0.825671	563.289091	-1.274547	19.182856	-0.384647	-3.405508	-0.226269
1.890	2.963249	-0.794102	563.303459	-1.251495	19.180510	-0.390574	-3.405005	-0.222171
1.900	2.965629	-0.747734	563.327121	-1.226994	19.178093	-0.395548	-3.404433	-0.217812
1.910	2.968886	-0.693419	563.365888	-1.200882	19.180213	-0.398751	-3.404575	-0.213162
1.920	2.974325	-0.639762	563.419839	-1.173104	19.190378	-0.399846	-3.406053	-0.208211
1.930	2.982906	-0.593722	563.481004	-1.143904	19.209766	-0.399145	-3.409124	-0.203007
1.940	2.994320	-0.557956	563.535318	-1.113941	19.236936	-0.397665	-3.413617	-0.197670
1.950	3.006351	-0.530395	563.568971	-1.084267	19.268575	-0.396980	-3.419027	-0.192393
1.960	3.015074	-0.506405	563.576509	-1.056104	19.300984	-0.398812	-3.424732	-0.187393
1.970	3.016118	-0.482385	563.566259	-1.030495	19.331665	-0.404426	-3.430238	-0.182852
1.980	3.006550	-0.458679	563.559240	-1.008033	19.360266	-0.414062	-3.435356	-0.178869
1.990	2.986389	-0.440053	563.580940	-0.988880	19.388440	-0.426673	-3.440223	-0.175464
2.000	2.958798	-0.433409	563.649641	-0.972997	19.418823	-0.440177	-3.445194	-0.172624
2.010	2.928808	-0.444062	563.767296	-0.960349	19.453833	-0.452134	-3.450685	-0.170345
2.020	2.901470	-0.472771	563.917312	-0.950812	19.494875	-0.460509	-3.457045	-0.168608
2.030	2.880483	-0.514980	564.069358	-0.943774	19.542054	-0.464192	-3.464477	-0.167315
2.040	2.867667	-0.562271	564.188008	-0.937767	19.594095	-0.463120	-3.472973	-0.166215
2.050	2.862826	-0.604791	564.241664	-0.930556	19.648321	-0.458114	-3.482253	-0.164921
2.060	2.863684	-0.633524	564.209419	-0.919786	19.700857	-0.450627	-3.491763	-0.163022
2.070	2.866070	-0.642066	564.084675	-0.903824	19.747415	-0.442531	-3.500789	-0.160228
2.080	2.864635	-0.627968	563.875231	-0.882331	19.784671	-0.435924	-3.508697	-0.156476
2.090	2.853872	-0.593347	563.600633	-0.856374	19.811731	-0.432822	-3.515207	-0.151947
2.100	2.828954	-0.544249	563.288711	-0.828160	19.830958	-0.434649	-3.520567	-0.147022
2.110	2.786200	-0.488830	562.973102	-0.800571	19.847692	-0.441637	-3.525513	-0.142204
2.120	2.723421	-0.435260	562.691679	-0.776520	19.868908	-0.452473	-3.531047	-0.138001
2.130	2.640440	-0.390390	562.483732	-0.758153	19.901295	-0.464522	-3.538110	-0.134787
2.140	2.539680	-0.359432	562.384006	-0.746108	19.949342	-0.474702	-3.547281	-0.132669
2.150	2.426406	-0.345992	562.414372	-0.739203	20.013985	-0.480664	-3.558583	-0.131434
2.160	2.308182	-0.351689	562.576393	-0.734876	20.092193	-0.481684	-3.571460	-0.130627
2.170	2.193505	-0.375253	562.848044	-0.730328	20.177628	-0.478805	-3.584916	-0.129756
2.180	2.090017	-0.411794	563.186058	-0.723847	20.262237	-0.474175	-3.597787	-0.128527
2.190	2.002957	-0.453130	563.533815	-0.715596	20.338259	-0.469946	-3.609057	-0.126984
2.200	1.934411	-0.489513	563.833382	-0.707396	20.399995	-0.467297	-3.618089	-0.125462
2.210	1.883593	-0.512288	564.038526	-0.701654	20.444803	-0.466061	-3.624717	-0.124398
2.220	1.847915	-0.516409	564.124246	-0.700060	20.473200	-0.465093	-3.629200	-0.124097
2.230	1.824316	-0.501860	564.089488	-0.702784	20.488239	-0.463110	-3.632090	-0.124587
2.240	1.810198	-0.473649	563.953166	-0.708511	20.494440	-0.459493	-3.634068	-0.125633
2.250	1.803710	-0.440453	563.746967	-0.715219	20.496552	-0.454627	-3.635772	-0.126869
2.260	1.803565	-0.412125	563.509106	-0.721261	20.498460	-0.449670	-3.637645	-0.127994
2.270	1.808754	-0.396492	563.280577	-0.726294	20.502489	-0.445947	-3.639836	-0.128940
2.280	1.818211	-0.396546	563.101833	-0.731712	20.509213	-0.444332	-3.642185	-0.129943
2.290	1.830264	-0.409565	563.006669	-0.740388	20.517659	-0.444912	-3.644301	-0.131506
2.300	1.842008	-0.428912	563.012878	-0.755805	20.525769	-0.447058	-3.645701	-0.134243
2.310	1.849269	-0.447711	563.113602	-0.780943	20.530998	-0.449797	-3.645978	-0.138683
