Time[s]	Fx[N]	Fy[N]	Fz[N]	Mx[Nm]	My[Nm]	Mz[Nm]	COPx[cm]	COPy[cm]
0.010	-0.222213	-2.357210	484.336455	-10.858063	24.561198	-0.302214	-5.071102	-2.241843
0.020	-0.456634	-2.469965	482.799117	-10.940764	24.530253	-0.294292	-5.080841	-2.266111
0.030	-0.657357	-2.574042	481.238822	-11.005530	24.486906	-0.287740	-5.088306	-2.286916
0.040	-0.794711	-2.660911	479.647278	-11.039530	24.421862	-0.284050	-5.091629	-2.301593
0.050	-0.848152	-2.723924	478.043277	-11.037975	24.331132	-0.284462	-5.089734	-2.308991
0.060	-0.810833	-2.759255	476.471966	-11.004036	24.216577	-0.289568	-5.082477	-2.309482
0.070	-0.692071	-2.766511	474.994193	-10.946378	24.085052	-0.298930	-5.070599	-2.304529
0.080	-0.516136	-2.748919	473.671023	-10.875875	23.946746	-0.310945	-5.055565	-2.296082
0.090	-0.317027	-2.713143	472.551470	-10.802921	23.813213	-0.323113	-5.039285	-2.286083
0.100	-0.130438	-2.668609	471.669738	-10.735867	23.695364	-0.332722	-5.023719	-2.276141
0.110	0.014844	-2.626080	471.052081	-10.680387	23.601602	-0.337742	-5.010402	-2.267347
0.120	0.103687	-2.595426	470.726682	-10.639185	23.536445	-0.337554	-5.000024	-2.260162
0.130	0.137616	-2.583011	470.727874	-10.611637	23.500059	-0.333241	-4.992281	-2.254304
0.140	0.133253	-2.589368	471.089524	-10.593491	23.488838	-0.327301	-4.986067	-2.248721
0.150	0.116518	-2.607918	471.828624	-10.577120	23.496715	-0.322926	-4.979926	-2.241729
0.160	0.113893	-2.625438	472.925264	-10.552750	23.516618	-0.323103	-4.972587	-2.231378
0.170	0.143022	-2.624670	474.307597	-10.510452	23.541652	-0.329822	-4.963372	-2.215957
0.180	0.205727	-2.588479	475.849616	-10.442176	23.565818	-0.343639	-4.952367	-2.194428
0.190	0.286371	-2.503882	477.385659	-10.343066	23.584370	-0.363659	-4.940318	-2.166606
0.200	0.356745	-2.364150	478.739473	-10.211728	23.593962	-0.387916	-4.928351	-2.133045
0.210	0.386042	-2.168290	479.759498	-10.049562	23.592654	-0.413953	-4.917600	-2.094708
0.220	0.352343	-1.918962	480.348892	-9.859572	23.579735	-0.439380	-4.908877	-2.052585
0.230	0.251429	-1.620874	480.480796	-9.645115	23.555354	-0.462205	-4.902455	-2.007388
0.240	0.099537	-1.281173	480.195298	-9.409074	23.520072	-0.480902	-4.898022	-1.959427
0.250	-0.071223	-0.911566	479.581158	-9.153802	23.474512	-0.494379	-4.894794	-1.908708
0.260	-0.223104	-0.530379	478.749540	-8.881862	23.419231	-0.502043	-4.891750	-1.855221
0.270	-0.324680	-0.162372	477.807927	-8.597074	23.354901	-0.504052	-4.887927	-1.799274
0.280	-0.360333	0.164918	476.840767	-8.305029	23.282732	-0.501604	-4.882706	-1.741678
0.290	-0.334546	0.428011	475.900755	-8.012417	23.204960	-0.496998	-4.876008	-1.683632
0.300	-0.270113	0.615572	475.011617	-7.725163	23.125078	-0.493258	-4.868318	-1.626310
0.310	-0.200904	0.734652	474.180024	-7.446193	23.047605	-0.493369	-4.860518	-1.570330
0.320	-0.161297	0.811861	473.411639	-7.173980	22.977395	-0.499457	-4.853576	-1.515379
0.330	-0.175490	0.887417	472.725465	-6.902762	22.918673	-0.512272	-4.848199	-1.460205
0.340	-0.249976	1.002801	472.161678	-6.624638	22.874107	-0.531115	-4.844550	-1.403044
0.350	-0.371217	1.185896	471.779778	-6.332954	22.844094	-0.554126	-4.842110	-1.342354
0.360	-0.508840	1.439570	471.645987	-6.025852	22.826415	-0.578749	-4.839735	-1.277622
0.370	-0.623414	1.738830	471.812311	-5.708598	22.816325	-0.602212	-4.835890	-1.209930
0.380	-0.677011	2.038394	472.294081	-5.393571	22.807180	-0.621965	-4.829021	-1.141994
0.390	-0.643990	2.288064	473.055375	-5.097631	22.791658	-0.636017	-4.817968	-1.077597
0.400	-0.518714	2.450044	474.009867	-4.837649	22.763366	-0.643195	-4.802298	-1.020580
0.410	-0.317177	2.511506	475.038079	-4.625794	22.718354	-0.643283	-4.782428	-0.973773
0.420	-0.071399	2.487888	476.014123	-4.466220	22.655902	-0.637066	-4.759502	-0.938254
0.430	0.181362	2.416212	476.830958	-4.354291	22.578267	-0.626209	-4.735067	-0.913173
0.440	0.409973	2.341591	477.415633	-4.278547	22.489558	-0.612987	-4.710687	-0.896189
0.450	0.596505	2.302344	477.732519	-4.224616	22.394340	-0.599923	-4.687631	-0.884306
0.460	0.736557	2.319071	477.778020	-4.179567	22.296564	-0.589421	-4.666720	-0.874793
0.470	0.834104	2.390958	477.571997	-4.135099	22.199096	-0.583401	-4.648324	-0.865859
0.480	0.895015	2.499603	477.150728	-4.088619	22.103772	-0.582896	-4.632451	-0.856882
0.490	0.923486	2.618077	476.564740	-4.042222	22.011711	-0.587712	-4.618829	-0.848200
0.500	0.922810	2.721466	475.881374	-4.000415	21.923603	-0.596344	-4.606947	-0.840633
0.510	0.898453	2.794994	475.186922	-3.967697	21.839809	-0.606299	-4.596046	-0.834976
0.520	0.859944	2.837009	474.581034	-3.946825	21.760284	-0.614784	-4.585157	-0.831644
0.530	0.819550	2.856302	474.159905	-3.938123	21.684430	-0.619503	-4.573231	-0.830547
0.540	0.788475	2.865487	473.992248	-3.939761	21.611020	-0.619276	-4.559362	-0.831187
0.550	0.773086	2.873750	474.097682	-3.948722	21.538260	-0.614230	-4.543000	-0.832892
0.560	0.773475	2.882307	474.437856	-3.962042	21.464069	-0.605460	-4.524105	-0.835102
0.570	0.785022	2.884185	474.925677	-3.977922	21.386611	-0.594335	-4.503149	-0.837588
0.580	0.801846	2.867678	475.449837	-3.996450	21.304893	-0.581833	-4.480997	-0.840562
0.590	0.820164	2.821439	475.905029	-4.019866	21.219144	-0.568312	-4.458693	-0.844678
0.600	0.839868	2.739067	476.216783	-4.052324	21.130785	-0.553815	-4.437220	-0.850941
0.610	0.863785	2.621599	476.353670	-4.099143	21.042036	-0.538635	-4.417314	-0.860525
0.620	0.895397	2.477228	476.325706	-4.165500	20.955387	-0.523653	-4.399382	-0.874507
0.630	0.936523	2.318706	476.172697	-4.254762	20.873151	-0.510165	-4.383525	-0.893533
0.640	0.986025	2.159771	475.948463	-4.366882	20.797130	-0.499289	-4.369618	-0.917512
0.650	1.039710	2.012086	475.706540	-4.497549	20.728352	-0.491368	-4.357382	-0.945446
0.660	1.091071	1.883564	475.490958	-4.638672	20.666885	-0.485759	-4.346431	-0.975554
0.670	1.132526	1.778148	475.332802	-4.780299	20.611866	-0.481152	-4.336302	-1.005674
0.680	1.157014	1.696538	475.250910	-4.913312	20.561885	-0.476273	-4.326532	-1.033835
0.690	1.159744	1.637208	475.254646	-5.031800	20.515667	-0.470603	-4.316773	-1.058759
0.700	1.139671	1.597348	475.347409	-5.134135	20.472687	-0.464729	-4.306889	-1.080081
0.710	1.099949	1.573770	475.529733	-5.222382	20.433310	-0.460122	-4.296957	-1.098224
0.720	1.046683	1.563788	475.800639	-5.300480	20.398224	-0.458445	-4.287137	-1.114013
0.730	0.986338	1.565854	476.156516	-5.372168	20.367398	-0.460724	-4.277459	-1.128236
0.740	0.923461	1.579471	476.588324	-5.439684	20.339046	-0.466760	-4.267634	-1.141380
0.750	0.860401	1.604245	477.078815	-5.503702	20.309083	-0.475051	-4.256966	-1.153625
0.760	0.799010	1.638609	477.601667	-5.564271	20.271269	-0.483257	-4.244388	-1.165044
0.770	0.742548	1.679209	478.124583	-5.622071	20.218006	-0.489050	-4.228606	-1.175859
0.780	0.696042	1.721523	478.617299	-5.679392	20.141585	-0.490956	-4.208286	-1.186625
0.790	0.665145	1.761092	479.061869	-5.740471	20.035540	-0.488776	-4.182245	-1.198273
0.800	0.655104	1.793977	479.458663	-5.810973	19.895676	-0.483385	-4.149612	-1.211986
0.810	0.671130	1.815466	479.821759	-5.896613	19.720531	-0.476054	-4.109970	-1.228917
0.820	0.719539	1.817376	480.163375	-6.001281	19.511291	-0.467699	-4.063469	-1.249841
0.830	0.807741	1.785704	480.474758	-6.125453	19.271365	-0.458492	-4.010901	-1.274875
0.840	0.941958	1.700876	480.715061	-6.265697	19.005727	-0.447999	-3.953637	-1.303412
0.850	1.123800	1.542140	480.816482	-6.415482	18.720121	-0.435706	-3.893403	-1.334289
0.860	1.348051	1.295611	480.704904	-6.566848	18.420290	-0.421574	-3.831933	-1.366087
0.870	1.603024	0.963221	480.326489	-6.712088	18.111514	-0.406273	-3.770667	-1.397401
0.880	1.872880	0.568448	479.668166	-6.844818	17.798597	-0.391015	-3.710606	-1.426990
0.890	2.140315	0.155450	478.764305	-6.960329	17.486158	-0.377161	-3.652352	-1.453811
0.900	2.388766	-0.219097	477.688809	-7.055614	17.178809	-0.365896	-3.596234	-1.477031
0.910	2.604488	-0.498964	476.537591	-7.129632	16.880912	-0.358064	-3.542409	-1.496132
0.920	2.779006	-0.641933	475.409157	-7.183935	16.595907	-0.354105	-3.490868	-1.511106
0.930	2.911457	-0.629893	474.389855	-7.223234	16.325552	-0.354010	-3.441379	-1.522637
0.940	3.009450	-0.472790	473.545588	-7.255208	16.069586	-0.357315	-3.393461	-1.532103
0.950	3.087357	-0.205629	472.917532	-7.289285	15.826154	-0.363162	-3.346493	-1.541344
0.960	3.162278	0.120285	472.519432	-7.334755	15.592851	-0.370415	-3.299939	-1.552265
0.970	3.249180	0.449156	472.337454	-7.399019	15.367838	-0.377782	-3.253572	-1.566469
0.980	3.357129	0.732208	472.335471	-7.486549	15.150501	-0.383895	-3.207572	-1.585007
0.990	3.487900	0.936100	472.466028	-7.598702	14.941457	-0.387397	-3.162440	-1.608307
1.000	3.636911	1.046775	472.682802	-7.734100	14.742125	-0.387044	-3.118820	-1.636214
1.010	3.795391	1.068647	472.949294	-7.889247	14.554185	-0.381871	-3.077325	-1.668096
1.020	3.952655	1.019985	473.241682	-8.059166	14.379186	-0.371441	-3.038444	-1.702970
1.030	4.098081	0.925895	473.547353	-8.238065	14.218286	-0.356130	-3.002506	-1.739650
1.040	4.222886	0.810773	473.861763	-8.420050	14.072014	-0.337299	-2.969645	-1.776900
1.050	4.321495	0.692239	474.185290	-8.599819	13.940004	-0.317160	-2.939780	-1.813599
1.060	4.391940	0.578165	474.520351	-8.773207	13.820906	-0.298245	-2.912605	-1.848858
1.070	4.435021	0.467414	474.868031	-8.937546	13.712627	-0.282615	-2.887671	-1.882111
1.080	4.452934	0.353700	475.224119	-9.091858	13.612855	-0.271185	-2.864513	-1.913173
1.090	4.448608	0.230794	475.576105	-9.236773	13.519628	-0.263480	-2.842790	-1.942228
1.100	4.426315	0.096707	475.903111	-9.374021	13.431717	-0.257937	-2.822364	-1.969733
1.110	4.392670	-0.044937	476.179433	-9.505620	13.348711	-0.252551	-2.803294	-1.996227
1.120	4.356397	-0.186620	476.380623	-9.633036	13.270796	-0.245567	-2.785755	-2.022130
1.130	4.326244	-0.320277	476.489570	-9.756676	13.198327	-0.235993	-2.769909	-2.047616
1.140	4.308135	-0.440135	476.499499	-9.875859	13.131341	-0.223828	-2.755793	-2.072585
1.150	4.303372	-0.543762	476.412731	-9.989215	13.069194	-0.210045	-2.743250	-2.096757
1.160	4.308886	-0.631711	476.237659	-10.095334	13.010540	-0.196361	-2.731943	-2.119810
1.170	4.319160	-0.706870	475.988233	-10.193522	12.953660	-0.184811	-2.721424	-2.141549
1.180	4.328657	-0.773892	475.688001	-10.284520	12.896924	-0.177223	-2.711215	-2.162031
1.190	4.333775	-0.838288	475.375955	-10.371056	12.839075	-0.174715	-2.700826	-2.181654
1.200	4.333945	-0.904891	475.108092	-10.457942	12.779197	-0.177356	-2.689745	-2.201171
1.210	4.331853	-0.976180	474.949766	-10.551444	12.716560	-0.184122	-2.677454	-2.221591
1.220	4.332939	-1.051348	474.958975	-10.657839	12.650651	-0.193179	-2.663525	-2.243949
1.230	4.344279	-1.126741	475.166357	-10.781550	12.581454	-0.202417	-2.647800	-2.269005
1.240	4.372950	-1.197617	475.560485	-10.923570	12.509793	-0.210051	-2.630537	-2.296989
1.250	4.424021	-1.260618	476.085307	-11.080893	12.437484	-0.215050	-2.612449	-2.327501
1.260	4.498685	-1.316014	476.650886	-11.247157	12.367120	-0.217271	-2.594587	-2.359621
1.270	4.593348	-1.368745	477.153037	-11.414260	12.301490	-0.217284	-2.578101	-2.392159
1.280	4.700110	-1.427694	477.495285	-11.574358	12.242817	-0.216008	-2.563966	-2.423973
1.290	4.808321	-1.503458	477.607653	-11.721662	12.192197	-0.214339	-2.552764	-2.454245
1.300	4.906544	-1.605604	477.458688	-11.853632	12.149536	-0.212880	-2.544626	-2.482651
1.310	4.984672	-1.740559	477.058712	-11.971389	12.114035	-0.211800	-2.539317	-2.509416
1.320	5.036194	-1.910830	476.453865	-12.079375	12.084976	-0.210793	-2.536442	-2.535266
1.330	5.060067	-2.115581	475.712560	-12.184390	12.062578	-0.209121	-2.535686	-2.561292
1.340	5.060822	-2.352017	474.908240	-12.294177	12.048773	-0.205814	-2.537074	-2.588748
1.350	5.045719	-2.616734	474.103482	-12.415675	12.047815	-0.200037	-2.541178	-2.618769
1.360	5.019497	-2.906093	473.339599	-12.553233	12.066396	-0.191613	-2.549205	-2.652056
1.370	4.979304	-3.215001	472.634071	-12.707251	12.112886	-0.181478	-2.562846	-2.688602
1.380	4.913177	-3.534261	471.986487	-12.873723	12.195583	-0.171781	-2.583884	-2.727562
1.390	4.803916	-3.847813	471.391544	-13.044911	12.320460	-0.165431	-2.613636	-2.767320
1.400	4.637145	-4.131888	470.854287	-13.210876	12.489245	-0.165246	-2.652465	-2.805725
1.410	4.409729	-4.357543	470.400648	-13.361374	12.698653	-0.173147	-2.699540	-2.840424
1.420	4.134250	-4.496357	470.078073	-13.487520	12.941086	-0.189815	-2.752965	-2.869209
1.430	3.837114	-4.527435	469.946033	-13.582872	13.206648	-0.214852	-2.810248	-2.890305
1.440	3.550788	-4.443173	470.060766	-13.643824	13.485751	-0.247172	-2.868938	-2.902566
1.450	3.303424	-4.251811	470.460095	-13.669511	13.771410	-0.285227	-2.927222	-2.905562
1.460	3.110151	-3.976085	471.153189	-13.661473	14.060400	-0.326938	-2.984252	-2.899582
1.470	2.969435	-3.648704	472.118026	-13.623211	14.352877	-0.369478	-3.040104	-2.885552
1.480	2.865539	-3.306200	473.306520	-13.559577	14.650609	-0.409198	-3.095375	-2.864862
1.490	2.775710	-2.982708	474.654368	-13.475973	14.954516	-0.441954	-3.150612	-2.839113
1.500	2.679048	-2.704816	476.091316	-13.377402	15.262531	-0.463848	-3.205799	-2.809840
1.510	2.563472	-2.488189	477.548581	-13.267441	15.568741	-0.472201	-3.260138	-2.778239
1.520	2.428097	-2.336499	478.962007	-13.147277	15.864228	-0.466380	-3.312210	-2.744952
1.530	2.280574	-2.242816	480.270707	-13.015097	16.139303	-0.448126	-3.360460	-2.709950
1.540	2.131580	-2.192924	481.412632	-12.866339	16.386095	-0.421209	-3.403753	-2.672622
1.550	1.989929	-2.169307	482.321114	-12.695084	16.600322	-0.390462	-3.441757	-2.632081
1.560	1.860728	-2.154458	482.927385	-12.496312	16.781545	-0.360587	-3.474962	-2.587617
1.570	1.746500	-2.132713	483.171269	-12.268111	16.932059	-0.335204	-3.504360	-2.539081
1.580	1.649143	-2.090726	483.016889	-12.012754	17.055259	-0.316479	-3.530986	-2.487026
1.590	1.570651	-2.017452	482.465886	-11.736090	17.154436	-0.305289	-3.555575	-2.432522
1.600	1.512303	-1.904614	481.561014	-11.445585	17.232520	-0.301577	-3.578471	-2.376767
1.610	1.473751	-1.747951	480.378455	-11.148099	17.292531	-0.304553	-3.599772	-2.320691
1.620	1.453456	-1.548641	479.013814	-10.848498	17.338104	-0.312690	-3.619542	-2.264757
1.630	1.450352	-1.313922	477.568636	-10.549535	17.373629	-0.323696	-3.637933	-2.209009
1.640	1.465057	-1.056341	476.141055	-10.252667	17.404065	-0.334728	-3.655233	-2.153284
1.650	1.498854	-0.791633	474.819757	-9.959137	17.434772	-0.342880	-3.671872	-2.097456
1.660	1.550309	-0.535733	473.678323	-9.670685	17.471458	-0.345844	-3.688465	-2.041615
1.670	1.611643	-0.301748	472.768091	-9.389535	17.520065	-0.342532	-3.705848	-1.986076
1.680	1.667723	-0.098027	472.110768	-9.117731	17.586332	-0.333534	-3.725044	-1.931269
1.690	1.698979	0.071909	471.695008	-8.856259	17.675008	-0.321209	-3.747126	-1.877539
1.700	1.686931	0.207928	471.481204	-8.604463	17.789046	-0.309266	-3.773013	-1.824985
1.710	1.619528	0.311849	471.415658	-8.360043	17.929252	-0.301835	-3.803279	-1.773391
1.720	1.494175	0.387561	471.450931	-8.119664	18.094638	-0.302353	-3.838075	-1.722271
1.730	1.318054	0.442979	471.565789	-7.879948	18.283157	-0.312637	-3.877117	-1.671018
1.740	1.106596	0.492181	471.776881	-7.638514	18.492146	-0.332473	-3.919680	-1.619095
1.750	0.881040	0.555295	472.135788	-7.394768	18.718073	-0.359759	-3.964553	-1.566238
1.760	0.665499	0.654689	472.709955	-7.150264	18.955864	-0.391066	-4.010041	-1.512611
1.770	0.483404	0.808175	473.553129	-6.908539	19.198559	-0.422389	-4.054151	-1.458873
1.780	0.353052	1.021727	474.676416	-6.674404	19.437802	-0.449966	-4.094959	-1.406095
1.790	0.282463	1.284754	476.031334	-6.452743	19.665099	-0.471099	-4.131051	-1.355529
1.800	0.264971	1.570253	477.511684	-6.247161	19.873285	-0.484809	-4.161843	-1.308274
1.810	0.278083	1.840579	478.973970	-6.058908	20.057581	-0.492021	-4.187614	-1.264977
1.820	0.287735	2.057511	480.269216	-5.886404	20.215809	-0.495119	-4.209266	-1.225647
1.830	0.257654	2.193669	481.275062	-5.725320	20.347817	-0.497019	-4.227898	-1.189615
1.840	0.160560	2.241536	481.917844	-5.569040	20.454566	-0.500179	-4.244409	-1.155600
1.850	-0.013359	2.216904	482.179553	-5.409412	20.537448	-0.505947	-4.259295	-1.121867
1.860	-0.253976	2.155321	482.091093	-5.237806	20.598008	-0.514408	-4.272638	-1.086476
1.870	-0.535081	2.102728	481.717545	-5.046353	20.637858	-0.524651	-4.284224	-1.047575
1.880	-0.822209	2.103639	481.141590	-4.829082	20.658470	-0.535278	-4.293636	-1.003672
1.890	-1.081043	2.190783	480.449012	-4.582681	20.660780	-0.544963	-4.300306	-0.953833
1.900	-1.283624	2.378994	479.717600	-4.306869	20.644812	-0.552921	-4.303534	-0.897792
1.910	-1.411077	2.664016	479.008752	-4.004562	20.609619	-0.559125	-4.302556	-0.836010
1.920	-1.453182	3.025126	478.360886	-3.681971	20.553579	-0.564200	-4.296668	-0.769706
1.930	-1.406295	3.430005	477.785924	-3.348446	20.474870	-0.569013	-4.285365	-0.700825
1.940	-1.271553	3.840672	477.272096	-3.015763	20.371992	-0.574151	-4.268423	-0.631875
1.950	-1.054751	4.219813	476.794481	-2.696653	20.244356	-0.579512	-4.245929	-0.565580
1.960	-0.767886	4.536817	476.329613	-2.402721	20.092997	-0.584244	-4.218297	-0.504424
1.970	-0.430976	4.772471	475.867265	-2.142318	19.921210	-0.587091	-4.186296	-0.450192
1.980	-0.072180	4.921365	475.414690	-1.919162	19.734643	-0.586991	-4.151038	-0.403682
1.990	0.275306	4.991756	474.993507	-1.732330	19.540459	-0.583644	-4.113837	-0.364706
2.000	0.579700	5.003331	474.632377	-1.577570	19.345672	-0.577787	-4.075928	-0.332377
2.010	0.818747	4.983446	474.358302	-1.449255	19.155401	-0.571076	-4.038171	-0.305519
2.020	0.986198	4.962155	474.188176	-1.342109	18.971953	-0.565665	-4.000933	-0.283033
2.030	1.093410	4.966503	474.122310	-1.252233	18.795097	-0.563649	-3.964188	-0.264116
2.040	1.164856	5.015120	474.142451	-1.177438	18.623234	-0.566572	-3.927772	-0.248330
2.050	1.229419	5.114520	474.216211	-1.117160	18.454750	-0.575074	-3.891632	-0.235580
2.060	1.311189	5.258181	474.306816	-1.072271	18.289002	-0.588746	-3.855943	-0.226071
2.070	1.423149	5.428565	474.383724	-1.045034	18.126686	-0.606157	-3.821102	-0.220293
2.080	1.565201	5.601262	474.429199	-1.039287	17.969681	-0.625000	-3.787642	-0.219060
2.090	1.725978	5.749854	474.438730	-1.060565	17.820577	-0.642358	-3.756139	-0.223541
2.100	1.886992	5.850215	474.416494	-1.115627	17.682142	-0.655114	-3.727135	-0.235158
2.110	2.027679	5.883615	474.368697	-1.211074	17.556889	-0.660555	-3.701106	-0.255302
2.120	2.130339	5.838704	474.298129	-1.351426	17.446831	-0.657094	-3.678452	-0.284932
2.130	2.184419	5.712736	474.203357	-1.537542	17.353365	-0.644832	-3.659477	-0.324237
2.140	2.189888	5.512076	474.083984	-1.766056	17.277162	-0.625652	-3.644325	-0.372520
2.150	2.159296	5.251471	473.949177	-2.029900	17.217919	-0.602717	-3.632862	-0.428295
2.160	2.117567	4.951597	473.823422	-2.319485	17.174016	-0.579535	-3.624560	-0.489525
2.170	2.098278	4.635246	473.744493	-2.624116	17.142342	-0.558976	-3.618478	-0.553910
2.180	2.136013	4.323510	473.753196	-2.933342	17.118610	-0.542629	-3.613402	-0.619171
2.190	2.256308	4.033347	473.879334	-3.238097	17.098205	-0.530711	-3.608135	-0.683317
2.200	2.466664	3.777021	474.130515	-3.531526	17.077199	-0.522458	-3.601793	-0.744843
2.210	2.752587	3.562773	474.488867	-3.809454	17.053032	-0.516742	-3.593979	-0.802854
2.220	3.080899	3.395588	474.916475	-4.070395	17.024719	-0.512629	-3.584782	-0.857076
2.230	3.409327	3.277296	475.366283	-4.314957	16.992770	-0.509696	-3.574669	-0.907712
2.240	3.698536	3.206188	475.793146	-4.544685	16.959077	-0.508094	-3.564380	-0.955181
2.250	3.921950	3.176906	476.160506	-4.760786	16.926750	-0.508395	-3.554841	-0.999828
2.260	4.069997	3.181111	476.441170	-4.963481	16.899752	-0.511267	-3.547081	-1.041783
2.270	4.148221	3.208770	476.614257	-5.152397	16.882205	-0.517095	-3.542111	-1.081041
2.280	4.171392	3.249541	476.662483	-5.327829	16.877428	-0.525675	-3.540750	-1.117736
2.290	4.156782	3.293788	476.573417	-5.492111	16.887042	-0.536155	-3.543429	-1.152417
2.300	4.118848	3.332898	476.345071	-5.650337	16.910536	-0.547232	-3.550060	-1.186186
2.310	4.066208	3.358836	475.991916	-5.810039	16.945646	-0.557512	-3.560070	-1.220617
2.320	4.001292	3.363246	475.545793	-5.979957	16.989489	-0.565815	-3.572629	-1.257493
