Time[s]	Fx[N]	Fy[N]	Fz[N]	Mx[Nm]	My[Nm]	Mz[Nm]	COPx[cm]	COPy[cm]
0.010	5.060633	0.666253	534.315168	-8.860433	-13.405667	0.196390	2.508944	-1.658278
0.020	5.117702	0.670231	534.763366	-9.139508	-13.299379	0.231008	2.486965	-1.709075
0.030	5.121303	0.682981	535.169938	-9.430968	-13.186453	0.262961	2.463975	-1.762238
0.040	5.040977	0.698585	535.527077	-9.743288	-13.062215	0.290316	2.439133	-1.819383
0.050	4.879229	0.693694	535.892750	-10.078164	-12.925081	0.312003	2.411878	-1.880631
0.060	4.668638	0.633317	536.390414	-10.429552	-12.776999	0.328126	2.382033	-1.944396
0.070	4.455640	0.485120	537.175544	-10.785163	-12.622549	0.339998	2.349800	-2.007754
0.080	4.278692	0.235355	538.379637	-11.129949	-12.466917	0.349704	2.315637	-2.067305
0.090	4.151249	-0.101272	540.056094	-11.450312	-12.313855	0.359211	2.280107	-2.120208
0.100	4.057575	-0.482143	542.151791	-11.737575	-12.164891	0.369333	2.243816	-2.164998
0.110	3.962448	-0.847139	544.512955	-11.989750	-12.020218	0.379112	2.207517	-2.201922
0.120	3.828556	-1.134784	546.916736	-12.211508	-11.880449	0.386058	2.172259	-2.232791
0.130	3.632333	-1.298973	549.113094	-12.412876	-11.747857	0.387294	2.139424	-2.260532
0.140	3.371865	-1.321696	550.865949	-12.607151	-11.626239	0.381086	2.110539	-2.288606
0.150	3.066301	-1.218698	551.989333	-12.808303	-11.519615	0.367977	2.086927	-2.320390
0.160	2.750218	-1.036991	552.376586	-13.028088	-11.430682	0.350912	2.069364	-2.358552
0.170	2.466331	-0.845010	552.018847	-13.273427	-11.359903	0.334282	2.057883	-2.404524
0.180	2.257466	-0.717391	551.007135	-13.544840	-11.305564	0.322383	2.051800	-2.458197
0.190	2.157381	-0.717085	549.513336	-13.836558	-11.264532	0.318010	2.049911	-2.517966
0.200	2.181236	-0.878394	547.750630	-14.138305	-11.233125	0.321820	2.050773	-2.581157
0.210	2.318871	-1.195559	545.922501	-14.438201	-11.207622	0.332581	2.052969	-2.644735
0.220	2.534801	-1.621573	544.176760	-14.725974	-11.184337	0.347981	2.055277	-2.706101
0.230	2.776692	-2.079621	542.581363	-14.995757	-11.159580	0.365449	2.056757	-2.763780
0.240	2.990043	-2.485015	541.130615	-15.247897	-11.129918	0.382638	2.056789	-2.817785
0.250	3.133514	-2.771034	539.778060	-15.489340	-11.092839	0.397531	2.055074	-2.869576
0.260	3.189340	-2.910231	538.482576	-15.732180	-11.047582	0.408382	2.051614	-2.921576
0.270	3.166117	-2.924115	537.251119	-15.990251	-10.995691	0.413714	2.046658	-2.976309
0.280	3.094586	-2.877603	536.164110	-16.274315	-10.940977	0.412530	2.040602	-3.035323
0.290	3.018616	-2.859096	535.374232	-16.587320	-10.888832	0.404695	2.033873	-3.098266
0.300	2.983410	-2.951560	535.074934	-16.921759	-10.845094	0.391321	2.026837	-3.162503
0.310	3.022770	-3.203668	535.443224	-17.260641	-10.814733	0.374845	2.019772	-3.223617
0.320	3.148114	-3.611263	536.572973	-17.582107	-10.800615	0.358542	2.012888	-3.276741
0.330	3.343056	-4.116807	538.424225	-17.865933	-10.802610	0.345440	2.006338	-3.318189
0.340	3.566671	-4.627799	540.811812	-18.099264	-10.817309	0.337000	2.000198	-3.346684
0.350	3.765430	-5.047229	543.440645	-18.279446	-10.838556	0.332241	1.994432	-3.363651
0.360	3.889783	-5.304337	545.974129	-18.413480	-10.858748	0.327954	1.988876	-3.372592
0.370	3.909100	-5.374743	548.108959	-18.514950	-10.870589	0.320066	1.983290	-3.377969
0.380	3.819720	-5.284100	549.630356	-18.599754	-10.868821	0.305471	1.977478	-3.384048
0.390	3.644277	-5.095620	550.434053	-18.681679	-10.851375	0.283347	1.971422	-3.393990
0.400	3.424161	-4.886982	550.517403	-18.768622	-10.819600	0.255271	1.965351	-3.409270
0.410	3.208848	-4.725168	549.953484	-18.860292	-10.777545	0.224198	1.959719	-3.429434
0.420	3.045517	-4.647788	548.863938	-18.948119	-10.730669	0.192926	1.955069	-3.452243
0.430	2.970727	-4.656256	547.399375	-19.017695	-10.684444	0.162913	1.951855	-3.474190
0.440	3.004564	-4.721220	545.726496	-19.053232	-10.643190	0.133975	1.950279	-3.491352
0.450	3.147334	-4.796410	544.015510	-19.042606	-10.609272	0.104936	1.950178	-3.500379
0.460	3.379326	-4.835247	542.422663	-18.981179	-10.582725	0.074748	1.951011	-3.499334
0.470	3.664341	-4.804921	541.068910	-18.873053	-10.561404	0.043409	1.951952	-3.488105
0.480	3.957049	-4.694279	540.022072	-18.729675	-10.541653	0.012213	1.952078	-3.468317
0.490	4.213070	-4.514105	539.291547	-18.566784	-10.519277	-0.016721	1.950573	-3.442810
0.500	4.399339	-4.290971	538.840030	-18.401069	-10.490454	-0.041256	1.946859	-3.414941
0.510	4.501598	-4.057804	538.608018	-18.247340	-10.452326	-0.059925	1.940618	-3.387870
0.520	4.526214	-3.844749	538.539877	-18.116331	-10.403204	-0.072226	1.931743	-3.363972
0.530	4.495318	-3.672772	538.600121	-18.013004	-10.342450	-0.078534	1.920246	-3.344412
0.540	4.436990	-3.550910	538.775336	-17.935536	-10.270049	-0.079794	1.906184	-3.328945
0.550	4.374335	-3.476875	539.065446	-17.875516	-10.185974	-0.077157	1.889562	-3.316020
0.560	4.317679	-3.440059	539.471438	-17.819735	-10.089562	-0.071667	1.870268	-3.303184
0.570	4.262555	-3.425564	539.984834	-17.753293	-9.979326	-0.064046	1.848075	-3.287739
0.580	4.193477	-3.417815	540.581361	-17.663083	-9.853470	-0.054622	1.822754	-3.267424
0.590	4.091360	-3.402726	541.220204	-17.540344	-9.710904	-0.043464	1.794261	-3.240889
0.600	3.941534	-3.368147	541.849668	-17.381236	-9.552188	-0.030676	1.762885	-3.207760
0.610	3.739747	-3.302874	542.417865	-17.185227	-9.379889	-0.016738	1.729274	-3.168263
0.620	3.494387	-3.194807	542.884209	-16.952243	-9.198246	-0.002627	1.694329	-3.122626
0.630	3.224463	-3.029315	543.227429	-16.680305	-9.012411	0.010460	1.659049	-3.070593
0.640	2.954500	-2.789375	543.449128	-16.365142	-8.827680	0.021672	1.624380	-3.011348
0.650	2.708708	-2.458870	543.575092	-16.002245	-8.649082	0.030998	1.591148	-2.943889
0.660	2.506592	-2.029059	543.655888	-15.590455	-8.481424	0.039320	1.560072	-2.867707
0.670	2.360622	-1.506146	543.764427	-15.135291	-8.329529	0.047997	1.531827	-2.783428
0.680	2.275366	-0.916353	543.985431	-14.650173	-8.198198	0.058230	1.507062	-2.693119
0.690	2.247510	-0.304918	544.394146	-14.154741	-8.091646	0.070614	1.486358	-2.600091
0.700	2.267074	0.272112	545.029098	-13.670799	-8.012606	0.085086	1.470125	-2.508270
0.710	2.320481	0.760811	545.870911	-13.217467	-7.961661	0.101238	1.458525	-2.421354
0.720	2.395461	1.122056	546.839266	-12.807288	-7.937290	0.118718	1.451485	-2.342057
0.730	2.486319	1.339444	547.811082	-12.444527	-7.936802	0.137460	1.448821	-2.271682
0.740	2.596956	1.420579	548.650990	-12.126011	-7.957725	0.157668	1.450417	-2.210150
0.750	2.739420	1.392521	549.239341	-11.843827	-7.998819	0.179644	1.456345	-2.156405
0.760	2.927977	1.293620	549.487231	-11.588665	-8.059950	0.203610	1.466813	-2.108996
0.770	3.171484	1.164093	549.337860	-11.352654	-8.140696	0.229535	1.481911	-2.066607
0.780	3.468018	1.037288	548.760938	-11.131137	-8.238395	0.257022	1.501272	-2.028413
0.790	3.804368	0.933329	547.748041	-10.923463	-8.346745	0.285277	1.523829	-1.994250
0.800	4.160170	0.856577	546.313439	-10.733112	-8.455857	0.313252	1.547803	-1.964644
0.810	4.514209	0.797611	544.500588	-10.567309	-8.553937	0.339928	1.570969	-1.940734
0.820	4.850156	0.739170	542.390645	-10.435944	-8.630049	0.364678	1.591113	-1.924064
0.830	5.160091	0.664172	540.106990	-10.349552	-8.676912	0.387528	1.606517	-1.916204
0.840	5.445402	0.563075	537.810087	-10.316410	-8.692697	0.409215	1.616314	-1.918225
0.850	5.715119	0.437834	535.680012	-10.339305	-8.680968	0.430953	1.620551	-1.930127
0.860	5.981605	0.300658	533.887459	-10.412866	-8.648333	0.453926	1.619879	-1.950386
0.870	6.253445	0.167869	532.557346	-10.522359	-8.600029	0.478534	1.614855	-1.975817
0.880	6.526086	0.051706	531.733204	-10.644491	-8.534550	0.503512	1.605044	-2.001848
0.890	6.772515	-0.045732	531.354772	-10.750326	-8.439287	0.525251	1.588259	-2.023192
0.900	6.938333	-0.133081	531.262304	-10.810056	-8.289305	0.537804	1.560304	-2.034787
0.910	6.946361	-0.224255	531.236527	-10.799062	-8.050782	0.534002	1.515480	-2.032816
0.920	6.714105	-0.329091	531.072421	-10.704159	-7.689253	0.507714	1.447873	-2.015574
0.930	6.182288	-0.443803	530.669534	-10.528227	-7.180918	0.456648	1.353181	-1.983952
0.940	5.345783	-0.544939	530.106583	-10.291140	-6.523470	0.384599	1.230596	-1.941334
0.950	4.273139	-0.589516	529.663132	-10.025523	-5.742007	0.301870	1.084087	-1.892811
0.960	3.101789	-0.522532	529.764843	-9.767799	-4.886606	0.223150	0.922410	-1.843799
0.970	2.004622	-0.291239	530.859664	-9.547281	-4.021209	0.163213	0.757490	-1.798457
0.980	1.137089	0.136927	533.265648	-9.377421	-3.207223	0.132043	0.601431	-1.758490
0.990	0.585560	0.758250	537.047764	-9.252628	-2.487841	0.131601	0.463244	-1.722869
1.000	0.339781	1.524855	541.970686	-9.151684	-1.878901	0.155855	0.346679	-1.688594
1.010	0.302117	2.349520	547.542878	-9.046062	-1.369214	0.194008	0.250065	-1.652119
1.020	0.328528	3.123233	553.131369	-8.909760	-0.929195	0.235175	0.167988	-1.610786
1.030	0.281715	3.740402	558.104174	-8.727115	-0.523519	0.272128	0.093803	-1.563707
1.040	0.073879	4.123527	561.955888	-8.496305	-0.122786	0.302669	0.021850	-1.511917
1.050	-0.314837	4.239633	564.386804	-8.228161	0.289249	0.328668	-0.051250	-1.457894
1.060	-0.842928	4.104265	565.326039	-7.941609	0.713841	0.353902	-0.126271	-1.404784
1.070	-1.429919	3.773366	564.905201	-7.657986	1.139686	0.381957	-0.201748	-1.355623
1.080	-1.982807	3.326943	563.397996	-7.396275	1.547641	0.414960	-0.274698	-1.312798
1.090	-2.418263	2.850194	561.144696	-7.170410	1.915993	0.453305	-0.341444	-1.277818
1.100	-2.677491	2.417301	558.480254	-6.988711	2.225275	0.496096	-0.398452	-1.251380
1.110	-2.733907	2.080976	555.681553	-6.854693	2.462124	0.541856	-0.443082	-1.233565
1.120	-2.594366	1.868282	552.942381	-6.768180	2.621762	0.589031	-0.474147	-1.224030
1.130	-2.294366	1.781459	550.375824	-6.725893	2.708674	0.636059	-0.492150	-1.222055
1.140	-1.888037	1.802091	548.035905	-6.721457	2.735341	0.681089	-0.499117	-1.226463
1.150	-1.435048	1.897487	545.946507	-6.745419	2.719372	0.721749	-0.498102	-1.235546
1.160	-0.987849	2.028691	544.126398	-6.786027	2.679908	0.755262	-0.492516	-1.247142
1.170	-0.582917	2.159075	542.603365	-6.831019	2.634331	0.778948	-0.485498	-1.258934
1.180	-0.238413	2.261577	541.415972	-6.870018	2.596058	0.790867	-0.479494	-1.268898
1.190	0.041925	2.322459	540.606066	-6.896699	2.573693	0.790316	-0.476076	-1.275735
1.200	0.261503	2.340602	540.207067	-6.909884	2.571299	0.778003	-0.475984	-1.279118
1.210	0.424180	2.323244	540.232203	-6.913114	2.589294	0.755862	-0.479293	-1.279656
1.220	0.531031	2.280537	540.665043	-6.912938	2.625558	0.726613	-0.485616	-1.278599
1.230	0.580971	2.221544	541.453720	-6.916679	2.676520	0.693184	-0.494321	-1.277428
1.240	0.573468	2.153143	542.510254	-6.930477	2.738099	0.658176	-0.504709	-1.277483
1.250	0.511155	2.081345	543.716577	-6.957987	2.806359	0.623454	-0.516144	-1.279708
1.260	0.401277	2.013199	544.938197	-6.999757	2.877784	0.589884	-0.528094	-1.284505
1.270	0.256347	1.957604	546.044215	-7.053254	2.949101	0.557220	-0.540085	-1.291700
1.280	0.094467	1.924671	546.928867	-7.113575	3.016820	0.524187	-0.551593	-1.300640
1.290	-0.061192	1.924493	547.527532	-7.174780	3.076720	0.488800	-0.561930	-1.310396
1.300	-0.184929	1.966303	547.821626	-7.231516	3.123704	0.448858	-0.570205	-1.320049
1.310	-0.253452	2.057952	547.831494	-7.280326	3.152252	0.402478	-0.575405	-1.328935
1.320	-0.251720	2.204779	547.601414	-7.320228	3.157451	0.348467	-0.576596	-1.336780
1.330	-0.176912	2.407267	547.183372	-7.352529	3.136176	0.286468	-0.573149	-1.343705
1.340	-0.038299	2.658058	546.624782	-7.380206	3.087995	0.216887	-0.564920	-1.350141
1.350	0.146844	2.939947	545.961809	-7.407192	3.015583	0.140744	-0.552343	-1.356723
1.360	0.358799	3.226446	545.217703	-7.437724	2.924660	0.059632	-0.536421	-1.364175
1.370	0.579766	3.485596	544.405562	-7.475736	2.823409	-0.024173	-0.518622	-1.373192
1.380	0.796250	3.686081	543.535522	-7.524372	2.721218	-0.107558	-0.500651	-1.384339
1.390	1.000440	3.803453	542.625439	-7.585759	2.626775	-0.186676	-0.484086	-1.397973
1.400	1.191424	3.824280	541.711772	-7.661094	2.546000	-0.257502	-0.469992	-1.414238
1.410	1.375760	3.747118	540.855225	-7.750931	2.480721	-0.316773	-0.458666	-1.433088
1.420	1.566184	3.580767	540.136061	-7.855469	2.428803	-0.362991	-0.449665	-1.454350
1.430	1.777777	3.341483	539.637328	-7.974740	2.385737	-0.397054	-0.442100	-1.477796
1.440	2.022122	3.051121	539.418700	-8.108894	2.346890	-0.422162	-0.435078	-1.503265
1.450	2.300945	2.737086	539.487166	-8.258728	2.309466	-0.442890	-0.428086	-1.530848
1.460	2.601128	2.432860	539.773302	-8.426355	2.273567	-0.463663	-0.421208	-1.561091
1.470	2.893048	2.176323	540.123599	-8.615624	2.242209	-0.487171	-0.415129	-1.595121
1.480	3.134114	2.003480	540.317350	-8.831998	2.220401	-0.513376	-0.410944	-1.634595
1.490	3.278566	1.937549	540.109162	-9.081862	2.213552	-0.539492	-0.409834	-1.681486
1.500	3.292162	1.976365	539.288507	-9.371445	2.225746	-0.560931	-0.412719	-1.737742
1.510	3.167029	2.083183	537.742044	-9.705465	2.258500	-0.572855	-0.419997	-1.804855
1.520	2.930103	2.186335	535.503709	-10.085493	2.310430	-0.571787	-0.431450	-1.883366
1.530	2.640081	2.191257	532.778226	-10.508124	2.377818	-0.556764	-0.446305	-1.972326
1.540	2.372214	2.004346	529.924762	-10.963481	2.455849	-0.529727	-0.463433	-2.068875
1.550	2.195398	1.562906	527.393906	-11.434877	2.540260	-0.495100	-0.481663	-2.168185
1.560	2.149515	0.861201	525.626710	-11.900323	2.629154	-0.458797	-0.500194	-2.264026
1.570	2.231449	-0.038135	524.943660	-12.335809	2.724553	-0.427065	-0.519018	-2.349930
1.580	2.395294	-1.013820	525.461721	-12.719498	2.833014	-0.405523	-0.539147	-2.420633
1.590	2.567051	-1.915122	527.070070	-13.035577	2.964671	-0.398567	-0.562481	-2.473215
1.600	2.668344	-2.600728	529.472042	-13.276704	3.130758	-0.409081	-0.591298	-2.507536
1.610	2.640139	-2.973644	532.274686	-13.444714	3.340349	-0.438212	-0.627561	-2.525898
1.620	2.458143	-3.001220	535.091694	-13.549770	3.597455	-0.485045	-0.672306	-2.532233
1.630	2.135914	-2.716440	537.626087	-13.608470	3.899387	-0.546259	-0.725297	-2.531215
1.640	1.716964	-2.203717	539.712000	-13.641231	4.236897	-0.616030	-0.785029	-2.527502
1.650	1.260538	-1.576149	541.312174	-13.669134	4.596077	-0.686481	-0.849062	-2.525185
1.660	0.826380	-0.951347	542.482241	-13.710406	4.961452	-0.748828	-0.914583	-2.527347
1.670	0.462440	-0.431015	543.321169	-13.777075	5.319283	-0.795112	-0.979031	-2.535715
1.680	0.197433	-0.086980	543.927756	-13.872568	5.660070	-0.820016	-1.040592	-2.550443
1.690	0.038694	0.045709	544.376077	-13.991028	5.979622	-0.822121	-1.098436	-2.570103
1.700	-0.025092	-0.030712	544.711432	-14.118719	6.278630	-0.804092	-1.152652	-2.591963
1.710	-0.017611	-0.281496	544.958523	-14.237324	6.561135	-0.771740	-1.203970	-2.612552
1.720	0.032506	-0.648100	545.130712	-14.328227	6.832460	-0.732336	-1.253362	-2.628402
1.730	0.097700	-1.059316	545.233979	-14.376564	7.097169	-0.692786	-1.301674	-2.636770
1.740	0.154919	-1.443149	545.266813	-14.374025	7.357572	-0.658229	-1.349353	-2.636145
1.750	0.187110	-1.737738	545.221334	-14.319908	7.613103	-0.631389	-1.396333	-2.626439
1.760	0.183971	-1.899857	545.089268	-14.220473	7.860659	-0.612661	-1.442087	-2.608834
1.770	0.142322	-1.910094	544.871766	-14.086823	8.095645	-0.600626	-1.485789	-2.585347
1.780	0.065565	-1.774373	544.588631	-13.931892	8.313394	-0.592650	-1.526546	-2.558241
1.790	-0.038224	-1.521713	544.281861	-13.767353	8.510517	-0.585437	-1.563623	-2.529453
1.800	-0.159054	-1.198274	544.010266	-13.601393	8.685774	-0.575611	-1.596620	-2.500209
1.810	-0.287378	-0.858184	543.835781	-13.438015	8.840199	-0.560361	-1.625527	-2.470969
1.820	-0.415274	-0.552651	543.806241	-13.277961	8.976554	-0.538026	-1.650690	-2.441671
1.830	-0.536848	-0.319865	543.941073	-13.120742	9.098457	-0.508418	-1.672692	-2.412162
1.840	-0.648739	-0.178342	544.224789	-12.966841	9.209520	-0.472792	-1.692227	-2.382626
1.850	-0.750659	-0.125396	544.610005	-12.819154	9.312660	-0.433489	-1.709969	-2.353823
1.860	-0.844982	-0.140680	545.028621	-12.683197	9.409591	-0.393337	-1.726440	-2.327070
1.870	-0.934660	-0.193236	545.407207	-12.566192	9.500548	-0.354967	-1.741918	-2.304002
1.880	-1.020194	-0.249816	545.681564	-12.475537	9.584267	-0.320257	-1.756385	-2.286230
1.890	-1.097413	-0.282370	545.806835	-12.417319	9.658261	-0.290080	-1.769538	-2.275039
1.900	-1.157783	-0.273389	545.761751	-12.395332	9.719453	-0.264405	-1.780897	-2.271198
1.910	-1.191637	-0.218603	545.547047	-12.410821	9.765265	-0.242579	-1.789995	-2.274931
1.920	-1.193164	-0.127116	545.178959	-12.462792	9.795031	-0.223627	-1.796663	-2.286000
1.930	-1.164724	-0.019107	544.680741	-12.548690	9.811198	-0.206447	-1.801275	-2.303861
1.940	-1.117879	0.078781	544.076787	-12.665279	9.819573	-0.189968	-1.804814	-2.327848
1.950	-1.069810	0.139951	543.392298	-12.809610	9.828198	-0.173363	-1.808675	-2.357341
1.960	-1.036330	0.144975	542.656589	-12.979783	9.845129	-0.156344	-1.814247	-2.391896
1.970	-1.025132	0.087161	541.904569	-13.175116	9.876084	-0.139364	-1.822477	-2.431261
1.980	-1.033198	-0.025824	541.172532	-13.395614	9.922998	-0.123520	-1.833611	-2.475295
1.990	-1.050066	-0.175282	540.489571	-13.641023	9.984092	-0.110158	-1.847231	-2.523827
2.000	-1.065159	-0.338514	539.869786	-13.909959	10.055318	-0.100380	-1.862545	-2.576540
2.010	-1.075015	-0.496566	539.310637	-14.199457	10.132449	-0.094810	-1.878778	-2.632890
2.020	-1.086469	-0.639740	538.799738	-14.505001	10.212869	-0.093687	-1.895485	-2.692095
2.030	-1.114429	-0.769302	538.328017	-14.820931	10.296351	-0.097111	-1.912654	-2.753141
2.040	-1.176031	-0.895569	537.903556	-15.141143	10.384645	-0.105114	-1.930577	-2.814843
2.050	-1.284555	-1.033564	537.559695	-15.459912	10.480207	-0.117435	-1.949589	-2.875943
2.060	-1.445773	-1.197743	537.353183	-15.772472	10.584740	-0.133187	-1.969792	-2.935215
2.070	-1.657442	-1.397070	537.351879	-16.074951	10.698165	-0.150748	-1.990905	-2.991513
2.080	-1.911063	-1.631540	537.615626	-16.363767	10.818338	-0.168084	-2.012281	-3.043767
2.090	-2.194591	-1.891121	538.177373	-16.635058	10.941451	-0.183396	-2.033057	-3.090999
2.100	-2.495124	-2.157657	539.032510	-16.884757	11.062687	-0.195705	-2.052323	-3.132419
2.110	-2.800783	-2.409229	540.141030	-17.109298	11.176633	-0.205013	-2.069206	-3.167561
2.120	-3.100863	-2.625567	541.440476	-17.306375	11.277157	-0.211888	-2.082806	-3.196358
2.130	-3.383568	-2.792749	542.862009	-17.475131	11.356840	-0.216761	-2.092031	-3.219074
2.140	-3.631896	-2.905855	544.341117	-17.615553	11.406443	-0.219396	-2.095459	-3.236124
2.150	-3.820003	-2.969081	545.818709	-17.727460	11.414966	-0.218930	-2.091347	-3.247866
2.160	-3.913217	-2.993700	547.233909	-17.809754	11.370613	-0.214538	-2.077834	-3.254505
2.170	-3.873776	-2.994807	548.513744	-17.860422	11.262552	-0.206368	-2.053285	-3.256149
2.180	-3.671696	-2.987792	549.566435	-17.877461	11.083046	-0.196145	-2.016689	-3.253012
2.190	-3.297010	-2.985279	550.284211	-17.860401	10.829464	-0.187010	-1.967977	-3.245668
2.200	-2.767981	-2.994994	550.558209	-17.811869	10.505647	-0.182557	-1.908181	-3.235238
2.210	-2.130883	-3.018627	550.302621	-17.738527	10.122072	-0.185543	-1.839365	-3.223413
2.220	-1.450261	-3.051416	549.480160	-17.650860	9.694458	-0.196883	-1.764296	-3.212283
2.230	-0.792885	-3.082434	548.118243	-17.561649	9.241024	-0.215337	-1.685955	-3.203989
2.240	-0.211688	-3.096107	546.307388	-17.483468	8.779310	-0.237900	-1.607028	-3.200299
2.250	0.263919	-3.075466	544.180468	-17.425952	8.323670	-0.260663	-1.529579	-3.202238
2.260	0.628318	-3.006736	541.880645	-17.393716	7.884100	-0.279868	-1.454951	-3.209880
2.270	0.892362	-2.883962	539.531172	-17.385592	7.466377	-0.292912	-1.383864	-3.222352
2.280	1.073529	-2.712238	537.218544	-17.395464	7.073068	-0.299067	-1.316609	-3.238061
2.290	1.188304	-2.508585	534.993400	-17.414463	6.705003	-0.299640	-1.253287	-3.255080
2.300	1.248685	-2.300160	532.885658	-17.433784	6.362801	-0.297434	-1.194027	-3.271581
2.310	1.262065	-2.119805	530.925246	-17.447171	6.048057	-0.295707	-1.139154	-3.286182
2.320	1.232853	-1.999316	529.158857	-17.452229	5.763812	-0.297104	-1.089240	-3.298108
2.330	1.164765	-1.961528	527.656571	-17.450114	5.514076	-0.303047	-1.045012	-3.307097
