Time[s]	Fx[N]	Fy[N]	Fz[N]	Mx[Nm]	My[Nm]	Mz[Nm]	COPx[cm]	COPy[cm]
0.010	5.747994	-2.400264	510.412490	-2.287578	34.525273	1.087162	-6.764190	-0.448182
0.020	5.907866	-2.372689	510.470786	-2.196860	34.389405	1.062089	-6.736802	-0.430360
0.030	6.059201	-2.338360	510.553206	-2.106411	34.254965	1.036940	-6.709382	-0.412574
0.040	6.194459	-2.294890	510.673042	-2.016465	34.123122	1.011987	-6.681990	-0.394864
0.050	6.308346	-2.245407	510.831611	-1.927815	33.993944	0.988012	-6.654628	-0.377388
0.060	6.398460	-2.197759	511.016660	-1.842732	33.866029	0.966133	-6.627187	-0.360601
0.070	6.465398	-2.161913	511.204995	-1.765496	33.736493	0.947420	-6.599406	-0.345360
0.080	6.512603	-2.146571	511.368978	-1.701877	33.601513	0.932570	-6.570894	-0.332808
0.090	6.546372	-2.155934	511.485143	-1.657620	33.457214	0.921764	-6.541190	-0.324080
0.100	6.575942	-2.187692	511.542503	-1.636627	33.300443	0.914699	-6.509810	-0.319940
0.110	6.612854	-2.233285	511.548046	-1.639742	33.129019	0.910671	-6.476228	-0.320545
0.120	6.668935	-2.280803	511.526741	-1.664655	32.941510	0.908661	-6.439841	-0.325429
0.130	6.753165	-2.319615	511.514265	-1.706816	32.736988	0.907444	-6.400015	-0.333679
0.140	6.868853	-2.344730	511.543795	-1.760771	32.515131	0.905831	-6.356275	-0.344207
0.150	7.012732	-2.358780	511.632085	-1.821408	32.276629	0.903008	-6.308562	-0.356000
0.160	7.176651	-2.370755	511.771139	-1.884921	32.023577	0.898885	-6.257402	-0.368313
0.170	7.351003	-2.392371	511.929374	-1.949521	31.759517	0.894287	-6.203886	-0.380818
0.180	7.527975	-2.433846	512.062036	-2.015711	31.489031	0.890901	-6.149456	-0.393646
0.190	7.702924	-2.500708	512.126921	-2.085817	31.217073	0.890908	-6.095573	-0.407285
0.200	7.873440	-2.592402	512.099256	-2.162762	30.948397	0.896363	-6.043437	-0.422333
0.210	8.037155	-2.702803	511.980101	-2.248656	30.687297	0.908503	-5.993846	-0.439208
0.220	8.190086	-2.822117	511.795561	-2.343965	30.437594	0.927265	-5.947217	-0.457989
0.230	8.326803	-2.939403	511.588090	-2.447623	30.202629	0.951221	-5.903701	-0.478436
0.240	8.442265	-3.045033	511.404029	-2.557774	29.985158	0.977910	-5.863301	-0.500147
0.250	8.533909	-3.132756	511.281968	-2.672585	29.787276	1.004409	-5.825998	-0.522722
0.260	8.602372	-3.201191	511.245160	-2.790598	29.610558	1.027984	-5.791851	-0.545843
0.270	8.650288	-3.254280	511.299185	-2.910503	29.456342	1.046752	-5.761077	-0.569237
0.280	8.680010	-3.300007	511.434052	-3.030662	29.325849	1.060216	-5.734043	-0.592581
0.290	8.691926	-3.347301	511.628678	-3.148838	29.219893	1.069411	-5.711152	-0.615454
0.300	8.684494	-3.402270	511.856056	-3.262409	29.138312	1.076500	-5.692677	-0.637369
0.310	8.655836	-3.465686	512.088649	-3.368883	29.079564	1.083872	-5.678619	-0.657871
0.320	8.605728	-3.533028	512.303465	-3.466403	29.040894	1.093131	-5.668690	-0.676631
0.330	8.536846	-3.597036	512.485055	-3.554106	29.019072	1.104414	-5.662423	-0.693504
0.340	8.454884	-3.651463	512.624706	-3.632453	29.011314	1.116372	-5.659367	-0.708599
0.350	8.367770	-3.694271	512.716647	-3.703615	29.015895	1.126822	-5.659246	-0.722351
0.360	8.284258	-3.728786	512.754643	-3.771750	29.032150	1.133770	-5.661997	-0.735586
0.370	8.212039	-3.762351	512.732181	-3.842770	29.059933	1.136310	-5.667663	-0.749469
0.380	8.155634	-3.803341	512.646672	-3.923328	29.098878	1.134991	-5.676205	-0.765308
0.390	8.114772	-3.858200	512.505139	-4.019141	29.147899	1.131512	-5.687338	-0.784215
0.400	8.084209	-3.929981	512.327765	-4.133117	29.205223	1.127969	-5.700496	-0.806733
0.410	8.055508	-4.018665	512.146383	-4.263986	29.268906	1.126061	-5.714949	-0.832572
0.420	8.020389	-4.122369	511.996967	-4.405984	29.337429	1.126564	-5.730001	-0.860549
0.430	7.974402	-4.238259	511.907861	-4.549825	29.409952	1.129201	-5.745165	-0.888798
0.440	7.919436	-4.362776	511.888397	-4.684721	29.485983	1.132862	-5.760237	-0.915184
0.450	7.863870	-4.491507	511.923808	-4.800849	29.564625	1.136076	-5.775200	-0.937805
0.460	7.819925	-4.619152	511.979980	-4.891496	29.643865	1.137550	-5.790044	-0.955408
0.470	7.798922	-4.739636	512.016287	-4.954297	29.720440	1.136586	-5.804589	-0.967605
0.480	7.806314	-4.846364	512.000526	-4.991305	29.790524	1.133255	-5.818456	-0.974863
0.490	7.838623	-4.932834	511.919490	-5.007897	29.851012	1.128359	-5.831193	-0.978259
0.500	7.883608	-4.993745	511.781263	-5.010818	29.900838	1.123234	-5.842503	-0.979094
0.510	7.923482	-5.026260	511.609558	-5.005944	29.941608	1.119379	-5.852433	-0.978470
0.520	7.939851	-5.030744	511.434418	-4.996473	29.977125	1.117967	-5.861382	-0.976953
0.530	7.918731	-5.010458	511.284479	-4.982071	30.011817	1.119397	-5.869886	-0.974423
0.540	7.854419	-4.970205	511.182937	-4.959124	30.048658	1.123115	-5.878259	-0.970127
0.550	7.751523	-4.914566	511.145698	-4.921970	30.087483	1.127860	-5.886283	-0.962929
0.560	7.624665	-4.846691	511.179428	-4.864813	30.124403	1.132195	-5.893117	-0.951684
0.570	7.495632	-4.768361	511.279272	-4.783753	30.152489	1.135055	-5.897460	-0.935644
0.580	7.388425	-4.681121	511.428068	-4.678300	30.163334	1.136016	-5.897864	-0.914752
0.590	7.323525	-4.587494	511.598815	-4.551793	30.148912	1.135264	-5.893077	-0.889719
0.600	7.313107	-4.491124	511.760346	-4.410584	30.103217	1.133325	-5.882288	-0.861846
0.610	7.358712	-4.395453	511.884676	-4.262240	30.023423	1.130728	-5.865271	-0.832656
0.620	7.452049	-4.301629	511.954023	-4.113303	29.910458	1.127733	-5.842411	-0.803452
0.630	7.578604	-4.207085	511.965640	-3.967213	29.768937	1.124227	-5.814636	-0.774898
0.640	7.722679	-4.106029	511.932786	-3.822987	29.606433	1.119831	-5.783266	-0.746775
0.650	7.871937	-3.991962	511.880873	-3.675292	29.432141	1.114189	-5.749803	-0.717998
0.660	8.019732	-3.861010	511.839372	-3.516258	29.255275	1.107328	-5.715714	-0.686985
0.670	8.164503	-3.714266	511.832291	-3.338599	29.083696	1.099946	-5.682271	-0.652284
0.680	8.306952	-3.557918	511.871169	-3.138834	28.923135	1.093421	-5.650472	-0.613208
0.690	8.446698	-3.401250	511.953056	-2.919156	28.777042	1.089469	-5.621031	-0.570200
0.700	8.580065	-3.253720	512.063019	-2.687193	28.646917	1.089554	-5.594412	-0.524778
0.710	8.699889	-3.122527	512.178943	-2.453851	28.532928	1.094293	-5.570890	-0.479100
0.720	8.797213	-3.011497	512.276873	-2.230137	28.434590	1.103132	-5.550629	-0.435338
0.730	8.864044	-2.921165	512.336551	-2.024144	28.351309	1.114447	-5.533728	-0.395081
0.740	8.895889	-2.849329	512.347248	-1.839305	28.282673	1.126033	-5.520216	-0.358996
0.750	8.892895	-2.791502	512.312844	-1.674561	28.228597	1.135759	-5.510031	-0.326863
0.760	8.859129	-2.741315	512.253648	-1.526247	28.189445	1.142109	-5.503025	-0.297947
0.770	8.800522	-2.691319	512.202748	-1.390661	28.166105	1.144447	-5.499015	-0.271506
0.780	8.722623	-2.634471	512.196751	-1.265993	28.159784	1.142989	-5.497845	-0.247169
0.790	8.629241	-2.566094	512.262981	-1.152788	28.171381	1.138607	-5.499398	-0.225038
0.800	8.522465	-2.485651	512.406924	-1.053010	28.200612	1.132575	-5.503558	-0.205503
0.810	8.403947	-2.397516	512.604930	-0.968483	28.245343	1.126308	-5.510158	-0.188934
0.820	8.276841	-2.310154	512.806793	-0.899590	28.301487	1.121069	-5.518938	-0.175425
0.830	8.147475	-2.233588	512.949270	-0.844759	28.363533	1.117612	-5.529501	-0.164687
0.840	8.025871	-2.175789	512.975971	-0.800802	28.425441	1.115850	-5.541281	-0.156109
0.850	7.924702	-2.139172	512.855126	-0.763831	28.481661	1.114776	-5.553549	-0.148937
0.860	7.856939	-2.118846	512.587909	-0.730334	28.528035	1.112777	-5.565491	-0.142480
0.870	7.832816	-2.103942	512.205748	-0.698065	28.562464	1.108272	-5.576365	-0.136286
0.880	7.856908	-2.081898	511.760357	-0.666523	28.585261	1.100393	-5.585673	-0.130241
0.890	7.926112	-2.043665	511.311441	-0.636878	28.599099	1.089415	-5.593284	-0.124558
0.900	8.029299	-1.987149	510.915403	-0.611368	28.608486	1.076749	-5.599457	-0.119661
0.910	8.149020	-1.917546	510.616892	-0.592438	28.618814	1.064528	-5.604753	-0.116024
0.920	8.264701	-1.845300	510.444044	-0.582117	28.635319	1.054893	-5.609884	-0.114041
0.930	8.356012	-1.783168	510.407021	-0.581969	28.662453	1.049264	-5.615607	-0.114021
0.940	8.405340	-1.743266	510.498730	-0.593416	28.703865	1.047859	-5.622710	-0.116242
0.950	8.399565	-1.734288	510.697320	-0.617831	28.762707	1.049648	-5.632046	-0.120978
0.960	8.332127	-1.759182	510.970764	-0.656092	28.841654	1.052717	-5.644482	-0.128401
0.970	8.205646	-1.814017	511.283228	-0.707922	28.942294	1.054875	-5.660717	-0.138460
0.980	8.033820	-1.888747	511.601398	-0.771571	29.064052	1.054341	-5.680995	-0.150815
0.990	7.840587	-1.970028	511.898278	-0.844126	29.203175	1.050329	-5.704879	-0.164901
1.000	7.655530	-2.045376	512.153073	-0.922177	29.352396	1.043350	-5.731176	-0.180059
1.010	7.506508	-2.107138	512.348051	-1.002462	29.501636	1.035072	-5.758124	-0.195660
1.020	7.412078	-2.154576	512.465480	-1.082235	29.639874	1.027706	-5.783780	-0.211182
1.030	7.376505	-2.193192	512.488270	-1.159516	29.757785	1.023153	-5.806530	-0.226252
1.040	7.389034	-2.231815	512.405568	-1.233435	29.850332	1.022291	-5.825528	-0.240715
1.050	7.427509	-2.278940	512.220414	-1.304649	29.918378	1.024757	-5.840919	-0.254705
1.060	7.464973	-2.339811	511.954467	-1.375523	29.968715	1.029246	-5.853785	-0.268681
1.070	7.477136	-2.415150	511.646862	-1.449744	30.012470	1.034119	-5.865856	-0.283348
1.080	7.448538	-2.501791	511.347571	-1.531421	30.062359	1.037972	-5.879046	-0.299487
1.090	7.375954	-2.594827	511.107114	-1.624061	30.129620	1.039972	-5.894972	-0.317753
1.100	7.268409	-2.690233	510.964757	-1.729785	30.221432	1.039945	-5.914582	-0.338533
1.110	7.143945	-2.786682	510.937886	-1.848935	30.339420	1.038292	-5.937986	-0.361871
1.120	7.024023	-2.885713	511.015870	-1.979907	30.479498	1.035821	-5.964492	-0.387445
1.130	6.927191	-2.990336	511.161489	-2.119070	30.632996	1.033541	-5.992822	-0.414560
1.140	6.863829	-3.102894	511.321433	-2.260792	30.788784	1.032441	-6.021415	-0.442147
1.150	6.833550	-3.223217	511.443952	-2.397717	30.935879	1.033297	-6.048733	-0.468813
1.160	6.826146	-3.347772	511.497318	-2.521399	31.065957	1.036527	-6.073533	-0.492945
1.170	6.825921	-3.469800	511.480768	-2.623252	31.175186	1.042135	-6.095085	-0.512874
1.180	6.817788	-3.579963	511.423063	-2.695639	31.264896	1.049745	-6.113314	-0.527086
1.190	6.792635	-3.667104	511.370424	-2.732945	31.340776	1.058704	-6.128781	-0.534435
1.200	6.749836	-3.719358	511.369987	-2.732511	31.410740	1.068194	-6.142468	-0.534351
1.210	6.696242	-3.726115	511.454341	-2.695280	31.482154	1.077330	-6.155418	-0.526984
1.220	6.642532	-3.680853	511.630122	-2.625969	31.559420	1.085269	-6.168405	-0.513255
1.230	6.598743	-3.583949	511.872764	-2.532669	31.642805	1.091413	-6.181771	-0.494785
1.240	6.570725	-3.444211	512.129817	-2.425859	31.728839	1.095676	-6.195468	-0.473680
1.250	6.558527	-3.278337	512.333694	-2.316908	31.812052	1.098655	-6.209245	-0.452226
1.260	6.556758	-3.108278	512.420981	-2.216321	31.887254	1.101515	-6.222863	-0.432520
1.270	6.556347	-2.957183	512.352423	-2.131988	31.951386	1.105581	-6.236213	-0.416117
1.280	6.546955	-2.844864	512.127181	-2.067813	32.004235	1.111781	-6.249275	-0.403769
1.290	6.519464	-2.783693	511.786319	-2.023140	32.047955	1.120191	-6.261980	-0.395310
1.300	6.468292	-2.775646	511.403129	-1.993357	32.086001	1.129884	-6.274111	-0.389782
1.310	6.393316	-2.811261	511.062269	-1.971611	32.122092	1.139176	-6.285358	-0.385787
1.320	6.300867	-2.871310	510.834726	-1.950933	32.159491	1.146169	-6.295479	-0.381911
1.330	6.203106	-2.931499	510.758100	-1.925895	32.200513	1.149388	-6.304455	-0.377066
1.340	6.115420	-2.969087	510.828889	-1.893349	32.246041	1.148298	-6.312494	-0.370642
1.350	6.052298	-2.969104	511.007742	-1.852455	32.295024	1.143546	-6.319870	-0.362510
1.360	6.023133	-2.927741	511.234066	-1.804357	32.344100	1.136839	-6.326671	-0.352941
1.370	6.029969	-2.851821	511.444714	-1.751609	32.387720	1.130421	-6.332595	-0.342483
1.380	6.068349	-2.754993	511.591320	-1.697334	32.419080	1.126270	-6.336910	-0.331775
1.390	6.130536	-2.652557	511.651576	-1.644262	32.431764	1.125329	-6.338642	-0.321364
1.400	6.209004	-2.557161	511.631653	-1.594118	32.421602	1.127100	-6.336903	-0.311575
1.410	6.298392	-2.476786	511.559951	-1.547675	32.388044	1.129859	-6.331231	-0.302540
1.420	6.395527	-2.415040	511.475265	-1.505343	32.334524	1.131392	-6.321816	-0.294314
1.430	6.498187	-2.372703	511.414089	-1.467855	32.267591	1.129928	-6.309484	-0.287019
1.440	6.603640	-2.349270	511.401105	-1.436646	32.194959	1.124819	-6.295442	-0.280923
1.450	6.707939	-2.343872	511.444414	-1.413832	32.123061	1.116662	-6.280851	-0.276439
1.460	6.806408	-2.355527	511.535044	-1.401822	32.055016	1.106880	-6.266436	-0.274042
1.470	6.895100	-2.382963	511.649572	-1.402690	31.989903	1.097014	-6.252307	-0.274150
1.480	6.972362	-2.424199	511.754703	-1.417557	31.923699	1.088113	-6.238086	-0.276999
1.490	7.039456	-2.476033	511.813186	-1.446238	31.851490	1.080454	-6.223265	-0.282571
1.500	7.099731	-2.533683	511.791536	-1.487335	31.769909	1.073637	-6.207588	-0.290613
1.510	7.156822	-2.590917	511.669838	-1.538788	31.678667	1.066930	-6.191232	-0.300739
1.520	7.212838	-2.641019	511.451446	-1.598774	31.580664	1.059650	-6.174714	-0.312595
1.530	7.267253	-2.678647	511.167928	-1.666602	31.481125	1.051412	-6.158666	-0.326038
1.540	7.316516	-2.701950	510.875145	-1.743128	31.386564	1.042168	-6.143686	-0.341204
1.550	7.354203	-2.713885	510.640031	-1.830323	31.304038	1.032107	-6.130353	-0.358437
1.560	7.371972	-2.721841	510.521872	-1.930062	31.240462	1.021537	-6.119319	-0.378057
1.570	7.361834	-2.735562	510.554601	-2.042717	31.201561	1.010869	-6.111307	-0.400098
1.580	7.319607	-2.764143	510.736678	-2.166274	31.190449	1.000678	-6.106953	-0.424147
1.590	7.248224	-2.813259	511.032425	-2.296488	31.206339	0.991741	-6.106528	-0.449382
1.600	7.158932	-2.883688	511.383986	-2.428007	31.244065	0.984957	-6.109707	-0.474791
1.610	7.068953	-2.971664	511.728522	-2.555959	31.294854	0.981139	-6.115519	-0.499476
1.620	6.995954	-3.070718	512.013678	-2.677346	31.348297	0.980768	-6.122551	-0.522905
1.630	6.951545	-3.173913	512.206493	-2.791713	31.394928	0.983757	-6.129350	-0.545037
1.640	6.936979	-3.275391	512.294967	-2.900819	31.428563	0.989328	-6.134857	-0.566240
1.650	6.943214	-3.370891	512.284770	-3.007401	31.447628	0.996057	-6.138701	-0.587057
1.660	6.955425	-3.457486	512.193984	-3.113662	31.455103	1.002148	-6.141248	-0.607907
1.670	6.959968	-3.532888	512.047293	-3.220262	31.457149	1.005914	-6.143407	-0.628899
1.680	6.950633	-3.594607	511.869937	-3.326247	31.460941	1.006338	-6.146276	-0.649823
1.690	6.931130	-3.639573	511.682267	-3.429644	31.472421	1.003482	-6.150774	-0.670268
1.700	6.912512	-3.665050	511.496822	-3.528125	31.494660	0.998564	-6.157352	-0.689765
1.710	6.906949	-3.670950	511.319665	-3.619521	31.527286	0.993668	-6.165866	-0.707878
1.720	6.921243	-3.662322	511.155405	-3.702313	31.567000	0.991166	-6.175617	-0.724303
1.730	6.953340	-3.650079	511.012564	-3.776176	31.608880	0.993034	-6.185539	-0.738959
1.740	6.993246	-3.648688	510.905187	-3.842290	31.647974	1.000229	-6.194491	-0.752055
1.750	7.027342	-3.671242	510.849261	-3.903024	31.680668	1.012331	-6.201569	-0.764027
1.760	7.043671	-3.723892	510.856464	-3.961004	31.705378	1.027629	-6.206318	-0.775365
1.770	7.035689	-3.802334	510.929484	-4.018036	31.722380	1.043680	-6.208759	-0.786417
1.780	7.003324	-3.892318	511.061292	-4.074523	31.733008	1.058137	-6.209237	-0.797267
1.790	6.951693	-3.974349	511.237384	-4.129620	31.738778	1.069489	-6.208227	-0.807769
1.800	6.888650	-4.030716	511.438266	-4.181864	31.740844	1.077365	-6.206193	-0.817667
1.810	6.822223	-4.051916	511.640546	-4.229764	31.739808	1.082331	-6.203537	-0.826706
1.820	6.758626	-4.039814	511.817775	-4.272013	31.735662	1.085377	-6.200578	-0.834675
1.830	6.701243	-4.006370	511.943803	-4.307424	31.727687	1.087421	-6.197494	-0.841386
1.840	6.650817	-3.968521	511.999779	-4.334973	31.714382	1.089053	-6.194218	-0.846675
1.850	6.606656	-3.941301	511.982088	-4.354108	31.693697	1.090538	-6.190392	-0.850441
1.860	6.568243	-3.932010	511.906228	-4.365210	31.663747	1.091937	-6.185458	-0.852736
1.870	6.536409	-3.937874	511.803327	-4.369877	31.623835	1.093238	-6.178904	-0.853820
1.880	6.513355	-3.948118	511.710003	-4.370842	31.575274	1.094455	-6.170541	-0.854164
1.890	6.501518	-3.949406	511.655551	-4.371500	31.521493	1.095645	-6.160686	-0.854383
1.900	6.502007	-3.932091	511.651584	-4.375082	31.467267	1.096870	-6.150136	-0.855090
1.910	6.513575	-3.894377	511.688541	-4.383727	31.417381	1.098135	-6.139942	-0.856718
1.920	6.532529	-3.842757	511.740944	-4.397829	31.375293	1.099396	-6.131089	-0.859386
1.930	6.553454	-3.789144	511.779379	-4.415935	31.342252	1.100658	-6.124173	-0.862859
1.940	6.570517	-3.746530	511.783688	-4.435167	31.317132	1.102056	-6.119213	-0.866610
1.950	6.579167	-3.724964	511.751110	-4.452028	31.296958	1.103778	-6.115660	-0.869960
1.960	6.577878	-3.728788	511.695812	-4.463432	31.277851	1.105871	-6.112587	-0.872282
1.970	6.569278	-3.755514	511.640889	-4.467733	31.255946	1.108083	-6.108962	-0.873217
1.980	6.560012	-3.796495	511.607666	-4.465452	31.227891	1.109932	-6.103875	-0.872827
1.990	6.559010	-3.839345	511.607993	-4.459386	31.190892	1.110954	-6.096639	-0.871641
2.000	6.574517	-3.871611	511.642713	-4.453965	31.142594	1.110982	-6.086785	-0.870523
2.010	6.611025	-3.884675	511.705468	-4.453943	31.081199	1.110268	-6.074041	-0.870411
2.020	6.667587	-3.876630	511.788389	-4.462791	31.005966	1.109432	-6.058357	-0.871999
2.030	6.738412	-3.853046	511.886307	-4.481338	30.917822	1.109253	-6.039978	-0.875456
2.040	6.815527	-3.825083	511.997702	-4.507230	30.819523	1.110417	-6.019465	-0.880322
2.050	6.892194	-3.805347	512.121975	-4.535537	30.714922	1.113314	-5.997579	-0.885636
2.060	6.965374	-3.802978	512.253735	-4.560405	30.607448	1.117965	-5.975056	-0.890263
2.070	7.036128	-3.820100	512.376657	-4.577153	30.498512	1.124046	-5.952362	-0.893318
2.080	7.108013	-3.851291	512.461232	-4.583899	30.386779	1.130925	-5.929576	-0.894487
2.090	7.184586	-3.886143	512.470098	-4.581851	30.268842	1.137685	-5.906460	-0.894072
2.100	7.267358	-3.913460	512.370769	-4.574095	30.141109	1.143233	-5.882675	-0.892731
2.110	7.354970	-3.925088	512.150731	-4.563628	30.002078	1.146542	-5.858056	-0.891071
2.120	7.443623	-3.917983	511.827446	-4.551800	29.853978	1.147000	-5.832821	-0.889323
2.130	7.528236	-3.894052	511.447984	-4.537928	29.703061	1.144671	-5.807641	-0.887271
2.140	7.603674	-3.858274	511.078288	-4.520040	29.558395	1.140278	-5.783536	-0.884412
2.150	7.665630	-3.816205	510.786632	-4.496154	29.429512	1.134880	-5.761606	-0.880241
2.160	7.711082	-3.772028	510.627126	-4.465446	29.323682	1.129389	-5.742680	-0.874502
2.170	7.738505	-3.727734	510.628050	-4.428842	29.243719	1.124211	-5.727010	-0.867332
2.180	7.748060	-3.683479	510.787635	-4.388837	29.187129	1.119150	-5.714142	-0.859229
2.190	7.741859	-3.638776	511.077072	-4.348594	29.146948	1.113583	-5.703044	-0.850868
2.200	7.724186	-3.593891	511.448090	-4.310740	29.113948	1.106814	-5.692454	-0.842850
2.210	7.701412	-3.550559	511.842230	-4.276435	29.079297	1.098433	-5.681301	-0.835499
2.220	7.681304	-3.511362	512.200450	-4.245144	29.036580	1.088564	-5.668988	-0.828805
2.230	7.671631	-3.478019	512.472935	-4.215135	28.982594	1.077948	-5.655439	-0.822509
2.240	7.678312	-3.449786	512.628518	-4.184329	28.917065	1.067814	-5.640940	-0.816250
2.250	7.703767	-3.423238	512.661448	-4.151027	28.841871	1.059514	-5.625910	-0.809701
2.260	7.746214	-3.393839	512.592209	-4.114250	28.760322	1.054009	-5.610761	-0.802636
2.270	7.800327	-3.358530	512.460473	-4.073768	28.676698	1.051423	-5.595885	-0.794943
2.280	7.859107	-3.317733	512.311846	-4.030091	28.595927	1.050898	-5.581742	-0.786648
2.290	7.916289	-3.275375	512.183343	-3.984530	28.523166	1.050882	-5.568937	-0.777950
2.300	7.968298	-3.236814	512.093423	-3.939209	28.463187	1.049716	-5.558202	-0.769236
2.310	8.014891	-3.206059	512.040341	-3.896810	28.419617	1.046298	-5.550269	-0.761036
2.320	8.058163	-3.184071	512.008454	-3.860037	28.394200	1.040562	-5.545651	-0.753901
2.330	8.100443	-3.168943	511.978646	-3.830948	28.386291	1.033603	-5.544429	-0.748263
2.340	8.142337	-3.157404	511.937928	-3.810313	28.392826	1.027350	-5.546146	-0.744292
