Time[s]	Fx[N]	Fy[N]	Fz[N]	Mx[Nm]	My[Nm]	Mz[Nm]	COPx[cm]	COPy[cm]
0.010	2.309949	-0.093446	529.466305	3.102383	18.726037	-0.318042	-3.536776	0.585945
0.020	2.359194	-0.014332	529.405215	3.165705	18.697652	-0.328729	-3.531822	0.597974
0.030	2.403105	0.054183	529.369123	3.219578	18.667305	-0.337542	-3.526331	0.608192
0.040	2.438929	0.104183	529.372578	3.257636	18.633002	-0.343239	-3.519827	0.615377
0.050	2.467947	0.131793	529.415448	3.278251	18.593141	-0.345451	-3.512013	0.619221
0.060	2.494332	0.138021	529.483583	3.284067	18.546638	-0.344711	-3.502779	0.620240
0.070	2.522676	0.128121	529.554107	3.279819	18.493073	-0.342197	-3.492197	0.619355
0.080	2.555680	0.109619	529.603595	3.269668	18.432934	-0.339327	-3.480515	0.617380
0.090	2.593145	0.089733	529.617261	3.255370	18.367829	-0.337331	-3.468133	0.614665
0.100	2.632662	0.073060	529.596127	3.236020	18.300393	-0.336965	-3.455538	0.611035
0.110	2.671535	0.060334	529.558365	3.209237	18.233733	-0.338385	-3.443196	0.606021
0.120	2.708956	0.048782	529.532721	3.172982	18.170496	-0.341207	-3.431421	0.599204
0.130	2.747253	0.033955	529.545990	3.127041	18.111999	-0.344688	-3.420288	0.590514
0.140	2.791323	0.012192	529.610162	3.073611	18.057887	-0.347988	-3.409656	0.580354
0.150	2.846318	-0.017438	529.715336	3.016919	18.006452	-0.350470	-3.399269	0.569536
0.160	2.914765	-0.052557	529.831421	2.962131	17.955371	-0.351958	-3.388884	0.559071
0.170	2.994784	-0.088400	529.917459	2.913979	17.902451	-0.352834	-3.378347	0.549893
0.180	3.080397	-0.119730	529.935031	2.875544	17.846140	-0.353880	-3.367609	0.542622
0.190	3.163712	-0.142884	529.861878	2.847668	17.785811	-0.355883	-3.356688	0.537436
0.200	3.237806	-0.157118	529.701889	2.829128	17.721963	-0.359182	-3.345648	0.534098
0.210	3.298927	-0.164815	529.487348	2.817340	17.656300	-0.363433	-3.334603	0.532088
0.220	3.347042	-0.170646	529.270707	2.809174	17.591546	-0.367727	-3.323733	0.530763
0.230	3.384604	-0.180038	529.107596	2.801536	17.530882	-0.371007	-3.313292	0.529483
0.240	3.414228	-0.197344	529.037922	2.791750	17.477120	-0.372523	-3.303567	0.527703
0.250	3.436602	-0.224332	529.073327	2.777837	17.431894	-0.372069	-3.294797	0.525038
0.260	3.449881	-0.259738	529.195697	2.758725	17.395131	-0.369954	-3.287088	0.521305
0.270	3.451072	-0.300215	529.366231	2.734239	17.365030	-0.366810	-3.280343	0.516512
0.280	3.438604	-0.342167	529.540933	2.704887	17.338710	-0.363411	-3.274291	0.510798
0.290	3.414484	-0.383426	529.686629	2.671694	17.313399	-0.360540	-3.268612	0.504392
0.300	3.384603	-0.423898	529.791254	2.636365	17.287724	-0.358850	-3.263120	0.497623
0.310	3.356959	-0.464984	529.864086	2.601624	17.262372	-0.358671	-3.257887	0.490998
0.320	3.338774	-0.508171	529.925817	2.571244	17.239648	-0.359818	-3.253219	0.485208
0.330	3.333965	-0.553678	529.993276	2.549372	17.222076	-0.361509	-3.249489	0.481020
0.340	3.342029	-0.599935	530.066880	2.539315	17.210819	-0.362505	-3.246915	0.479056
0.350	3.358653	-0.644145	530.128205	2.542361	17.204794	-0.361543	-3.245402	0.479575
0.360	3.377708	-0.683363	530.149711	2.557194	17.200966	-0.357928	-3.244549	0.482353
0.370	3.393870	-0.715254	530.111281	2.580165	17.195651	-0.351967	-3.243781	0.486721
0.380	3.404782	-0.738072	530.014151	2.606296	17.186150	-0.344957	-3.242583	0.491741
0.390	3.411895	-0.750131	529.884566	2.630708	17.171954	-0.338685	-3.240697	0.496468
0.400	3.419725	-0.749364	529.765169	2.650080	17.155078	-0.334727	-3.238242	0.500237
0.410	3.434000	-0.733400	529.697831	2.663693	17.139505	-0.333886	-3.235714	0.502870
0.420	3.459393	-0.700249	529.705285	2.673699	17.129977	-0.335968	-3.233869	0.504752
0.430	3.497434	-0.649286	529.779539	2.684487	17.130522	-0.339921	-3.233519	0.506718
0.440	3.545169	-0.581934	529.882549	2.701341	17.143270	-0.344207	-3.235296	0.509800
0.450	3.595099	-0.501317	529.959760	2.728899	17.168084	-0.347267	-3.239507	0.514926
0.460	3.636551	-0.410897	529.961796	2.769951	17.203168	-0.347989	-3.246115	0.522670
0.470	3.658100	-0.313085	529.865758	2.824968	17.246364	-0.346042	-3.254855	0.533148
0.480	3.650240	-0.208987	529.686881	2.892428	17.296482	-0.342004	-3.265416	0.546064
0.490	3.607554	-0.099486	529.474729	2.969716	17.354060	-0.337202	-3.277599	0.560880
0.500	3.529797	0.013256	529.295067	3.054187	17.421215	-0.333298	-3.291399	0.577029
0.510	3.421592	0.125068	529.205320	3.143896	17.500712	-0.331708	-3.306980	0.594079
0.520	3.290876	0.230451	529.233909	3.237663	17.594702	-0.333047	-3.324561	0.611764
0.530	3.146772	0.324507	529.371135	3.334553	17.703698	-0.336853	-3.344289	0.629908
0.540	2.997785	0.405130	529.574029	3.433255	17.826141	-0.341773	-3.366128	0.648305
0.550	2.850910	0.473941	529.782313	3.531783	17.958623	-0.346174	-3.389812	0.666648
0.560	2.711535	0.535006	529.938842	3.627608	18.096512	-0.348832	-3.414830	0.684533
0.570	2.583572	0.591958	530.006841	3.717970	18.234626	-0.349349	-3.440451	0.701495
0.580	2.469340	0.645544	529.978095	3.800057	18.367793	-0.348140	-3.465765	0.717021
0.590	2.369268	0.693349	529.870151	3.871115	18.491365	-0.346114	-3.489792	0.730578
0.600	2.281896	0.731742	529.715308	3.928739	18.601837	-0.344270	-3.511667	0.741670
0.610	2.204446	0.758468	529.547300	3.971407	18.697401	-0.343376	-3.530827	0.749963
0.620	2.133634	0.774084	529.391659	3.998940	18.778045	-0.343825	-3.547099	0.755384
0.630	2.066386	0.781389	529.262840	4.012492	18.844926	-0.345680	-3.560599	0.758129
0.640	2.000527	0.783407	529.167272	4.013994	18.899204	-0.348775	-3.571499	0.758549
0.650	1.935723	0.781260	529.108646	4.005377	18.940933	-0.352736	-3.579781	0.757005
0.660	1.874444	0.773032	529.091461	3.988020	18.968665	-0.356917	-3.585139	0.753749
0.670	1.822216	0.754158	529.120788	3.962614	18.980073	-0.360418	-3.587097	0.748905
0.680	1.786570	0.719234	529.198786	3.929451	18.973349	-0.362307	-3.585297	0.742528
0.690	1.774696	0.664695	529.320310	3.888950	18.948656	-0.361977	-3.579809	0.734706
0.700	1.790622	0.591287	529.470571	3.842187	18.908926	-0.359409	-3.571289	0.725666
0.710	1.833215	0.505009	529.626821	3.791163	18.859627	-0.355160	-3.560928	0.715818
0.720	1.896259	0.415745	529.763654	3.738640	18.807557	-0.350128	-3.550179	0.705719
0.730	1.970869	0.333970	529.859164	3.687619	18.758927	-0.345279	-3.540361	0.695962
0.740	2.049147	0.267042	529.899044	3.640687	18.717344	-0.341434	-3.532247	0.687053
0.750	2.127112	0.216831	529.877982	3.599448	18.682543	-0.339116	-3.525820	0.679298
0.760	2.205296	0.179757	529.799890	3.564206	18.650694	-0.338391	-3.520328	0.672746
0.770	2.286719	0.149104	529.678137	3.534038	18.616369	-0.338769	-3.514657	0.667205
0.780	2.373402	0.118461	529.534807	3.507283	18.575303	-0.339247	-3.507853	0.662333
0.790	2.463340	0.084689	529.397182	3.482291	18.526530	-0.338603	-3.499552	0.657784
0.800	2.549672	0.049050	529.291462	3.458019	18.472858	-0.335904	-3.490111	0.653330
0.810	2.622662	0.015965	529.236325	3.434088	18.419504	-0.331004	-3.480393	0.648876
0.820	2.673636	-0.009903	529.239310	3.410293	18.371666	-0.324736	-3.471334	0.644376
0.830	2.698912	-0.026539	529.297103	3.386002	18.332190	-0.318641	-3.463497	0.639717
0.840	2.701724	-0.035697	529.398447	3.360022	18.300353	-0.314338	-3.456820	0.634687
0.850	2.691251	-0.041773	529.527880	3.331139	18.272217	-0.312861	-3.450662	0.629077
0.860	2.679350	-0.049438	529.669188	3.298972	18.242275	-0.314317	-3.444088	0.622836
0.870	2.676576	-0.061524	529.807773	3.264482	18.205537	-0.317972	-3.436253	0.616164
0.880	2.689061	-0.078007	529.931046	3.229745	18.159166	-0.322661	-3.426703	0.609465
0.890	2.717220	-0.096145	530.026861	3.196992	18.103054	-0.327256	-3.415497	0.603176
0.900	2.756568	-0.111530	530.082001	3.167392	18.039283	-0.330952	-3.403112	0.597529
0.910	2.800207	-0.119825	530.083527	3.140195	17.970869	-0.333318	-3.390196	0.592396
0.920	2.841797	-0.118853	530.023979	3.112750	17.900446	-0.334232	-3.377290	0.587285
0.930	2.877563	-0.110348	529.908142	3.081416	17.829497	-0.333791	-3.364639	0.581500
0.940	2.906669	-0.100405	529.756988	3.042938	17.758349	-0.332257	-3.352169	0.574403
0.950	2.930586	-0.097978	529.605053	2.995642	17.686814	-0.329989	-3.339623	0.565637
0.960	2.952390	-0.111687	529.490650	2.939988	17.615037	-0.327382	-3.326789	0.555248
0.970	2.976199	-0.146163	529.442315	2.878436	17.544063	-0.324831	-3.313687	0.543673
0.980	3.006224	-0.199666	529.467677	2.814874	17.475792	-0.322756	-3.300634	0.531642
0.990	3.045242	-0.264276	529.550419	2.753886	17.412400	-0.321633	-3.288148	0.520042
1.000	3.093136	-0.328785	529.657056	2.699956	17.355584	-0.321920	-3.276759	0.509755
1.010	3.146516	-0.382984	529.750056	2.656566	17.305997	-0.323858	-3.266823	0.501475
1.020	3.199886	-0.421259	529.800713	2.625268	17.262972	-0.327256	-3.258390	0.495520
1.030	3.247894	-0.443810	529.796405	2.605021	17.224614	-0.331407	-3.251176	0.491702
1.040	3.287468	-0.455236	529.741388	2.592239	17.188229	-0.335230	-3.244645	0.489340
1.050	3.318736	-0.461678	529.653683	2.581780	17.151125	-0.337616	-3.238177	0.487447
1.060	3.344255	-0.468255	529.560114	2.568648	17.111599	-0.337847	-3.231285	0.485053
1.070	3.367075	-0.477887	529.489424	2.549701	17.069769	-0.335926	-3.223817	0.481540
1.080	3.388757	-0.491451	529.463562	2.524572	17.027760	-0.332643	-3.216040	0.476817
1.090	3.408482	-0.508610	529.489747	2.495327	16.989033	-0.329327	-3.208567	0.471270
1.100	3.423740	-0.528721	529.557111	2.465083	16.957102	-0.327301	-3.202129	0.465499
1.110	3.432207	-0.551524	529.640004	2.436320	16.934282	-0.327296	-3.197319	0.459995
1.120	3.433664	-0.577465	529.706790	2.409840	16.921043	-0.329145	-3.194417	0.454939
1.130	3.430679	-0.607496	529.730670	2.384960	16.916258	-0.331956	-3.193370	0.450221
1.140	3.427505	-0.642285	529.698676	2.360845	16.918094	-0.334679	-3.193909	0.445696
1.150	3.427837	-0.681128	529.616099	2.338159	16.924959	-0.336700	-3.195703	0.441482
1.160	3.432897	-0.721285	529.505304	2.319878	16.935976	-0.338099	-3.198453	0.438122
1.170	3.440928	-0.758391	529.399524	2.310531	16.950830	-0.339482	-3.201897	0.436444
1.180	3.448045	-0.788001	529.333393	2.314181	16.969249	-0.341558	-3.205777	0.437188
1.190	3.449684	-0.807531	529.332744	2.332354	16.990551	-0.344741	-3.209805	0.440622
1.200	3.441971	-0.817539	529.406633	2.363172	17.013526	-0.348973	-3.213697	0.446381
1.210	3.422850	-0.821459	529.544154	2.402128	17.036747	-0.353798	-3.217248	0.453622
1.220	3.392958	-0.823544	529.717408	2.443948	17.059206	-0.358571	-3.220435	0.461368
1.230	3.356037	-0.825702	529.890048	2.484485	17.080996	-0.362694	-3.223498	0.468868
1.240	3.318347	-0.824932	530.028862	2.521793	17.103637	-0.365756	-3.226926	0.475784
1.250	3.286803	-0.813226	530.114307	2.556175	17.129759	-0.367571	-3.231333	0.482193
1.260	3.266354	-0.780531	530.145778	2.589572	17.162184	-0.368152	-3.237258	0.488464
1.270	3.257811	-0.719358	530.138965	2.624784	17.202829	-0.367715	-3.244966	0.495112
1.280	3.257274	-0.628644	530.115898	2.664738	17.251898	-0.366718	-3.254363	0.502671
1.290	3.257522	-0.514970	530.091849	2.711773	17.307708	-0.365818	-3.265040	0.511567
1.300	3.250761	-0.390821	530.065364	2.766945	17.367228	-0.365659	-3.276431	0.522001
1.310	3.231418	-0.270835	530.017013	2.829582	17.427172	-0.366505	-3.288040	0.533866
1.320	3.197645	-0.167583	529.918878	2.897447	17.485312	-0.367934	-3.299620	0.546772
1.330	3.150827	-0.088288	529.751481	2.967641	17.541470	-0.368830	-3.311264	0.560195
1.340	3.093539	-0.033456	529.520326	3.037863	17.597746	-0.367763	-3.323337	0.573701
1.350	3.027252	0.002366	529.263150	3.107252	17.657835	-0.363610	-3.336305	0.587090
1.360	2.951176	0.028188	529.042394	3.176170	17.725664	-0.356157	-3.350519	0.600362
1.370	2.862910	0.053484	528.924302	3.245034	17.803815	-0.346325	-3.366042	0.613516
1.380	2.760529	0.085391	528.953156	3.312946	17.892270	-0.335902	-3.382581	0.626321
1.390	2.645008	0.126950	529.132003	3.377053	17.987953	-0.326880	-3.399521	0.638225
1.400	2.521762	0.176670	529.418245	3.433000	18.085268	-0.320764	-3.416064	0.648448
1.410	2.400612	0.229315	529.736087	3.476263	18.177500	-0.318154	-3.431426	0.656225
1.420	2.294035	0.277555	530.001052	3.503688	18.258551	-0.318690	-3.445003	0.661072
1.430	2.214008	0.313998	530.147023	3.514491	18.324393	-0.321241	-3.456474	0.662928
1.440	2.168265	0.333122	530.145541	3.510261	18.373793	-0.324240	-3.465802	0.662131
1.450	2.157276	0.332658	530.011238	3.494071	18.408227	-0.326098	-3.473177	0.659245
1.460	2.173395	0.314144	529.793593	3.469243	18.431071	-0.325644	-3.478916	0.654829
1.470	2.202883	0.282487	529.559769	3.438385	18.446343	-0.322461	-3.483335	0.649291
1.480	2.230296	0.244474	529.374642	3.403017	18.457350	-0.316990	-3.486633	0.642837
1.490	2.243577	0.206416	529.283407	3.363809	18.465688	-0.310370	-3.488809	0.635540
1.500	2.237815	0.171717	529.300841	3.321233	18.470955	-0.304079	-3.489689	0.627475
1.510	2.216140	0.139670	529.409731	3.276259	18.471310	-0.299509	-3.489039	0.618851
1.520	2.187512	0.106378	529.568790	3.230708	18.464686	-0.297585	-3.486740	0.610064
1.530	2.162559	0.067402	529.727811	3.187086	18.450055	-0.298534	-3.482931	0.601646
1.540	2.149434	0.020559	529.845400	3.148048	18.428071	-0.301835	-3.478009	0.594145
1.550	2.151506	-0.032851	529.902780	3.115752	18.400731	-0.306358	-3.472473	0.587986
1.560	2.167641	-0.088944	529.907546	3.091370	18.370375	-0.310675	-3.466713	0.583379
1.570	2.194418	-0.143422	529.885361	3.074891	18.338659	-0.313474	-3.460873	0.580294
1.580	2.228698	-0.193359	529.864176	3.065265	18.305984	-0.313959	-3.454845	0.578500
1.590	2.269026	-0.237468	529.859697	3.060738	18.271473	-0.312096	-3.448361	0.577651
1.600	2.315396	-0.275147	529.869260	3.059225	18.233400	-0.308620	-3.441113	0.577355
1.610	2.367948	-0.305644	529.875660	3.058608	18.189929	-0.304800	-3.432867	0.577231
1.620	2.425711	-0.328297	529.857295	3.056984	18.139940	-0.302062	-3.423552	0.576945
1.630	2.486075	-0.343405	529.799063	3.052907	18.083663	-0.301580	-3.413306	0.576239
1.640	2.545089	-0.352567	529.699428	3.045675	18.022878	-0.303960	-3.402473	0.574982
1.650	2.598294	-0.357927	529.571371	3.035580	17.960647	-0.309078	-3.391544	0.573215
1.660	2.641716	-0.360835	529.437395	3.023928	17.900656	-0.316155	-3.381071	0.571159
1.670	2.672704	-0.360908	529.320915	3.012659	17.846313	-0.324032	-3.371549	0.569155
1.680	2.690409	-0.356170	529.238226	3.003736	17.799790	-0.331553	-3.363285	0.567558
1.690	2.695933	-0.344326	529.195252	2.998719	17.761348	-0.337885	-3.356294	0.566656
1.700	2.692155	-0.324563	529.190261	2.998727	17.729310	-0.342631	-3.350271	0.566663
1.710	2.683202	-0.298959	529.219337	3.004610	17.700782	-0.345759	-3.344697	0.567744
1.720	2.673620	-0.272672	529.279650	3.016968	17.672813	-0.347422	-3.339031	0.570014
1.730	2.667404	-0.252716	529.368334	3.035914	17.643548	-0.347838	-3.332944	0.573497
1.740	2.667141	-0.245730	529.479031	3.060813	17.612926	-0.347298	-3.326463	0.578080
1.750	2.673530	-0.255579	529.599933	3.090294	17.582651	-0.346269	-3.319987	0.583515
1.760	2.685507	-0.281638	529.715363	3.122565	17.555424	-0.345483	-3.314124	0.589480
1.770	2.700928	-0.318456	529.810071	3.155874	17.533718	-0.345858	-3.309435	0.595661
1.780	2.717276	-0.357057	529.873905	3.188889	17.518574	-0.348169	-3.306178	0.601820
1.790	2.731840	-0.387507	529.904872	3.220963	17.508953	-0.352575	-3.304169	0.607838
1.800	2.741451	-0.401828	529.909405	3.252221	17.502009	-0.358304	-3.302830	0.613731
1.810	2.742516	-0.396199	529.899554	3.283414	17.494280	-0.363829	-3.301433	0.619629
1.820	2.731879	-0.371694	529.887980	3.315472	17.483276	-0.367523	-3.299429	0.625693
1.830	2.708370	-0.333363	529.882978	3.348909	17.468686	-0.368503	-3.296706	0.632009
1.840	2.674220	-0.288126	529.885869	3.383391	17.452563	-0.367148	-3.293646	0.638513
1.850	2.635521	-0.242401	529.891912	3.417704	17.438370	-0.365002	-3.290930	0.644981
1.860	2.601201	-0.200443	529.894198	3.450141	17.429292	-0.364045	-3.289202	0.651100
1.870	2.580650	-0.163851	529.888558	3.479064	17.426579	-0.365693	-3.288725	0.656565
1.880	2.580739	-0.132075	529.876474	3.503344	17.428653	-0.370043	-3.289192	0.661162
1.890	2.603373	-0.103443	529.863382	3.522501	17.431417	-0.375758	-3.289795	0.664794
1.900	2.644566	-0.076332	529.852791	3.536639	17.429682	-0.380636	-3.289533	0.667476
1.910	2.695518	-0.050166	529.840523	3.546450	17.419177	-0.382565	-3.287626	0.669343
1.920	2.745330	-0.025875	529.814089	3.553462	17.398344	-0.380374	-3.283858	0.670700
1.930	2.784236	-0.005515	529.758432	3.560305	17.369139	-0.374234	-3.278691	0.672062
1.940	2.805928	0.008801	529.664791	3.570508	17.336443	-0.365504	-3.273097	0.674107
1.950	2.808263	0.016170	529.537997	3.587500	17.306286	-0.356192	-3.268186	0.677477
1.960	2.792614	0.017693	529.398922	3.613087	17.283694	-0.348286	-3.264777	0.682489
1.970	2.762667	0.016365	529.280544	3.646184	17.271140	-0.343183	-3.263135	0.688894
1.980	2.723170	0.016111	529.217995	3.682708	17.268217	-0.341325	-3.262969	0.695877
1.990	2.678823	0.020445	529.236133	3.716958	17.272448	-0.342138	-3.263656	0.702325
2.000	2.633458	0.031307	529.340623	3.743970	17.280582	-0.344270	-3.264549	0.707289
2.010	2.589845	0.048491	529.517000	3.761685	17.289640	-0.346071	-3.265172	0.710399
2.020	2.550234	0.069843	529.736860	3.771841	17.297321	-0.346127	-3.265267	0.712022
2.030	2.517152	0.092103	529.966058	3.779135	17.301882	-0.343685	-3.264715	0.713090
2.040	2.493739	0.111953	530.170365	3.789054	17.301793	-0.338822	-3.263440	0.714686
2.050	2.483233	0.126850	530.318604	3.805421	17.295481	-0.332342	-3.261338	0.717573
2.060	2.487877	0.135500	530.386761	3.828747	17.281365	-0.325456	-3.258257	0.721878
2.070	2.507809	0.138094	530.365005	3.856011	17.258185	-0.319376	-3.254020	0.727048
2.080	2.540438	0.136266	530.264500	3.881750	17.225443	-0.314942	-3.248462	0.732040
2.090	2.580627	0.132527	530.118112	3.899904	17.183657	-0.312362	-3.241477	0.735667
2.100	2.621870	0.129118	529.971908	3.905747	17.134254	-0.311166	-3.233049	0.736972
2.110	2.658405	0.126738	529.870010	3.897398	17.079094	-0.310438	-3.223261	0.735539
2.120	2.687537	0.124073	529.839121	3.876554	17.019828	-0.309289	-3.212263	0.731647
2.130	2.711001	0.118742	529.878915	3.848223	16.957371	-0.307322	-3.200235	0.726246
2.140	2.734400	0.109270	529.961826	3.819467	16.891767	-0.304792	-3.187355	0.720706
2.150	2.764765	0.096789	530.042280	3.797449	16.822448	-0.302406	-3.173794	0.716443
2.160	2.807298	0.085263	530.072336	3.787352	16.748774	-0.300965	-3.159715	0.714497
2.170	2.862729	0.079991	530.018707	3.790839	16.670642	-0.301092	-3.145293	0.715227
2.180	2.926355	0.085196	529.875337	3.805567	16.588983	-0.303101	-3.130733	0.718200
2.190	2.989159	0.101927	529.666689	3.825937	16.505892	-0.306934	-3.116279	0.722329
2.200	3.040719	0.127340	529.440288	3.844828	16.424219	-0.312146	-3.102185	0.726206
2.210	3.073066	0.155796	529.251760	3.855802	16.346720	-0.317995	-3.088647	0.728538
2.220	3.084153	0.181242	529.148530	3.855079	16.275234	-0.323696	-3.075740	0.728544
2.230	3.079465	0.199585	529.157798	3.842661	16.210326	-0.328711	-3.063420	0.726184
2.240	3.070714	0.209746	529.281260	3.822250	16.151571	-0.332933	-3.051605	0.722158
2.250	3.071678	0.213002	529.496035	3.800039	16.098216	-0.336591	-3.040290	0.717671
2.260	3.092710	0.211308	529.760151	3.782763	16.049869	-0.339956	-3.029648	0.714052
2.270	3.136409	0.205793	530.021270	3.775626	16.006894	-0.343049	-3.020047	0.712354
2.280	3.196651	0.196393	530.227494	3.780730	15.970365	-0.345575	-3.011984	0.713039
2.290	3.261505	0.182636	530.338405	3.796485	15.941557	-0.347124	-3.005922	0.715861
2.300	3.318523	0.164643	530.334260	3.818134	15.921134	-0.347495	-3.002094	0.719949
2.310	3.359671	0.143307	530.221609	3.839242	15.908355	-0.346909	-3.000322	0.724083
2.320	3.383600	0.119617	530.033258	3.853660	15.900719	-0.345989	-2.999947	0.727060
2.330	3.394581	0.093958	529.820138	3.857255	15.894426	-0.345514	-2.999966	0.728031
2.340	3.399115	0.066214	529.635356	3.848907	15.885687	-0.346087	-2.999363	0.726709
2.350	3.402256	0.036717	529.515936	3.830627	15.872333	-0.347897	-2.997518	0.723420
2.360	3.405616	0.007331	529.470952	3.806927	15.854800	-0.350707	-2.994461	0.719006
2.370	3.407924	-0.018230	529.482364	3.783519	15.835880	-0.354053	-2.990823	0.714569
2.380	3.407387	-0.035321	529.518051	3.765472	15.819466	-0.357488	-2.987522	0.711113
