Time[s]	Fx[N]	Fy[N]	Fz[N]	Mx[Nm]	My[Nm]	Mz[Nm]	COPx[cm]	COPy[cm]
0.010	6.001752	-2.817113	675.554103	8.942434	31.715963	-1.145298	-4.694807	1.323718
0.020	6.358271	-2.843429	673.868160	8.894814	31.579754	-1.156857	-4.686340	1.319964
0.030	6.689116	-2.854884	672.365828	8.857906	31.457342	-1.167027	-4.678605	1.317424
0.040	6.975094	-2.841702	671.202355	8.839491	31.360681	-1.174628	-4.672314	1.316964
0.050	7.206095	-2.801222	670.487289	8.842388	31.298675	-1.179025	-4.668049	1.318800
0.060	7.381134	-2.736651	670.271764	8.864821	31.276550	-1.180442	-4.666249	1.322571
0.070	7.505751	-2.653688	670.544571	8.902537	31.295929	-1.180039	-4.667241	1.327658
0.080	7.588308	-2.557291	671.238505	8.951438	31.355386	-1.179623	-4.671274	1.333570
0.090	7.636928	-2.450384	672.247564	9.009415	31.451263	-1.181075	-4.678524	1.340193
0.100	7.658322	-2.334779	673.451963	9.076685	31.578495	-1.185723	-4.689049	1.347785
0.110	7.658586	-2.213181	674.743446	9.154806	31.731212	-1.193906	-4.702708	1.356783
0.120	7.644879	-2.090657	676.041437	9.245159	31.903063	-1.204818	-4.719099	1.367543
0.130	7.626431	-1.974411	677.293215	9.347785	32.087451	-1.216619	-4.737601	1.380168
0.140	7.613763	-1.871730	678.458475	9.461242	32.278034	-1.226842	-4.757555	1.394520
0.150	7.615932	-1.786822	679.486947	9.583721	32.469715	-1.233163	-4.778564	1.410435
0.160	7.636216	-1.717885	680.301827	9.714982	32.660031	-1.234488	-4.800815	1.428040
0.170	7.667277	-1.655558	680.798381	9.858123	32.850608	-1.232089	-4.825306	1.448024
0.180	7.687570	-1.583349	680.858912	10.020086	33.048140	-1.230231	-4.853890	1.471683
0.190	7.661432	-1.480122	680.379067	10.210270	33.264404	-1.235772	-4.889099	1.500674
0.200	7.544872	-1.324515	679.299382	10.437387	33.514947	-1.256505	-4.933752	1.536493
0.210	7.297398	-1.100726	677.636820	10.705418	33.816412	-1.298554	-4.990345	1.579816
0.220	6.897735	-0.804228	675.509291	11.010082	34.182838	-1.363642	-5.060306	1.629894
0.230	6.358748	-0.445366	673.142714	11.337379	34.621749	-1.447295	-5.143300	1.684246
0.240	5.735143	-0.049124	670.850368	11.665237	35.131232	-1.538799	-5.236821	1.738873
0.250	5.118179	0.349229	668.981761	11.968108	35.699194	-1.623139	-5.336348	1.789004
0.260	4.615559	0.711238	667.850883	12.223131	36.305411	-1.684454	-5.436155	1.830219
0.270	4.321205	1.002850	667.664286	12.415710	36.925972	-1.710052	-5.530620	1.859574
0.280	4.285123	1.200487	668.471727	12.542543	37.538728	-1.693761	-5.615604	1.876301
0.290	4.494881	1.294324	670.155346	12.611199	38.127996	-1.637586	-5.689427	1.881832
0.300	4.875887	1.288318	672.460551	12.636853	38.686964	-1.551161	-5.753046	1.879196
0.310	5.310013	1.197446	675.058023	12.637773	39.217219	-1.449320	-5.809459	1.872102
0.320	5.665426	1.043611	677.616762	12.631152	39.725863	-1.348663	-5.862586	1.864055
0.330	5.827721	0.852022	679.866806	12.630222	40.221425	-1.264171	-5.916074	1.857749
0.340	5.723837	0.648913	681.636730	12.642742	40.709937	-1.206631	-5.972380	1.854762
0.350	5.333923	0.460094	682.861407	12.670598	41.192293	-1.181213	-6.032306	1.855515
0.360	4.690285	0.309221	683.565119	12.710321	41.663470	-1.187249	-6.095026	1.859416
0.370	3.865752	0.215368	683.830658	12.754477	42.113603	-1.219089	-6.158484	1.865151
0.380	2.955656	0.190381	683.765551	12.793832	42.530399	-1.267832	-6.220027	1.871085
0.390	2.058173	0.236873	683.473462	12.819836	42.902045	-1.323522	-6.277061	1.875689
0.400	1.257183	0.347453	683.034921	12.826729	43.219676	-1.377237	-6.327594	1.877902
0.410	0.610495	0.505525	682.498801	12.812652	43.478789	-1.422528	-6.370530	1.877315
0.420	0.144967	0.687850	681.884372	12.779443	43.679466	-1.455897	-6.405700	1.874136
0.430	-0.141377	0.868658	681.192185	12.731255	43.825635	-1.476399	-6.433667	1.868967
0.440	-0.271792	1.024428	680.419576	12.672539	43.923766	-1.484743	-6.455394	1.862460
0.450	-0.280869	1.137875	679.574670	12.606321	43.981450	-1.482374	-6.471908	1.855031
0.460	-0.205576	1.200060	678.683330	12.533571	44.006324	-1.470919	-6.484073	1.846748
0.470	-0.079449	1.210426	677.787194	12.453860	44.005620	-1.452108	-6.492542	1.837429
0.480	0.069840	1.175254	676.935599	12.366696	43.986162	-1.427969	-6.497836	1.826865
0.490	0.220683	1.105182	676.176786	12.272616	43.954362	-1.400924	-6.500425	1.815001
0.500	0.356895	1.012403	675.553061	12.173403	43.915805	-1.373566	-6.500719	1.801991
0.510	0.467021	0.908141	675.101185	12.071399	43.874460	-1.348109	-6.498946	1.788087
0.520	0.543884	0.800960	674.855125	11.968370	43.831901	-1.325814	-6.495009	1.773473
0.530	0.584433	0.696189	674.846218	11.864592	43.787031	-1.306702	-6.488446	1.758118
0.540	0.589764	0.596446	675.097338	11.758665	43.736526	-1.289785	-6.478551	1.741773
0.550	0.564926	0.502852	675.611999	11.648134	43.675725	-1.273701	-6.464616	1.724086
0.560	0.518316	0.416315	676.363640	11.530481	43.599432	-1.257463	-6.446153	1.704775
0.570	0.460831	0.338236	677.291923	11.403870	43.502327	-1.240956	-6.422980	1.683745
0.580	0.405093	0.270127	678.309989	11.267294	43.379046	-1.224931	-6.395165	1.661083
0.590	0.364687	0.212215	679.320726	11.120314	43.224210	-1.210524	-6.362858	1.636976
0.600	0.353161	0.161711	680.235719	10.962789	43.032434	-1.198557	-6.326106	1.611616
0.610	0.382791	0.111880	680.990340	10.794810	42.798240	-1.189014	-6.284706	1.585163
0.620	0.463477	0.052740	681.550991	10.616717	42.516000	-1.180957	-6.238125	1.557729
0.630	0.602181	-0.026510	681.913128	10.429050	42.180320	-1.172887	-6.185586	1.529381
0.640	0.802964	-0.134337	682.091120	10.232436	41.787176	-1.163322	-6.126333	1.500157
0.650	1.067234	-0.274491	682.103718	10.027574	41.335492	-1.151294	-6.060001	1.470095
0.660	1.393549	-0.445424	681.961579	9.815463	40.828345	-1.136549	-5.986898	1.439299
0.670	1.776655	-0.641346	681.663697	9.597914	40.273021	-1.119457	-5.908048	1.408013
0.680	2.206385	-0.853869	681.205138	9.378089	39.679824	-1.100817	-5.824945	1.376691
0.690	2.667728	-1.073170	680.590892	9.160621	39.060210	-1.081746	-5.739161	1.345981
0.700	3.142966	-1.288377	679.845706	8.951053	38.425067	-1.063722	-5.652028	1.316630
0.710	3.615366	-1.487596	679.012716	8.754815	37.783705	-1.048632	-5.564506	1.289345
0.720	4.072584	-1.658353	678.142132	8.576227	37.143626	-1.038678	-5.477263	1.264665
0.730	4.507863	-1.788942	677.278073	8.417877	36.510847	-1.036057	-5.390821	1.242898
0.740	4.918388	-1.870661	676.451812	8.280348	35.890406	-1.042474	-5.305686	1.224085
0.750	5.302019	-1.900330	675.684066	8.162209	35.286816	-1.058627	-5.222384	1.207992
0.760	5.654661	-1.882178	674.992115	8.060270	34.704376	-1.083849	-5.141449	1.194128
0.770	5.969985	-1.828155	674.394647	7.970160	34.147363	-1.116030	-5.063410	1.181824
0.780	6.241553	-1.756221	673.910323	7.887167	33.620105	-1.151892	-4.988810	1.170359
0.790	6.465993	-1.686979	673.551830	7.807082	33.126905	-1.187545	-4.918241	1.159091
0.800	6.645446	-1.639722	673.320512	7.726651	32.671704	-1.219173	-4.852326	1.147544
0.810	6.788061	-1.629082	673.205654	7.643486	32.257512	-1.243707	-4.791628	1.135386
0.820	6.906264	-1.663152	673.189241	7.555734	31.885760	-1.259339	-4.736523	1.122379
0.830	7.013315	-1.743230	673.254059	7.462125	31.555876	-1.265834	-4.687068	1.108367
0.840	7.119300	-1.864713	673.391240	7.362610	31.265340	-1.264576	-4.642968	1.093363
0.850	7.227966	-2.018452	673.603393	7.259130	31.010239	-1.258320	-4.603635	1.077656
0.860	7.335601	-2.192065	673.901369	7.155634	30.786026	-1.250620	-4.568328	1.061822
0.870	7.432510	-2.371096	674.296312	7.056933	30.588047	-1.244990	-4.536292	1.046563
0.880	7.506606	-2.540155	674.791893	6.967001	30.411575	-1.244031	-4.506808	1.032467
0.890	7.547849	-2.684280	675.381558	6.887929	30.251478	-1.248828	-4.479168	1.019857
0.900	7.551876	-2.790671	676.051374	6.820326	30.101916	-1.258872	-4.452608	1.008847
0.910	7.521645	-2.850608	676.784372	6.764814	29.956419	-1.272448	-4.426287	0.999552
0.920	7.466804	-2.861005	677.561861	6.723363	29.808405	-1.287250	-4.399363	0.992288
0.930	7.401220	-2.824961	678.361056	6.699374	29.651899	-1.301014	-4.371109	0.987582
0.940	7.339329	-2.751196	679.152502	6.696317	29.482062	-1.311998	-4.341008	0.985981
0.950	7.292323	-2.652838	679.901173	6.715806	29.295287	-1.319254	-4.308757	0.987762
0.960	7.265566	-2.545932	680.572110	6.756307	29.088921	-1.322645	-4.274186	0.992739
0.970	7.258294	-2.447527	681.137654	6.813211	28.860877	-1.322596	-4.237158	1.000269
0.980	7.265630	-2.372995	681.581638	6.880136	28.609397	-1.319714	-4.197501	1.009437
0.990	7.281930	-2.332700	681.897764	6.950778	28.332993	-1.314454	-4.155021	1.019328
1.000	7.304124	-2.328791	682.083430	7.020676	28.030460	-1.307038	-4.109535	1.029299
1.010	7.333928	-2.353327	682.133029	7.088390	27.700946	-1.297639	-4.060930	1.039151
1.020	7.378238	-2.388888	682.034302	7.155735	27.344182	-1.286669	-4.009209	1.049175
1.030	7.447423	-2.412295	681.769063	7.226899	26.961035	-1.274899	-3.954570	1.060022
1.040	7.551760	-2.400751	681.317731	7.306694	26.554291	-1.263327	-3.897490	1.072436
1.050	7.696969	-2.338426	680.666387	7.398641	26.129331	-1.252859	-3.838787	1.086970
1.060	7.880552	-2.220941	679.814903	7.503716	25.694194	-1.244028	-3.779587	1.103788
1.070	8.090812	-2.056136	678.784408	7.620208	25.258763	-1.236876	-3.721176	1.122626
1.080	8.309489	-1.861194	677.621584	7.744577	24.833265	-1.231079	-3.664769	1.142906
1.090	8.517198	-1.657675	676.396846	7.872742	24.426661	-1.226243	-3.611291	1.163924
1.100	8.699414	-1.466308	675.195112	8.001197	24.045588	-1.222243	-3.561280	1.185020
1.110	8.850439	-1.302774	674.101856	8.127577	23.694159	-1.219384	-3.514923	1.205690
1.120	8.973590	-1.174974	673.190213	8.250630	23.374460	-1.218253	-3.472192	1.225602
1.130	9.077575	-1.081988	672.513753	8.369796	23.087294	-1.219313	-3.432985	1.244554
1.140	9.170788	-1.014905	672.105161	8.484728	22.832808	-1.222493	-3.397208	1.262411
1.150	9.256262	-0.959401	671.977753	8.595083	22.610801	-1.227002	-3.364814	1.279073
1.160	9.329436	-0.899578	672.127008	8.700802	22.420700	-1.231458	-3.335783	1.294517
1.170	9.379425	-0.822099	672.531558	8.802779	22.261327	-1.234265	-3.310079	1.308902
1.180	9.393007	-0.719395	673.155024	8.903483	22.130622	-1.234086	-3.287597	1.322650
1.190	9.359752	-0.591020	673.950168	9.006983	22.025449	-1.230221	-3.268112	1.336446
1.200	9.276472	-0.443082	674.865242	9.118216	21.941607	-1.222764	-3.251257	1.351117
1.210	9.149432	-0.286344	675.850445	9.241740	21.874004	-1.212504	-3.236515	1.367424
1.220	8.993497	-0.133555	676.861801	9.380510	21.816995	-1.200697	-3.223257	1.385883
1.230	8.828526	0.003721	677.860715	9.535099	21.764851	-1.188871	-3.210815	1.406646
1.240	8.674347	0.118381	678.809347	9.703503	21.712285	-1.178713	-3.198584	1.429489
1.250	8.545985	0.210417	679.664459	9.881502	21.654821	-1.171913	-3.186105	1.453879
1.260	8.450652	0.287868	680.374799	10.063446	21.588755	-1.169838	-3.173068	1.479103
1.270	8.387500	0.365315	680.886708	10.243400	21.510744	-1.173120	-3.159225	1.504421
1.280	8.350111	0.459936	681.157758	10.416496	21.417368	-1.181415	-3.144260	1.529234
1.290	8.330515	0.586069	681.171851	10.579983	21.305055	-1.193457	-3.127706	1.553203
1.300	8.322926	0.750018	680.946663	10.733368	21.170510	-1.207385	-3.108982	1.576242
1.310	8.325817	0.946981	680.527835	10.877434	21.011624	-1.221175	-3.087548	1.598382
1.320	8.342010	1.161265	679.972011	11.012665	20.828628	-1.233110	-3.063160	1.619576
1.330	8.377152	1.369816	679.327715	11.137913	20.625071	-1.242164	-3.036100	1.639549
1.340	8.437336	1.547939	678.624302	11.249924	20.408006	-1.248175	-3.007261	1.657754
1.350	8.526518	1.675500	677.873564	11.343863	20.187005	-1.251710	-2.977990	1.673448
1.360	8.644268	1.741740	677.080728	11.414634	19.972302	-1.253720	-2.949767	1.685860
1.370	8.784340	1.747344	676.257578	11.458549	19.772884	-1.255183	-2.923869	1.694406
1.380	8.934649	1.703542	675.431575	11.474764	19.595305	-1.256913	-2.901153	1.698879
1.390	9.079096	1.629068	674.648052	11.465876	19.443462	-1.259508	-2.882016	1.699534
1.400	9.201083	1.546068	673.964954	11.437298	19.319059	-1.263351	-2.866478	1.697017
1.410	9.287699	1.475576	673.441176	11.395475	19.222297	-1.268586	-2.854339	1.692126
1.420	9.332893	1.432901	673.121658	11.345660	19.152498	-1.275105	-2.845325	1.685529
1.430	9.338103	1.423692	673.024682	11.290336	19.108626	-1.282535	-2.839216	1.677552
1.440	9.309855	1.442153	673.137137	11.229094	19.089760	-1.290303	-2.835939	1.668173
1.450	9.255468	1.472841	673.420197	11.159969	19.095379	-1.297773	-2.835582	1.657207
1.460	9.179112	1.496234	673.822665	11.081479	19.125269	-1.304450	-2.838324	1.644569
1.470	9.080230	1.496369	674.296117	10.994306	19.179043	-1.310105	-2.844306	1.630486
1.480	8.954920	1.467314	674.806694	10.901835	19.255466	-1.314742	-2.853479	1.615549
1.490	8.799319	1.415404	675.340976	10.809397	19.351833	-1.318437	-2.865491	1.600584
1.500	8.613178	1.356052	675.905161	10.722609	19.463577	-1.321182	-2.879631	1.586407
1.510	8.402137	1.306671	676.517610	10.645525	19.584245	-1.322822	-2.894861	1.573577
1.520	8.177862	1.279081	677.196167	10.579238	19.705953	-1.323138	-2.909933	1.562212
1.530	7.956111	1.274803	677.944105	10.521423	19.820345	-1.322012	-2.923596	1.551960
1.540	7.753582	1.285013	678.740377	10.466965	19.919838	-1.319585	-2.934824	1.542116
1.550	7.584841	1.294628	679.538871	10.409510	19.998787	-1.316359	-2.942994	1.531849
1.560	7.460194	1.288244	680.277531	10.343325	20.054100	-1.313199	-2.947929	1.520457
1.570	7.384585	1.255177	680.893378	10.264682	20.085048	-1.311247	-2.949808	1.507531
1.580	7.357226	1.191714	681.336516	10.172095	20.092381	-1.311672	-2.948966	1.492962
1.590	7.371951	1.100305	681.577461	10.065295	20.077249	-1.315274	-2.945703	1.476765
1.600	7.418486	0.986842	681.607021	9.943554	20.040482	-1.322082	-2.940181	1.458840
1.610	7.484582	0.857738	681.432674	9.804456	19.982502	-1.331144	-2.932425	1.438800
1.620	7.558451	0.718004	681.076163	9.643970	19.903784	-1.340685	-2.922402	1.415990
1.630	7.630764	0.570398	680.573922	9.457819	19.805511	-1.348595	-2.910119	1.389683
1.640	7.695863	0.415015	679.978070	9.243306	19.690018	-1.353125	-2.895684	1.359354
1.650	7.752308	0.249001	679.354232	9.000580	19.560715	-1.353504	-2.879310	1.324873
1.660	7.802880	0.067031	678.774143	8.732761	19.421455	-1.350144	-2.861254	1.286549
1.670	7.853815	-0.136584	678.304183	8.445084	19.275636	-1.344288	-2.841739	1.245029
1.680	7.913008	-0.364309	677.993096	8.143764	19.125588	-1.337274	-2.820912	1.201157
1.690	7.987415	-0.611843	677.862347	7.835408	18.972609	-1.329832	-2.798888	1.155900
1.700	8.080401	-0.866484	677.901853	7.527224	18.817486	-1.321788	-2.775842	1.110371
1.710	8.189910	-1.108443	678.072854	7.227591	18.660954	-1.312259	-2.752057	1.065902
1.720	8.308104	-1.314837	678.317780	6.946172	18.503673	-1.300161	-2.727877	1.024029
1.730	8.422658	-1.465122	678.573974	6.693011	18.345833	-1.284742	-2.703586	0.986335
1.740	8.519511	-1.546273	678.786099	6.476817	18.186890	-1.265934	-2.679326	0.954176
1.750	8.586566	-1.556161	678.913119	6.303126	18.025831	-1.244445	-2.655101	0.928414
1.760	8.617603	-1.504051	678.928903	6.173133	17.861940	-1.221570	-2.630900	0.909246
1.770	8.615270	-1.408084	678.818853	6.083594	17.695616	-1.198764	-2.606825	0.896203
1.780	8.591751	-1.290693	678.576828	6.027798	17.528690	-1.177089	-2.583155	0.888300
1.790	8.566182	-1.173780	678.205478	5.997317	17.364058	-1.156817	-2.560295	0.884292
1.800	8.559418	-1.075093	677.719313	5.983855	17.204923	-1.137417	-2.538650	0.882940
1.810	8.588421	-1.006168	677.146608	5.980518	17.054219	-1.117986	-2.518542	0.883194
1.820	8.662708	-0.971332	676.526634	5.982223	16.914576	-1.097922	-2.500208	0.884255
1.830	8.783694	-0.967503	675.902107	5.985548	16.788713	-1.077467	-2.483897	0.885564
1.840	8.945908	-0.985112	675.310154	5.988438	16.679791	-1.057794	-2.469945	0.886769
1.850	9.138443	-1.010590	674.776168	5.989946	16.591278	-1.040605	-2.458782	0.887694
1.860	9.346038	-1.030084	674.313245	5.989952	16.526331	-1.027448	-2.450839	0.888304
1.870	9.550534	-1.033005	673.926754	5.988986	16.487044	-1.019126	-2.446415	0.888670
1.880	9.733601	-1.013681	673.620906	5.988260	16.474063	-1.015427	-2.445599	0.888966
1.890	9.880369	-0.970390	673.403529	5.989869	16.486734	-1.015286	-2.448270	0.889492
1.900	9.982568	-0.902693	673.287037	5.996815	16.523659	-1.017284	-2.454177	0.890677
1.910	10.039864	-0.809009	673.286142	6.012624	16.583350	-1.020259	-2.463046	0.893027
1.920	10.058925	-0.686109	673.413968	6.040593	16.664687	-1.023703	-2.474657	0.897010
1.930	10.050514	-0.530885	673.677506	6.082922	16.767024	-1.027785	-2.488880	0.902943
1.940	10.025499	-0.343343	674.072951	6.139966	16.889983	-1.033048	-2.505661	0.910876
1.950	9.991225	-0.128992	674.582290	6.209792	17.033036	-1.039994	-2.524975	0.920539
1.960	9.949798	0.100802	675.173135	6.288105	17.195016	-1.048783	-2.546757	0.931332
1.970	9.899111	0.330666	675.802380	6.368611	17.373707	-1.059128	-2.570827	0.942378
1.980	9.836012	0.544294	676.421836	6.443788	17.565750	-1.070374	-2.596863	0.952629
1.990	9.759784	0.727335	676.983166	6.505963	17.767112	-1.081706	-2.624454	0.961023
2.000	9.673844	0.869223	677.441314	6.548491	17.974105	-1.092402	-2.653234	0.966651
2.010	9.584675	0.964045	677.757899	6.566739	18.184576	-1.102077	-2.683049	0.968892
2.020	9.498570	1.011062	677.905922	6.558542	18.398689	-1.110782	-2.714047	0.967471
2.030	9.417962	1.015210	677.875030	6.523962	18.618795	-1.118900	-2.746641	0.962414
2.040	9.339335	0.986963	677.674953	6.464501	18.848440	-1.126913	-2.781339	0.953924
2.050	9.253874	0.940537	677.334994	6.382103	19.090997	-1.135208	-2.818546	0.942237
2.060	9.150669	0.890112	676.898890	6.278332	19.348630	-1.144010	-2.858422	0.927514
2.070	9.020998	0.845201	676.416373	6.153930	19.622080	-1.153408	-2.900888	0.909784
2.080	8.861672	0.807290	675.934703	6.008721	19.911227	-1.163380	-2.945732	0.888950
2.090	8.675923	0.769447	675.493836	5.841731	20.215931	-1.173775	-2.992763	0.864809
2.100	8.471578	0.719060	675.126830	5.651406	20.536534	-1.184271	-3.041878	0.837088
2.110	8.257615	0.642325	674.863753	5.435949	20.873662	-1.194330	-3.093019	0.805488
2.120	8.040927	0.528574	674.735080	5.193775	21.227464	-1.203163	-3.146044	0.769750
2.130	7.824642	0.372863	674.771326	4.924065	21.596780	-1.209773	-3.200607	0.729738
2.140	7.608280	0.176130	674.998748	4.627414	21.978701	-1.213105	-3.256110	0.685544
2.150	7.389007	-0.056869	675.433736	4.306459	22.368694	-1.212283	-3.311753	0.637584
2.160	7.162905	-0.320611	676.078546	3.966227	22.761118	-1.206807	-3.366638	0.586652
2.170	6.925708	-0.611109	676.919329	3.613842	23.149807	-1.196655	-3.419877	0.533866
2.180	6.673293	-0.926101	677.926243	3.257472	23.528496	-1.182301	-3.470657	0.480505
2.190	6.402714	-1.263095	679.055381	2.904881	23.891018	-1.164690	-3.518272	0.427783
2.200	6.114150	-1.616596	680.252261	2.562196	24.231279	-1.145211	-3.562102	0.376654
2.210	5.813178	-1.976200	681.455812	2.233314	24.543124	-1.125648	-3.601572	0.327727
2.220	5.512095	-2.326646	682.601284	1.920074	24.820254	-1.108081	-3.636128	0.281288
2.230	5.228962	-2.649860	683.621763	1.622984	25.056451	-1.094671	-3.665251	0.237410
2.240	4.984047	-2.928196	684.450185	1.342063	25.246191	-1.087314	-3.688536	0.196079
2.250	4.794798	-3.147733	685.024252	1.077382	25.385491	-1.087235	-3.705780	0.157277
2.260	4.671589	-3.300659	685.294305	0.829094	25.472648	-1.094653	-3.717038	0.120984
2.270	4.616265	-3.386312	685.231404	0.597140	25.508620	-1.108618	-3.722629	0.087144
2.280	4.624044	-3.411006	684.832344	0.380959	25.497002	-1.127118	-3.723101	0.055628
2.290	4.687517	-3.386987	684.119844	0.179445	25.443601	-1.147458	-3.719173	0.026230
2.300	4.800535	-3.330639	683.137955	-0.008735	25.355741	-1.166848	-3.711657	-0.001279
2.310	4.960108	-3.259773	681.944152	-0.184521	25.241477	-1.183040	-3.701399	-0.027058
2.320	5.165528	-3.190206	680.600810	-0.347779	25.109047	-1.194760	-3.689247	-0.051099
2.330	5.415396	-3.132556	679.168972	-0.496951	24.966711	-1.201767	-3.676068	-0.073170
2.340	5.704210	-3.090520	677.705967	-0.629295	24.822931	-1.204524	-3.662788	-0.092857
2.350	6.020171	-3.061209	676.266432	-0.741681	24.686561	-1.203734	-3.650419	-0.109673
2.360	6.345032	-3.037111	674.904821	-0.831550	24.566706	-1.200061	-3.640025	-0.123210
2.370	6.656008	-3.008725	673.677187	-0.897629	24.472128	-1.194220	-3.632619	-0.133243
