Time[s]	Fx[N]	Fy[N]	Fz[N]	Mx[Nm]	My[Nm]	Mz[Nm]	COPx[cm]	COPy[cm]
0.010	2.213979	-0.664721	705.910753	2.114875	-10.368385	-0.862536	1.468795	0.299595
0.020	1.843487	-0.948002	706.725388	1.864429	-10.394800	-0.872727	1.470840	0.263812
0.030	1.488091	-1.216586	707.037820	1.609371	-10.421897	-0.876306	1.474023	0.227622
0.040	1.169710	-1.459316	706.470969	1.347695	-10.451303	-0.869010	1.479368	0.190764
0.050	0.921231	-1.671123	704.847957	1.081299	-10.487410	-0.850030	1.487897	0.153409
0.060	0.782520	-1.852672	702.202853	0.816629	-10.537327	-0.822115	1.500610	0.116295
0.070	0.790834	-2.008092	698.733508	0.563774	-10.609504	-0.790552	1.518391	0.080685
0.080	0.969484	-2.142529	694.725154	0.333942	-10.711370	-0.761453	1.541814	0.048068
0.090	1.319062	-2.260850	690.475716	0.136000	-10.846741	-0.739972	1.570908	0.019697
0.100	1.814475	-2.367594	686.243642	-0.026559	-11.013906	-0.729014	1.604956	-0.003870
0.110	2.409040	-2.467010	682.225697	-0.156825	-11.205074	-0.728783	1.642429	-0.022987
0.120	3.044436	-2.561864	678.560979	-0.263183	-11.407382	-0.737219	1.681114	-0.038785
0.130	3.663141	-2.650761	675.349695	-0.356010	-11.605146	-0.751061	1.718391	-0.052715
0.140	4.218855	-2.725666	672.672173	-0.443836	-11.782582	-0.767116	1.751608	-0.065981
0.150	4.681369	-2.772209	670.596886	-0.530630	-11.926049	-0.783301	1.778423	-0.079128
0.160	5.035112	-2.774256	669.175264	-0.615316	-12.025181	-0.799145	1.797015	-0.091951
0.170	5.273697	-2.721483	668.430360	-0.693563	-12.073012	-0.815621	1.806173	-0.103760
0.180	5.394431	-2.616470	668.349861	-0.760921	-12.065748	-0.834343	1.805304	-0.113851
0.190	5.396224	-2.477464	668.889679	-0.815890	-12.002898	-0.856480	1.794451	-0.121977
0.200	5.281871	-2.334680	669.986348	-0.861563	-11.887836	-0.881822	1.774340	-0.128594
0.210	5.062688	-2.220935	671.570917	-0.905097	-11.728228	-0.908469	1.746387	-0.134773
0.220	4.761703	-2.160350	673.577198	-0.955247	-11.535679	-0.933242	1.712599	-0.141817
0.230	4.412393	-2.160110	675.941321	-1.019034	-11.324302	-0.952697	1.675338	-0.150758
0.240	4.052636	-2.208958	678.593644	-1.098880	-11.108557	-0.964295	1.636997	-0.161935
0.250	3.716088	-2.282844	681.447102	-1.191209	-10.900930	-0.967283	1.599674	-0.174806
0.260	3.424299	-2.354755	684.388111	-1.286898	-10.710076	-0.962984	1.564913	-0.188036
0.270	3.182467	-2.403943	687.276444	-1.373473	-10.539945	-0.954440	1.533582	-0.199843
0.280	2.980409	-2.420545	689.957667	-1.438467	-10.390304	-0.945564	1.505934	-0.208486
0.290	2.798536	-2.404496	692.285929	-1.473013	-10.258764	-0.940066	1.481868	-0.212775
0.300	2.616958	-2.360800	694.149264	-1.474489	-10.143792	-0.940479	1.461327	-0.212417
0.310	2.424898	-2.294604	695.487586	-1.447291	-10.047637	-0.947577	1.444690	-0.208097
0.320	2.227504	-2.208681	696.296862	-1.401469	-9.977926	-0.960335	1.432999	-0.201275
0.330	2.047812	-2.103920	696.619306	-1.349715	-9.947272	-0.976360	1.427935	-0.193752
0.340	1.922770	-1.981883	696.525237	-1.303840	-9.970913	-0.992572	1.431522	-0.187192
0.350	1.893899	-1.847814	696.094455	-1.271961	-10.063161	-1.005965	1.445660	-0.182728
0.360	1.994950	-1.712473	695.403085	-1.257162	-10.233827	-1.014337	1.471640	-0.180782
0.370	2.240422	-1.591587	694.517782	-1.257605	-10.485887	-1.016853	1.509808	-0.181076
0.380	2.619335	-1.502700	693.495566	-1.267584	-10.815213	-1.014272	1.559522	-0.182782
0.390	3.097474	-1.460383	692.385614	-1.279064	-11.212298	-1.008643	1.619372	-0.184733
0.400	3.628160	-1.471478	691.229409	-1.283473	-11.665021	-1.002563	1.687576	-0.185680
0.410	4.167513	-1.531880	690.058062	-1.273565	-12.161066	-0.998262	1.762325	-0.184559
0.420	4.687531	-1.625797	688.889021	-1.245104	-12.688926	-0.996904	1.841940	-0.180741
0.430	5.181186	-1.727905	687.725984	-1.198058	-13.237441	-0.998338	1.924813	-0.174206
0.440	5.658028	-1.808277	686.563952	-1.137039	-13.794786	-1.001335	2.009250	-0.165613
0.450	6.133741	-1.839152	685.397390	-1.070768	-14.348052	-1.004093	2.093392	-0.156226
0.460	6.619575	-1.801835	684.227054	-1.010610	-14.883883	-1.004766	2.175284	-0.147701
0.470	7.116184	-1.691951	683.061711	-0.968513	-15.389693	-1.001840	2.253046	-0.141790
0.480	7.612779	-1.521626	681.913945	-0.954926	-15.854529	-0.994366	2.325004	-0.140036
0.490	8.089650	-1.317838	680.792338	-0.977172	-16.269020	-0.982060	2.389718	-0.143535
0.500	8.521879	-1.116938	679.694022	-1.038560	-16.624612	-0.965287	2.445896	-0.152798
0.510	8.883394	-0.956592	678.601749	-1.138425	-16.912843	-0.944946	2.492308	-0.167760
0.520	9.151506	-0.867591	677.488935	-1.273089	-17.125307	-0.922265	2.527762	-0.187913
0.530	9.311572	-0.868275	676.333692	-1.437422	-17.254462	-0.898562	2.551176	-0.212532
0.540	9.360468	-0.963118	675.138115	-1.626403	-17.294913	-0.874976	2.561685	-0.240899
0.550	9.307371	-1.145023	673.944551	-1.836060	-17.244711	-0.852225	2.558773	-0.272435
0.560	9.171329	-1.399303	672.840791	-2.063542	-17.106290	-0.830479	2.542398	-0.306691
0.570	8.976409	-1.707233	671.951207	-2.306438	-16.886927	-0.809488	2.513118	-0.343245
0.580	8.745929	-2.048107	671.416330	-2.561767	-16.598683	-0.788990	2.472189	-0.381547
0.590	8.497421	-2.400012	671.366202	-2.825065	-16.257821	-0.769257	2.421603	-0.420793
0.600	8.239838	-2.740169	671.894496	-3.089962	-15.883732	-0.751512	2.364022	-0.459888
0.610	7.974089	-3.045585	673.041322	-3.348393	-15.497463	-0.737955	2.302602	-0.497502
0.620	7.696835	-3.294560	674.789922	-3.591410	-15.119950	-0.731290	2.240690	-0.532226
0.630	7.405877	-3.469291	677.075461	-3.810341	-14.770053	-0.733877	2.181449	-0.562765
0.640	7.104393	-3.559260	679.797753	-3.998052	-14.462522	-0.746850	2.127474	-0.588124
0.650	6.801851	-3.564167	682.829825	-4.150040	-14.206218	-0.769538	2.080492	-0.607771
0.660	6.511265	-3.494846	686.020170	-4.265142	-14.003066	-0.799423	2.041203	-0.621723
0.670	6.244639	-3.371402	689.193214	-4.345749	-13.848234	-0.832594	2.009340	-0.630556
0.680	6.009393	-3.219355	692.155121	-4.397478	-13.731769	-0.864521	1.983915	-0.635331
0.690	5.807918	-3.065339	694.709235	-4.428328	-13.641437	-0.890939	1.963618	-0.637436
0.700	5.640488	-2.933582	696.679504	-4.447377	-13.566043	-0.908655	1.947243	-0.638368
0.710	5.509695	-2.843464	697.935329	-4.463223	-13.498198	-0.916125	1.934018	-0.639490
0.720	5.423574	-2.807899	698.410223	-4.482539	-13.435626	-0.913671	1.923744	-0.641820
0.730	5.395243	-2.832222	698.108834	-4.509106	-13.380682	-0.903300	1.916704	-0.645903
0.740	5.438808	-2.913777	697.100663	-4.543619	-13.338350	-0.888201	1.913404	-0.651788
0.750	5.563203	-3.042758	695.502869	-4.584246	-13.313508	-0.872045	1.914228	-0.659127
0.760	5.766693	-3.204524	693.457670	-4.627584	-13.308396	-0.858206	1.919136	-0.667320
0.770	6.034495	-3.382698	691.110705	-4.669441	-13.321105	-0.849050	1.927492	-0.675643
0.780	6.340746	-3.561791	688.595559	-4.705101	-13.345522	-0.845502	1.938078	-0.683290
0.790	6.654276	-3.728566	686.027586	-4.729303	-13.372700	-0.847049	1.949295	-0.689375
0.800	6.946158	-3.872495	683.506896	-4.736507	-13.393109	-0.852143	1.959469	-0.692971
0.810	7.196336	-3.986138	681.126392	-4.721857	-13.398939	-0.858821	1.967174	-0.693242
0.820	7.396968	-4.065654	678.978144	-4.682598	-13.385690	-0.865333	1.971446	-0.689654
0.830	7.551441	-4.110709	677.152601	-4.619222	-13.352589	-0.870675	1.971873	-0.682154
0.840	7.669776	-4.123078	675.729883	-4.535600	-13.301799	-0.874962	1.968508	-0.671215
0.850	7.762759	-4.104288	674.767621	-4.437867	-13.236792	-0.879532	1.961682	-0.657688
0.860	7.837307	-4.053586	674.291980	-4.332514	-13.160472	-0.886624	1.951747	-0.642528
0.870	7.894380	-3.967543	674.296042	-4.224530	-13.073713	-0.898618	1.938868	-0.626510
0.880	7.929303	-3.841707	674.744735	-4.116294	-12.974811	-0.917059	1.922921	-0.610052
0.890	7.933810	-3.673542	675.582614	-4.007368	-12.859983	-0.941960	1.903540	-0.593172
0.900	7.899251	-3.465047	676.741710	-3.894980	-12.724706	-0.971733	1.880290	-0.575549
0.910	7.820295	-3.223570	678.148650	-3.774953	-12.565413	-1.003835	1.852899	-0.556656
0.920	7.698044	-2.960425	679.730345	-3.642935	-12.380989	-1.035779	1.821456	-0.535938
0.930	7.541248	-2.688173	681.416856	-3.495703	-12.173571	-1.065999	1.786509	-0.513005
0.940	7.364743	-2.417812	683.140541	-3.332135	-11.948199	-1.094175	1.749010	-0.487767
0.950	7.185044	-2.156879	684.831898	-3.153448	-11.711220	-1.120947	1.710087	-0.460470
0.960	7.014143	-1.908919	686.413822	-2.962664	-11.467830	-1.147272	1.670687	-0.431615
0.970	6.853682	-1.674378	687.797700	-2.763589	-11.219769	-1.173800	1.631260	-0.401803
0.980	6.692470	-1.452365	688.886257	-2.559862	-10.964289	-1.200487	1.591596	-0.371594
0.990	6.509817	-1.242330	689.586885	-2.354530	-10.695065	-1.226475	1.550938	-0.341441
1.000	6.284661	-1.044726	689.834377	-2.150151	-10.404914	-1.250211	1.508321	-0.311691
1.010	6.006922	-0.860338	689.615475	-1.948924	-10.089306	-1.269768	1.463034	-0.282610
1.020	5.685434	-0.688669	688.983570	-1.752334	-9.749231	-1.283325	1.415016	-0.254336
1.030	5.347944	-0.526349	688.053723	-1.560435	-9.392082	-1.289691	1.365022	-0.226790
1.040	5.032578	-0.366802	686.976098	-1.371537	-9.029986	-1.288726	1.314454	-0.199648
1.050	4.774128	-0.202120	685.895971	-1.183036	-8.675982	-1.281516	1.264912	-0.172480
1.060	4.590449	-0.026945	684.915339	-0.993298	-8.339304	-1.270199	1.217567	-0.145025
1.070	4.473742	0.157246	684.071103	-0.803693	-8.021421	-1.257444	1.172600	-0.117487
1.080	4.389665	0.339785	683.338013	-0.619618	-7.714460	-1.245696	1.128938	-0.090675
1.090	4.284901	0.502063	682.654365	-0.449900	-7.402880	-1.236403	1.084426	-0.065905
1.100	4.101719	0.622519	681.959941	-0.304815	-7.068031	-1.229450	1.036429	-0.044697
1.110	3.795966	0.683833	681.232050	-0.193701	-6.694021	-1.223000	0.982635	-0.028434
1.120	3.353247	0.679553	680.506796	-0.123199	-6.272743	-1.213872	0.921775	-0.018104
1.130	2.797531	0.617174	679.878003	-0.096602	-5.806368	-1.198421	0.854031	-0.014209
1.140	2.188264	0.515725	679.474659	-0.114069	-5.306677	-1.173704	0.780997	-0.016788
1.150	1.605932	0.398284	679.425706	-0.173111	-4.791753	-1.138521	0.705265	-0.025479
1.160	1.130356	0.282571	679.824313	-0.268811	-4.281436	-1.093966	0.629786	-0.039541
1.170	0.818976	0.174460	680.702318	-0.393716	-3.793214	-1.043254	0.557250	-0.057840
1.180	0.692676	0.068044	682.021311	-0.537817	-3.339816	-0.990903	0.489694	-0.078856
1.190	0.733971	-0.047962	683.681218	-0.689197	-2.928835	-0.941573	0.428392	-0.100807
1.200	0.897302	-0.181584	685.541153	-0.835512	-2.563854	-0.898992	0.373990	-0.121876
1.210	1.126105	-0.331599	687.443699	-0.965920	-2.246089	-0.865313	0.326731	-0.140509
1.220	1.369026	-0.486572	689.235373	-1.072711	-1.975688	-0.841030	0.286649	-0.155638
1.230	1.589396	-0.627947	690.780689	-1.152060	-1.752115	-0.825319	0.253643	-0.166777
1.240	1.766493	-0.734668	691.970817	-1.203741	-1.573588	-0.816575	0.227407	-0.173958
1.250	1.891262	-0.787478	692.728513	-1.230147	-1.436114	-0.812994	0.207313	-0.177580
1.260	1.960884	-0.772559	693.010652	-1.235162	-1.332958	-0.813089	0.192343	-0.178231
1.270	1.975461	-0.684808	692.809438	-1.223278	-1.255197	-0.816056	0.181175	-0.176568
1.280	1.937674	-0.530460	692.152534	-1.199005	-1.193360	-0.821879	0.172413	-0.173228
1.290	1.854166	-0.327843	691.100801	-1.166597	-1.139511	-0.831123	0.164883	-0.168803
1.300	1.736586	-0.104997	689.741762	-1.130148	-1.088751	-0.844494	0.157849	-0.163851
1.310	1.600712	0.105920	688.178465	-1.094059	-1.039286	-0.862332	0.151020	-0.158979
1.320	1.463333	0.275860	686.515760	-1.063493	-0.990842	-0.884166	0.144329	-0.154912
1.330	1.337976	0.385282	684.847558	-1.044249	-0.942145	-0.908497	0.137570	-0.152479
1.340	1.231261	0.427662	683.248689	-1.041750	-0.888831	-0.932920	0.130089	-0.152470
1.350	1.141459	0.409401	681.774065	-1.059525	-0.823145	-0.954584	0.120736	-0.155407
1.360	1.059985	0.346592	680.465827	-1.098068	-0.735922	-0.970851	0.108150	-0.161370
1.370	0.975615	0.259822	679.366157	-1.154791	-0.620222	-0.979934	0.091294	-0.169981
1.380	0.879926	0.168396	678.530187	-1.225139	-0.475013	-0.981342	0.070006	-0.180558
1.390	0.771440	0.085471	678.032162	-1.304372	-0.307273	-0.976090	0.045318	-0.192376
1.400	0.655919	0.015676	677.960413	-1.389369	-0.131482	-0.966681	0.019394	-0.204934
1.410	0.542138	-0.043919	678.401151	-1.479903	0.033271	-0.956765	-0.004904	-0.218146
1.420	0.435430	-0.100265	679.414891	-1.579072	0.167358	-0.950376	-0.024633	-0.232416
1.430	0.333186	-0.160494	681.011685	-1.692799	0.254286	-0.950783	-0.037339	-0.248571
1.440	0.225671	-0.230052	683.132878	-1.828512	0.282857	-0.959338	-0.041406	-0.267666
1.450	0.102280	-0.313410	685.646625	-1.993246	0.247482	-0.974818	-0.036095	-0.290710
1.460	-0.040112	-0.416074	688.360625	-2.191518	0.146982	-0.993659	-0.021353	-0.318368
1.470	-0.191165	-0.545736	691.050188	-2.423485	-0.017443	-1.011082	0.002524	-0.350696
1.480	-0.326155	-0.711071	693.494812	-2.684012	-0.244391	-1.022711	0.035241	-0.387027
1.490	-0.409953	-0.918234	695.513226	-2.963138	-0.533982	-1.026064	0.076775	-0.426036
1.500	-0.404049	-1.166735	696.986074	-3.247888	-0.888546	-1.021310	0.127484	-0.465990
1.510	-0.274710	-1.446958	697.859032	-3.524767	-1.311747	-1.010969	0.187967	-0.505083
1.520	-0.000893	-1.740743	698.127180	-3.781958	-1.806057	-0.998740	0.258700	-0.541729
1.530	0.419452	-2.024894	697.810484	-4.010618	-2.369370	-0.988090	0.339543	-0.574743
1.540	0.966556	-2.276184	696.934108	-4.205215	-2.992270	-0.981300	0.429348	-0.603388
1.550	1.601546	-2.476074	695.522773	-4.363302	-3.657375	-0.979297	0.525845	-0.627341
1.560	2.275322	-2.613672	693.608894	-4.485081	-4.341219	-0.982087	0.625889	-0.646630
1.570	2.941087	-2.686229	691.246817	-4.572875	-5.018025	-0.989280	0.725938	-0.661540
1.580	3.565307	-2.697455	688.524640	-4.630460	-5.664032	-1.000300	0.822633	-0.672519
1.590	4.132364	-2.654848	685.568921	-4.662259	-6.261116	-1.014207	0.913273	-0.680057
1.600	4.642091	-2.567545	682.541252	-4.672551	-6.798978	-1.029397	0.996127	-0.684581
1.610	5.103504	-2.445572	679.626774	-4.664938	-7.275659	-1.043527	1.070537	-0.686397
1.620	5.528943	-2.300260	677.014450	-4.642207	-7.696384	-1.053958	1.136812	-0.685688
1.630	5.930311	-2.144844	674.870165	-4.606512	-8.070812	-1.058675	1.195906	-0.682577
1.640	6.316351	-1.994234	673.307159	-4.559709	-8.409143	-1.057320	1.248931	-0.677211
1.650	6.689447	-1.863562	672.362353	-4.503711	-8.717962	-1.051762	1.296617	-0.669834
1.660	7.042195	-1.765643	671.988436	-4.440804	-8.997129	-1.045825	1.338882	-0.660845
1.670	7.355834	-1.707843	672.068019	-4.373853	-9.238823	-1.044165	1.374686	-0.650805
1.680	7.602907	-1.689154	672.448364	-4.306271	-9.429313	-1.050745	1.402236	-0.640387
1.690	7.754659	-1.698616	672.986603	-4.241660	-9.553067	-1.067505	1.419503	-0.630274
1.700	7.790920	-1.716298	673.590110	-4.183189	-9.597925	-1.093725	1.424891	-0.621029
1.710	7.708432	-1.717408	674.237448	-4.132751	-9.559524	-1.126236	1.417828	-0.612952
1.720	7.523792	-1.678859	674.972358	-4.090098	-9.443383	-1.160339	1.399077	-0.605965
1.730	7.269225	-1.586195	675.873929	-4.052294	-9.263875	-1.191077	1.370651	-0.599564
1.740	6.982408	-1.438334	677.015159	-4.014073	-9.040492	-1.214396	1.335346	-0.592907
1.750	6.694210	-1.248400	678.425458	-3.969402	-8.792738	-1.227895	1.296051	-0.585090
1.760	6.419316	-1.040594	680.069826	-3.913909	-8.535366	-1.231043	1.255072	-0.575516
1.770	6.153374	-0.844347	681.851009	-3.847120	-8.275394	-1.225008	1.213666	-0.564217
1.780	5.877377	-0.687428	683.633165	-3.773363	-8.011766	-1.212279	1.171939	-0.551957
1.790	5.567136	-0.589652	685.278322	-3.700716	-7.737709	-1.196170	1.129134	-0.540031
1.800	5.204200	-0.558635	686.682517	-3.638413	-7.445121	-1.180227	1.084216	-0.529854
1.810	4.784521	-0.588682	687.798897	-3.593894	-7.129571	-1.167559	1.036578	-0.522521
1.820	4.322070	-0.663210	688.640379	-3.570785	-6.794141	-1.160166	0.986602	-0.518527
1.830	3.846188	-0.759915	689.262901	-3.568450	-6.450530	-1.158482	0.935859	-0.517720
1.840	3.393381	-0.856714	689.738087	-3.582894	-6.116932	-1.161312	0.886849	-0.519457
1.850	2.996244	-0.936195	690.127515	-3.608403	-5.813689	-1.166327	0.842408	-0.522860
1.860	2.673668	-0.987342	690.467851	-3.639321	-5.558656	-1.170967	0.805056	-0.527080
1.870	2.426318	-1.005005	690.769239	-3.671583	-5.364098	-1.173338	0.776540	-0.531521
1.880	2.239286	-0.988608	691.023032	-3.703723	-5.235796	-1.172675	0.757688	-0.535977
1.890	2.090639	-0.941398	691.212232	-3.737079	-5.173940	-1.169217	0.748531	-0.540656
1.900	1.962002	-0.870379	691.318757	-3.774984	-5.174776	-1.163659	0.748537	-0.546056
1.910	1.846707	-0.786158	691.325217	-3.821142	-5.232253	-1.156540	0.756844	-0.552727
1.920	1.752390	-0.701861	691.213416	-3.877860	-5.339330	-1.147892	0.772457	-0.561022
1.930	1.697652	-0.631206	690.964219	-3.945081	-5.488910	-1.137303	0.794384	-0.570953
1.940	1.704923	-0.586575	690.561353	-4.020822	-5.674366	-1.124340	0.821703	-0.582254
1.950	1.792614	-0.577791	689.997151	-4.102878	-5.889621	-1.109027	0.853572	-0.594623
1.960	1.968860	-0.611626	689.275929	-4.190956	-6.128805	-1.092052	0.889166	-0.608023
1.970	2.227777	-0.691586	688.412795	-4.288135	-6.385578	-1.074548	0.927580	-0.622902
1.980	2.548618	-0.817443	687.429737	-4.400856	-6.652402	-1.057556	0.967721	-0.640190
1.990	2.898240	-0.984342	686.352954	-4.537253	-6.920166	-1.041512	1.008252	-0.661067
2.000	3.236928	-1.181935	685.214133	-4.704415	-7.178639	-1.026056	1.047649	-0.686561
2.010	3.526659	-1.394532	684.055304	-4.905634	-7.417966	-1.010284	1.084410	-0.717140
2.020	3.739928	-1.603117	682.934334	-5.138764	-7.630973	-0.993236	1.117380	-0.752454
2.030	3.866827	-1.789070	681.927509	-5.396442	-7.815526	-0.974319	1.146093	-0.791351
2.040	3.918097	-1.938381	681.126710	-5.668143	-7.976042	-0.953479	1.171007	-0.832172
2.050	3.922517	-2.044932	680.629786	-5.943233	-8.123403	-0.931190	1.193513	-0.873196
2.060	3.918650	-2.111945	680.523934	-6.213757	-8.273040	-0.908348	1.215687	-0.913084
2.070	3.943183	-2.151493	680.864406	-6.475977	-8.441500	-0.886112	1.239821	-0.951141
2.080	4.019797	-2.182318	681.654446	-6.730453	-8.642443	-0.865666	1.267863	-0.987370
2.090	4.152527	-2.226346	682.834312	-6.980996	-8.883290	-0.847910	1.300944	-1.022356
2.100	4.325948	-2.304497	684.285270	-7.233073	-9.163651	-0.833160	1.339157	-1.057026
2.110	4.511879	-2.432758	685.849256	-7.492192	-9.476029	-0.820972	1.381649	-1.092396
2.120	4.679915	-2.619540	687.358972	-7.762687	-9.808557	-0.810224	1.426992	-1.129350
2.130	4.807940	-2.865033	688.669166	-8.047134	-10.148818	-0.799494	1.473686	-1.168505
2.140	4.889262	-3.162592	689.679226	-8.346272	-10.487319	-0.787613	1.520608	-1.210167
2.150	4.934461	-3.501429	690.340228	-8.659048	-10.819330	-0.774189	1.567246	-1.254316
2.160	4.967650	-3.869319	690.645236	-8.982407	-11.144390	-0.759884	1.613620	-1.300582
2.170	5.018305	-4.253954	690.608388	-9.310831	-11.463937	-0.746337	1.659977	-1.348207
2.180	5.111199	-4.642500	690.243323	-9.636103	-11.778384	-0.735730	1.706410	-1.396044
2.190	5.258098	-5.020214	689.551773	-9.947917	-12.085272	-0.730132	1.752627	-1.442664
2.200	5.454852	-5.369865	688.527496	-10.235438	-12.379412	-0.730835	1.797955	-1.486569
2.210	5.685178	-5.673143	687.172377	-10.489163	-12.654802	-0.737913	1.841576	-1.526424
2.220	5.928759	-5.913614	685.515293	-10.702090	-12.907090	-0.750157	1.882830	-1.561175
2.230	6.168883	-6.079454	683.623194	-10.869625	-13.135129	-0.765417	1.921399	-1.590002
2.240	6.395693	-6.164263	681.598050	-10.988457	-13.340745	-0.781269	1.957275	-1.612161
2.250	6.604347	-6.165797	679.560594	-11.055248	-13.526868	-0.795736	1.990532	-1.626823
2.260	6.790467	-6.084105	677.628378	-11.065964	-13.695076	-0.807845	2.021030	-1.633043
2.270	6.946343	-5.921144	675.898320	-11.016359	-13.843876	-0.817832	2.048219	-1.629884
2.280	7.060324	-5.682787	674.441209	-10.903659	-13.968599	-0.827037	2.071137	-1.616695
2.290	7.119657	-5.382261	673.308690	-10.729051	-14.062895	-0.837573	2.088625	-1.593482
2.300	7.115085	-5.042785	672.546430	-10.500110	-14.121075	-0.851843	2.099643	-1.561247
2.310	7.044800	-4.697246	672.205141	-10.232094	-14.140360	-0.871918	2.103578	-1.522168
2.320	6.915996	-4.383972	672.344038	-9.947169	-14.122345	-0.898767	2.100464	-1.479476
2.330	6.743603	-4.139431	673.024967	-9.671292	-14.073335	-0.931574	2.091057	-1.436989
