Time[s]	Fx[N]	Fy[N]	Fz[N]	Mx[Nm]	My[Nm]	Mz[Nm]	COPx[cm]	COPy[cm]
0.010	2.196168	2.693256	704.767693	8.020865	20.333475	-0.385351	-2.885132	1.138086
0.020	2.720462	2.677220	699.897425	7.818321	19.630064	-0.381998	-2.804706	1.117067
0.030	3.221718	2.661528	695.171673	7.620298	18.955793	-0.378380	-2.726779	1.096175
0.040	3.677130	2.645462	690.709572	7.430101	18.337208	-0.374659	-2.654836	1.075720
0.050	4.059954	2.627502	686.606619	7.249574	17.796951	-0.371184	-2.592016	1.055856
0.060	4.341343	2.605170	682.944883	7.079850	17.352102	-0.368085	-2.540776	1.036665
0.070	4.496545	2.575484	679.814838	6.922574	17.012822	-0.364849	-2.502567	1.018303
0.080	4.513572	2.536041	677.333737	6.780714	16.781527	-0.360261	-2.477586	1.001089
0.090	4.399576	2.486025	675.647821	6.658206	16.652910	-0.352840	-2.464732	0.985455
0.100	4.180430	2.426321	674.915127	6.558359	16.614995	-0.341557	-2.461790	0.971731
0.110	3.893004	2.358684	675.275295	6.481714	16.651018	-0.326409	-2.465812	0.959862
0.120	3.574663	2.284642	676.817354	6.424427	16.741513	-0.308529	-2.473564	0.949211
0.130	3.256251	2.204717	679.554765	6.378017	16.865976	-0.289770	-2.481916	0.938558
0.140	2.961899	2.117809	683.410746	6.330637	17.003865	-0.272017	-2.488089	0.926330
0.150	2.713890	2.020574	688.211427	6.269394	17.135159	-0.256635	-2.489810	0.910969
0.160	2.537309	1.907099	693.684479	6.182873	17.241035	-0.244239	-2.485429	0.891309
0.170	2.459608	1.769668	699.465833	6.063108	17.305021	-0.234736	-2.474034	0.866820
0.180	2.503734	1.600815	705.120525	5.906661	17.314567	-0.227465	-2.455547	0.837681
0.190	2.678084	1.395908	710.181299	5.714936	17.262533	-0.221353	-2.430722	0.804715
0.200	2.969092	1.155024	714.202083	5.493962	17.148040	-0.215137	-2.401007	0.769245
0.210	3.341331	0.883441	716.817228	5.253602	16.976349	-0.207688	-2.368295	0.732907
0.220	3.746046	0.590979	717.794228	5.006119	16.757758	-0.198387	-2.334619	0.697431
0.230	4.134729	0.290792	717.067781	4.764357	16.505723	-0.187434	-2.301836	0.664422
0.240	4.472076	-0.001968	714.746479	4.540048	16.234514	-0.175978	-2.271367	0.635197
0.250	4.743341	-0.271455	711.090090	4.342637	15.956888	-0.166009	-2.244004	0.610701
0.260	4.953967	-0.502387	706.463810	4.178629	15.682455	-0.159936	-2.219853	0.591485
0.270	5.122352	-0.681452	701.282271	4.051256	15.417427	-0.159925	-2.198462	0.577693
0.280	5.268779	-0.799044	695.957623	3.960301	15.165941	-0.167228	-2.179147	0.569043
0.290	5.404738	-0.851090	690.862212	3.902134	14.932222	-0.181768	-2.161389	0.564821
0.300	5.526998	-0.840278	686.309074	3.870134	14.722337	-0.202110	-2.145147	0.563905
0.310	5.619028	-0.776038	682.546453	3.855705	14.544508	-0.225752	-2.130918	0.564900
0.320	5.658858	-0.673151	679.758767	3.850038	14.407883	-0.249672	-2.119558	0.566383
0.330	5.629231	-0.549361	678.066659	3.846397	14.320547	-0.271031	-2.111967	0.567259
0.340	5.525003	-0.422530	677.522302	3.842162	14.287885	-0.287864	-2.108844	0.567090
0.350	5.354462	-0.307895	678.101800	3.839628	14.312081	-0.299545	-2.110609	0.566232
0.360	5.134566	-0.215954	679.701626	3.844962	14.392654	-0.306800	-2.117496	0.565684
0.370	4.883222	-0.151420	682.146631	3.865694	14.527275	-0.311256	-2.129641	0.566695
0.380	4.613108	-0.113347	685.211940	3.907887	14.712000	-0.314734	-2.147073	0.570318
0.390	4.330252	-0.096105	688.653345	3.974116	14.940683	-0.318602	-2.169551	0.577085
0.400	4.037387	-0.090763	692.236052	4.062780	15.204107	-0.323466	-2.196376	0.586907
0.410	3.739135	-0.086741	695.753015	4.168668	15.489739	-0.329254	-2.226327	0.599159
0.420	3.445284	-0.073856	699.030872	4.284437	15.782730	-0.335555	-2.257802	0.612911
0.430	3.170010	-0.044593	701.928819	4.402549	16.067937	-0.341930	-2.289112	0.627207
0.440	2.927847	0.004077	704.337762	4.516947	16.331973	-0.348018	-2.318770	0.641304
0.450	2.729337	0.070257	706.182998	4.623853	16.564125	-0.353451	-2.345585	0.654767
0.460	2.579213	0.148363	707.428571	4.721526	16.755824	-0.357730	-2.368553	0.667421
0.470	2.477876	0.231431	708.079943	4.809515	16.899336	-0.360238	-2.386642	0.679233
0.480	2.424768	0.313136	708.183065	4.888036	16.986902	-0.360485	-2.398660	0.690222
0.490	2.421375	0.388441	707.818566	4.957680	17.011153	-0.358539	-2.403321	0.700417
0.500	2.472232	0.452798	707.088860	5.019242	16.966838	-0.355418	-2.399534	0.709846
0.510	2.583468	0.500972	706.096404	5.073414	16.853108	-0.353155	-2.386800	0.718516
0.520	2.759332	0.526926	704.916366	5.120380	16.675363	-0.354353	-2.365580	0.726381
0.530	2.997682	0.525567	703.574394	5.159583	16.445898	-0.361332	-2.337478	0.733339
0.540	3.285927	0.495718	702.043063	5.189832	16.183047	-0.375235	-2.305136	0.739247
0.550	3.599297	0.442740	700.263708	5.209786	15.908949	-0.395526	-2.271851	0.743975
0.560	3.903150	0.379148	698.187530	5.218621	15.646324	-0.420103	-2.240992	0.747453
0.570	4.159625	0.322567	695.819641	5.216643	15.414979	-0.445913	-2.215370	0.749712
0.580	4.336741	0.291593	693.247648	5.205576	15.228990	-0.469766	-2.196760	0.750897
0.590	4.416269	0.301225	690.642582	5.188410	15.095398	-0.489014	-2.185703	0.751244
0.600	4.396939	0.359621	688.231429	5.168945	15.014654	-0.501939	-2.181629	0.751048
0.610	4.291843	0.466967	686.251933	5.151269	14.982341	-0.507855	-2.183213	0.750638
0.620	4.121915	0.616038	684.906134	5.139393	14.991280	-0.507033	-2.188808	0.750379
0.630	3.909044	0.793638	684.326569	5.137106	15.033310	-0.500576	-2.196803	0.750681
0.640	3.671797	0.982475	684.561070	5.147785	15.100431	-0.490256	-2.205856	0.751983
0.650	3.424454	1.163470	685.574164	5.173733	15.185397	-0.478229	-2.214990	0.754657
0.660	3.178122	1.318520	687.259389	5.214861	15.281982	-0.466536	-2.223612	0.758791
0.670	2.942192	1.433282	689.457723	5.267226	15.385096	-0.456504	-2.231478	0.763967
0.680	2.725176	1.499228	691.979394	5.322450	15.490768	-0.448303	-2.238617	0.769163
0.690	2.534848	1.514311	694.626661	5.368791	15.595892	-0.440943	-2.245219	0.772903
0.700	2.378049	1.482221	697.214307	5.393822	15.697690	-0.432730	-2.251487	0.773625
0.710	2.260563	1.410733	699.584801	5.387769	15.792948	-0.422013	-2.257474	0.770138
0.720	2.187337	1.309804	701.616656	5.346180	15.877272	-0.407854	-2.262955	0.761980
0.730	2.162897	1.189765	703.226070	5.270888	15.944632	-0.390381	-2.267355	0.749530
0.740	2.191359	1.059785	704.362823	5.169002	15.987565	-0.370748	-2.269791	0.733855
0.750	2.275422	0.926774	705.002529	5.050541	15.998287	-0.350800	-2.269252	0.716386
0.760	2.414391	0.794966	705.138824	4.925693	15.970673	-0.332628	-2.264898	0.698542
0.770	2.602025	0.666269	704.779191	4.802569	15.902510	-0.318130	-2.256382	0.681429
0.780	2.825189	0.541226	703.946036	4.685768	15.797063	-0.308626	-2.244073	0.665643
0.790	3.064078	0.420132	702.681740	4.575774	15.663085	-0.304558	-2.229044	0.651187
0.800	3.294440	0.303766	701.054877	4.469133	15.513066	-0.305299	-2.212818	0.637487
0.810	3.491745	0.193224	699.164865	4.359536	15.360262	-0.309183	-2.196944	0.623535
0.820	3.636478	0.088901	697.142695	4.239894	15.215545	-0.313840	-2.182558	0.608182
0.830	3.719022	-0.010742	695.145550	4.105031	15.085103	-0.316780	-2.170064	0.590528
0.840	3.742535	-0.109684	693.343745	3.954022	14.969672	-0.316045	-2.159055	0.570283
0.850	3.722909	-0.213585	691.900376	3.791062	14.865354	-0.310664	-2.148482	0.547920
0.860	3.685777	-0.327995	690.947380	3.624429	14.765547	-0.300823	-2.137000	0.524559
0.870	3.661298	-0.456393	690.564158	3.464095	14.663265	-0.287776	-2.123375	0.501633
0.880	3.677703	-0.598955	690.764122	3.319053	14.553251	-0.273587	-2.106834	0.480490
0.890	3.754657	-0.752347	691.491695	3.195370	14.433453	-0.260765	-2.087292	0.462098
0.900	3.897584	-0.910219	692.630548	3.095455	14.305589	-0.251793	-2.065400	0.446913
0.910	4.094579	-1.063934	694.022980	3.018452	14.174640	-0.248559	-2.042388	0.434921
0.920	4.317710	-1.203489	695.497606	2.961187	14.047371	-0.251830	-2.019758	0.425765
0.930	4.529621	-1.319026	696.898162	2.919124	13.930300	-0.260941	-1.998900	0.418874
0.940	4.694171	-1.403059	698.104363	2.887021	13.827790	-0.273917	-1.980763	0.413552
0.950	4.787646	-1.452989	699.039247	2.859350	13.740886	-0.288029	-1.965682	0.409040
0.960	4.806188	-1.472931	699.664230	2.830642	13.667239	-0.300567	-1.953400	0.404571
0.970	4.766341	-1.473883	699.968406	2.795920	13.602058	-0.309467	-1.943239	0.399435
0.980	4.698484	-1.471756	699.959419	2.751210	13.539707	-0.313545	-1.934356	0.393053
0.990	4.635800	-1.483738	699.659755	2.693995	13.475429	-0.312365	-1.925998	0.385044
1.000	4.603010	-1.524264	699.107122	2.623457	13.406650	-0.305962	-1.917682	0.375258
1.010	4.608926	-1.601837	698.354570	2.540427	13.333386	-0.294673	-1.909257	0.363773
1.020	4.645186	-1.717159	697.467217	2.447100	13.257706	-0.279136	-1.900836	0.350855
1.030	4.691160	-1.862516	696.516307	2.346640	13.182567	-0.260348	-1.892643	0.336911
1.040	4.722946	-2.022557	695.573684	2.242841	13.110490	-0.239671	-1.884846	0.322445
1.050	4.723227	-2.177007	694.708487	2.139800	13.042490	-0.218683	-1.877405	0.308014
1.060	4.688581	-2.305411	693.984996	2.041556	12.977491	-0.198920	-1.869996	0.294179
1.070	4.631660	-2.392934	693.459389	1.951704	12.912408	-0.181531	-1.862028	0.281445
1.080	4.577549	-2.435300	693.174275	1.873096	12.842951	-0.166952	-1.852774	0.270220
1.090	4.555813	-2.440830	693.151212	1.807697	12.765039	-0.154733	-1.841595	0.260794
1.100	4.591150	-2.428379	693.381638	1.756631	12.676554	-0.143651	-1.828222	0.253343
1.110	4.695443	-2.421557	693.817281	1.720534	12.579095	-0.132201	-1.813027	0.247981
1.120	4.862997	-2.441345	694.363965	1.700226	12.479225	-0.119289	-1.797217	0.244861
1.130	5.069777	-2.499877	694.885954	1.697608	12.388571	-0.104803	-1.782821	0.244300
1.140	5.277011	-2.597401	695.226928	1.716298	12.322307	-0.089764	-1.772415	0.246869
1.150	5.438893	-2.722736	695.246733	1.761487	12.296068	-0.076002	-1.768591	0.253361
1.160	5.513099	-2.855980	694.864549	1.838893	12.322130	-0.065562	-1.773314	0.264640
1.170	5.471748	-2.971679	694.094083	1.953365	12.406084	-0.060053	-1.787378	0.281427
1.180	5.309753	-3.041355	693.056862	2.107955	12.545109	-0.060069	-1.810113	0.304153
1.190	5.047686	-3.035868	691.965142	2.303726	12.728289	-0.064827	-1.839441	0.332925
1.200	4.727574	-2.929169	691.076154	2.539981	12.938740	-0.072225	-1.872260	0.367540
1.210	4.402642	-2.704497	690.631025	2.814349	13.156846	-0.079412	-1.905047	0.407504
1.220	4.124506	-2.361856	690.798429	3.122552	13.363759	-0.083694	-1.934538	0.452021
1.230	3.932050	-1.923215	691.639825	3.458127	13.544489	-0.083356	-1.958315	0.499990
1.240	3.844742	-1.431539	693.102039	3.812625	13.690145	-0.078044	-1.975199	0.550081
1.250	3.860945	-0.942164	695.031919	4.176642	13.799009	-0.068653	-1.985378	0.600928
1.260	3.960467	-0.508944	697.203449	4.541606	13.876245	-0.056896	-1.990272	0.651403
1.270	4.110136	-0.170240	699.350339	4.901683	13.932235	-0.044841	-1.992168	0.700891
1.280	4.271067	0.060246	701.201556	5.254873	13.979932	-0.034511	-1.993711	0.749410
1.290	4.406200	0.195080	702.518470	5.602612	14.031965	-0.027567	-1.997380	0.797504
1.300	4.486805	0.267457	703.129543	5.948016	14.098383	-0.025050	-2.005090	0.845935
1.310	4.496765	0.320840	702.955271	6.293664	14.185684	-0.027226	-2.018007	0.895315
1.320	4.433539	0.397048	702.016129	6.640059	14.297144	-0.033575	-2.036583	0.945856
1.330	4.305347	0.525571	700.420680	6.985374	14.433912	-0.042950	-2.060749	0.997311
1.340	4.125430	0.716229	698.337962	7.326280	14.596192	-0.053820	-2.090133	1.049102
1.350	3.905701	0.956866	695.964139	7.659155	14.784088	-0.064585	-2.124260	1.100510
1.360	3.652407	1.217070	693.494386	7.981127	14.998093	-0.073973	-2.162684	1.150857
1.370	3.365315	1.457501	691.106378	8.290830	15.239225	-0.081586	-2.205048	1.199646
1.380	3.040375	1.642333	688.955537	8.588850	15.508801	-0.088426	-2.251060	1.246648
1.390	2.674447	1.750791	687.178447	8.877705	15.807813	-0.097095	-2.300394	1.291907
1.400	2.270076	1.783935	685.899863	9.161137	16.136003	-0.111366	-2.352530	1.335638
1.410	1.838323	1.764794	685.238138	9.442805	16.490807	-0.135111	-2.406580	1.378033
1.420	1.398507	1.732353	685.303472	9.724774	16.866463	-0.170917	-2.461167	1.419046
1.430	0.974866	1.731450	686.185242	10.006326	17.253591	-0.218935	-2.514422	1.458254
1.440	0.591150	1.801287	687.929559	10.283488	17.639557	-0.276456	-2.564152	1.494846
1.450	0.264613	1.965276	690.513638	10.549418	18.009739	-0.338401	-2.608166	1.527764
1.460	0.001320	2.224638	693.826180	10.795485	18.349469	-0.398459	-2.644678	1.555935
1.470	-0.205167	2.557307	697.662079	11.012673	18.646078	-0.450492	-2.672652	1.578511
1.480	-0.370291	2.922333	701.736164	11.192896	18.890320	-0.489793	-2.691940	1.595029
1.490	-0.510625	3.268604	705.715061	11.330008	19.076672	-0.513999	-2.703169	1.605465
1.500	-0.634514	3.545677	709.260133	11.420415	19.202550	-0.523507	-2.707406	1.610187
1.510	-0.735636	3.714133	712.071107	11.463339	19.267006	-0.521293	-2.705770	1.609859
1.520	-0.793081	3.753095	713.921083	11.460834	19.269708	-0.512109	-2.699137	1.605336
1.530	-0.778639	3.663525	714.677391	11.417715	19.210624	-0.501230	-2.688013	1.597604
1.540	-0.668599	3.467170	714.306862	11.341478	19.090404	-0.493115	-2.672577	1.587760
1.550	-0.454979	3.202138	712.868110	11.242093	18.911107	-0.490410	-2.652820	1.577023
1.560	-0.151053	2.916417	710.496545	11.131335	18.676959	-0.493579	-2.628719	1.566698
1.570	0.211435	2.660296	707.387751	11.021399	18.394910	-0.501220	-2.600400	1.558042
1.580	0.592087	2.478040	703.781215	10.922887	18.074825	-0.510841	-2.568245	1.552029
1.590	0.954393	2.399348	699.942373	10.842719	17.729064	-0.519748	-2.532932	1.549087
1.600	1.275913	2.432342	696.140058	10.782777	17.371415	-0.525784	-2.495391	1.548938
1.610	1.552370	2.560819	692.619564	10.739897	17.015728	-0.527749	-2.456721	1.550620
1.620	1.794350	2.747751	689.576380	10.707329	16.674828	-0.525547	-2.418126	1.552740
1.630	2.018135	2.944733	687.138424	10.677288	16.360113	-0.520073	-2.380905	1.553877
1.640	2.234607	3.104691	685.363027	10.643825	16.081684	-0.512884	-2.346448	1.553020
1.650	2.441146	3.193882	684.249579	10.605059	15.848431	-0.505671	-2.316177	1.549882
1.660	2.620247	3.199344	683.762748	10.563973	15.667451	-0.499683	-2.291358	1.544976
1.670	2.745574	3.129484	683.857682	10.527430	15.542720	-0.495322	-2.272800	1.539418
1.680	2.792951	3.008029	684.498018	10.503758	15.473569	-0.492105	-2.260572	1.534520
1.690	2.751761	2.864177	685.659137	10.499890	15.453937	-0.489001	-2.253880	1.531357
1.700	2.631994	2.723094	687.313817	10.519238	15.473137	-0.484993	-2.251248	1.530486
1.710	2.463608	2.600319	689.405458	10.561221	15.518219	-0.479609	-2.250957	1.531932
1.720	2.287655	2.501475	691.821919	10.622487	15.577215	-0.473213	-2.251622	1.535437
1.730	2.142085	2.426138	694.385403	10.699076	15.642083	-0.466945	-2.252651	1.540798
1.740	2.047946	2.372888	696.868233	10.788367	15.710196	-0.462386	-2.254400	1.548122
1.750	2.002122	2.342591	699.033098	10.889884	15.783649	-0.461083	-2.257926	1.557850
1.760	1.980203	2.338613	700.685286	11.004472	15.866467	-0.464039	-2.264421	1.570530
1.770	1.948398	2.364690	701.718983	11.132162	15.960719	-0.471307	-2.274517	1.586413
1.780	1.879176	2.422141	702.141616	11.269822	16.063138	-0.481760	-2.287735	1.605064
1.790	1.763702	2.507694	702.068252	11.409938	16.163754	-0.493216	-2.302305	1.625189
1.800	1.615905	2.612439	701.688227	11.541287	16.247148	-0.502941	-2.315437	1.644788
1.810	1.467056	2.722017	701.214205	11.651217	16.295819	-0.508419	-2.323943	1.661577
1.820	1.353883	2.818085	700.827539	11.728537	16.294396	-0.508090	-2.325022	1.673527
1.830	1.305846	2.881068	700.634081	11.765850	16.233211	-0.501789	-2.316931	1.679315
1.840	1.337034	2.893885	700.642145	11.760563	16.110203	-0.490743	-2.299348	1.678541
1.850	1.445380	2.845797	700.768801	11.714420	15.930868	-0.477168	-2.273342	1.671653
1.860	1.617742	2.735257	700.872386	11.632043	15.706650	-0.463590	-2.241014	1.659652
1.870	1.836403	2.570905	700.800146	11.519279	15.452523	-0.452093	-2.204983	1.643732
1.880	2.082838	2.370471	700.434171	11.382011	15.184496	-0.443732	-2.167869	1.624994
1.890	2.337719	2.157742	699.720401	11.225570	14.917558	-0.438296	-2.131931	1.604294
1.900	2.579325	1.958122	698.674423	11.054581	14.664238	-0.434494	-2.098866	1.582222
1.910	2.783359	1.793709	697.368401	10.873025	14.433784	-0.430494	-2.069750	1.559151
1.920	2.925679	1.679066	695.909124	10.684601	14.231851	-0.424627	-2.045073	1.535344
1.930	2.987230	1.618785	694.416265	10.493423	14.060654	-0.415980	-2.024816	1.511114
1.940	2.959250	1.607433	693.005584	10.304938	13.919477	-0.404702	-2.008566	1.486992
1.950	2.846607	1.631877	691.777698	10.126614	13.805450	-0.391945	-1.995648	1.463854
1.960	2.667882	1.675322	690.811229	9.967870	13.714511	-0.379502	-1.985276	1.442922
1.970	2.451815	1.721989	690.159371	9.838969	13.642440	-0.369293	-1.976709	1.425608
1.980	2.230926	1.761221	689.849625	9.748954	13.585809	-0.362855	-1.969387	1.413200
1.990	2.034007	1.789905	689.886259	9.703227	13.542542	-0.360994	-1.963011	1.406497
2.000	1.879604	1.812437	690.254663	9.701611	13.511890	-0.363630	-1.957522	1.405512
2.010	1.772484	1.838188	690.926595	9.737691	13.493782	-0.369814	-1.952998	1.409367
2.020	1.704262	1.877309	691.865353	9.799806	13.487826	-0.377916	-1.949487	1.416433
2.030	1.658156	1.936355	693.029399	9.873448	13.492299	-0.385976	-1.946858	1.424680
2.040	1.616343	2.015153	694.372383	9.944332	13.503557	-0.392179	-1.944714	1.432132
2.050	1.567025	2.105725	695.838126	10.001107	13.516155	-0.395247	-1.942428	1.437275
2.060	1.508148	2.193500	697.352318	10.036905	13.523751	-0.394563	-1.939300	1.439288
2.070	1.446398	2.260494	698.816971	10.049517	13.520426	-0.390033	-1.934759	1.438076
2.080	1.392688	2.289755	700.114884	10.040639	13.501789	-0.381904	-1.928511	1.434142
2.090	1.356940	2.269946	701.126956	10.014739	13.465320	-0.370757	-1.920525	1.428377
2.100	1.344544	2.198910	701.757393	9.977880	13.409901	-0.357676	-1.910903	1.421842
2.110	1.355433	2.085271	701.956528	9.936485	13.335085	-0.344397	-1.899702	1.415541
2.120	1.385299	1.947619	701.732260	9.896022	13.240666	-0.333187	-1.886854	1.410228
2.130	1.427861	1.811345	701.147550	9.859685	13.126688	-0.326402	-1.872172	1.406221
2.140	1.477191	1.703601	700.307623	9.827439	12.993542	-0.325886	-1.855405	1.403303
2.150	1.529649	1.647265	699.342599	9.795863	12.841769	-0.332456	-1.836263	1.400725
2.160	1.585279	1.655157	698.389700	9.759002	12.671551	-0.345653	-1.814396	1.397358
2.170	1.648453	1.726108	697.576292	9.709997	12.482130	-0.363779	-1.789357	1.391962
2.180	1.727312	1.844340	697.003053	9.642923	12.271492	-0.384169	-1.760608	1.383484
2.190	1.831716	1.982761	696.727206	9.554226	12.036619	-0.403662	-1.727594	1.371301
2.200	1.970129	2.109423	696.749169	9.443430	11.774483	-0.419211	-1.689917	1.355356
2.210	2.146512	2.195157	697.008868	9.313041	11.483656	-0.428555	-1.647562	1.336144
2.220	2.358336	2.220053	697.396690	9.167852	11.165927	-0.430805	-1.601087	1.314582
2.230	2.596288	2.177019	697.778658	9.013935	10.827136	-0.426765	-1.551658	1.291804
2.240	2.845834	2.071741	698.029196	8.857630	10.476651	-0.418804	-1.500890	1.268948
2.250	3.090461	1.919644	698.061166	8.704731	10.125534	-0.410240	-1.450522	1.246987
2.260	3.315812	1.741456	697.843369	8.559806	9.784118	-0.404363	-1.402051	1.226608
2.270	3.513256	1.559203	697.400865	8.425512	9.459876	-0.403463	-1.356447	1.208130
2.280	3.681381	1.393522	696.801089	8.301965	9.156199	-0.408231	-1.314033	1.191440
2.290	3.824875	1.261922	696.134267	8.186411	8.872204	-0.417740	-1.274496	1.175982
2.300	3.951436	1.176979	695.496128	8.073558	8.603338	-0.429919	-1.237007	1.160834
2.310	4.068154	1.143958	694.976008	7.956588	8.342575	-0.442245	-1.200412	1.144872
2.320	4.178851	1.158368	694.648912	7.828562	8.081997	-0.452342	-1.163465	1.126981
2.330	4.283442	1.204742	694.569099	7.683807	7.814458	-0.458330	-1.125080	1.106270
2.340	4.379612	1.257921	694.763968	7.519035	7.534854	-0.458989	-1.084520	1.082243
2.350	4.466064	1.287479	695.228469	7.334078	7.240611	-0.453880	-1.041472	1.054916
2.360	4.545651	1.265029	695.921288	7.132092	6.931429	-0.443502	-0.996008	1.024842
2.370	4.626607	1.172907	696.765266	6.919160	6.608587	-0.429402	-0.948467	0.993040
2.380	4.721174	1.011371	697.654730	6.703344	6.274284	-0.414061	-0.899339	0.960840
