Time[s]	Fx[N]	Fy[N]	Fz[N]	Mx[Nm]	My[Nm]	Mz[Nm]	COPx[cm]	COPy[cm]
0.010	4.686104	2.470239	578.086951	-0.685605	3.012753	-0.533056	-0.521159	-0.118599
0.020	4.658428	2.431550	578.336422	-0.701041	3.031499	-0.541141	-0.524176	-0.121217
0.030	4.635313	2.395065	578.618549	-0.713384	3.038427	-0.547459	-0.525117	-0.123291
0.040	4.624350	2.362068	578.943588	-0.720669	3.023984	-0.550992	-0.522328	-0.124480
0.050	4.636930	2.332313	579.291554	-0.722350	2.982799	-0.551772	-0.514905	-0.124695
0.060	4.684183	2.304712	579.617249	-0.719365	2.914842	-0.550973	-0.502891	-0.124110
0.070	4.770734	2.278757	579.866301	-0.713872	2.825471	-0.550502	-0.487262	-0.123110
0.080	4.890091	2.255745	579.994391	-0.708807	2.724295	-0.552222	-0.469711	-0.122209
0.090	5.024676	2.238769	579.982574	-0.707266	2.622981	-0.557132	-0.452252	-0.121946
0.100	5.150734	2.231181	579.844629	-0.711645	2.532357	-0.564906	-0.436730	-0.122730
0.110	5.245888	2.234317	579.625051	-0.722753	2.459512	-0.573996	-0.424328	-0.124693
0.120	5.296167	2.245898	579.388096	-0.739336	2.405918	-0.582232	-0.415252	-0.127606
0.130	5.300144	2.260102	579.200472	-0.758462	2.367469	-0.587658	-0.408748	-0.130950
0.140	5.269061	2.269292	579.112573	-0.776675	2.336549	-0.589297	-0.403471	-0.134115
0.150	5.222915	2.266544	579.144017	-0.791410	2.305205	-0.587545	-0.398037	-0.136652
0.160	5.183295	2.248067	579.277904	-0.801976	2.268049	-0.584035	-0.391530	-0.138444
0.170	5.165151	2.214809	579.465726	-0.809756	2.223879	-0.581018	-0.383781	-0.139742
0.180	5.170887	2.172743	579.642083	-0.817635	2.175703	-0.580478	-0.375353	-0.141059
0.190	5.189813	2.131512	579.745048	-0.828926	2.129448	-0.583384	-0.367308	-0.142981
0.200	5.203531	2.101614	579.734997	-0.846093	2.091912	-0.589393	-0.360839	-0.145945
0.210	5.194810	2.091057	579.604816	-0.869569	2.068569	-0.597108	-0.356893	-0.150028
0.220	5.155852	2.102795	579.378650	-0.896995	2.061838	-0.604676	-0.355871	-0.154820
0.230	5.092338	2.134032	579.101972	-0.923303	2.070310	-0.610371	-0.357504	-0.159437
0.240	5.021622	2.177620	578.828282	-0.941788	2.089141	-0.612959	-0.360926	-0.162706
0.250	4.966002	2.224871	578.606363	-0.945931	2.111375	-0.611853	-0.364907	-0.163484
0.260	4.944081	2.268573	578.469654	-0.931365	2.129708	-0.607166	-0.368162	-0.161005
0.270	4.963958	2.305040	578.429049	-0.897259	2.138244	-0.599698	-0.369664	-0.155120
0.280	5.020873	2.334518	578.471752	-0.846588	2.133972	-0.590843	-0.368898	-0.146349
0.290	5.099562	2.359940	578.568005	-0.785190	2.117737	-0.582353	-0.366031	-0.135713
0.300	5.179493	2.384733	578.683431	-0.720044	2.094425	-0.575911	-0.361929	-0.124428
0.310	5.240555	2.410831	578.790767	-0.657465	2.072107	-0.572631	-0.358006	-0.113593
0.320	5.267529	2.437961	578.875342	-0.601834	2.060113	-0.572677	-0.355882	-0.103966
0.330	5.252839	2.464514	578.933263	-0.555099	2.066416	-0.575179	-0.356935	-0.095883
0.340	5.197613	2.489375	578.966160	-0.517031	2.095143	-0.578500	-0.361877	-0.089302
0.350	5.110992	2.513343	578.977808	-0.486069	2.145174	-0.580706	-0.370511	-0.083953
0.360	5.007584	2.538942	578.974896	-0.460433	2.210500	-0.580085	-0.381795	-0.079525
0.370	4.903395	2.568540	578.969312	-0.439016	2.282125	-0.575590	-0.394170	-0.075827
0.380	4.811437	2.602002	578.977072	-0.421649	2.350600	-0.567148	-0.405992	-0.072827
0.390	4.738830	2.635566	579.012026	-0.408607	2.408143	-0.555747	-0.415906	-0.070570
0.400	4.686717	2.662867	579.077865	-0.399758	2.449837	-0.543224	-0.423058	-0.069034
0.410	4.652723	2.677680	579.164431	-0.393981	2.474007	-0.531710	-0.427168	-0.068026
0.420	4.634010	2.676889	579.251230	-0.389317	2.482041	-0.522957	-0.428491	-0.067210
0.430	4.628768	2.662070	579.315845	-0.383732	2.477831	-0.517863	-0.427717	-0.066239
0.440	4.635365	2.638993	579.342372	-0.375919	2.466915	-0.516391	-0.425813	-0.064887
0.450	4.650235	2.615539	579.326477	-0.365606	2.455335	-0.517834	-0.423826	-0.063109
0.460	4.666527	2.599107	579.276189	-0.353327	2.448268	-0.521186	-0.422643	-0.060994
0.470	4.675062	2.594511	579.208837	-0.339916	2.448560	-0.525339	-0.422742	-0.058686
0.480	4.667742	2.602892	579.144966	-0.326110	2.455591	-0.529096	-0.424003	-0.056309
0.490	4.641973	2.621843	579.100964	-0.312435	2.465014	-0.531144	-0.425662	-0.053952
0.500	4.603773	2.646529	579.083275	-0.299375	2.469699	-0.530248	-0.426484	-0.051698
0.510	4.567509	2.671288	579.087031	-0.287662	2.461652	-0.525686	-0.425092	-0.049675
0.520	4.551881	2.691245	579.100086	-0.278458	2.434272	-0.517691	-0.420354	-0.048085
0.530	4.573659	2.703565	579.110419	-0.273266	2.384273	-0.507562	-0.411713	-0.047187
0.540	4.641657	2.708087	579.112636	-0.273552	2.312776	-0.497306	-0.399365	-0.047236
0.550	4.753293	2.706992	579.109661	-0.280133	2.225365	-0.488958	-0.384274	-0.048373
0.560	4.895026	2.703504	579.108791	-0.292547	2.131121	-0.483908	-0.368000	-0.050517
0.570	5.046588	2.700146	579.114866	-0.308798	2.040810	-0.482528	-0.352402	-0.053322
0.580	5.187336	2.697456	579.125101	-0.325817	1.964622	-0.484246	-0.339240	-0.056260
0.590	5.302116	2.693775	579.129230	-0.340575	1.910017	-0.487956	-0.329808	-0.058808
0.600	5.384200	2.686167	579.115475	-0.351270	1.880312	-0.492493	-0.324687	-0.060656
0.610	5.434536	2.671977	579.079204	-0.357940	1.874398	-0.496979	-0.323686	-0.061812
0.620	5.458517	2.650243	579.029098	-0.362158	1.887510	-0.500963	-0.325978	-0.062546
0.630	5.462618	2.622252	578.986502	-0.366019	1.912684	-0.504393	-0.330350	-0.063217
0.640	5.452593	2.590909	578.977498	-0.371050	1.942478	-0.507481	-0.335501	-0.064087
0.650	5.433523	2.559173	579.021635	-0.377645	1.970548	-0.510559	-0.340324	-0.065221
0.660	5.410683	2.528505	579.123026	-0.385307	1.992664	-0.514020	-0.344083	-0.066533
0.670	5.389928	2.498522	579.267184	-0.393420	2.006859	-0.518365	-0.346448	-0.067917
0.680	5.376881	2.468257	579.423216	-0.402002	2.012793	-0.524203	-0.347379	-0.069380
0.690	5.375249	2.438051	579.549973	-0.411974	2.010835	-0.532126	-0.346965	-0.071085
0.700	5.385350	2.410366	579.606232	-0.424783	2.001468	-0.542419	-0.345315	-0.073288
0.710	5.403899	2.388672	579.564607	-0.441540	1.985300	-0.554748	-0.342550	-0.076185
0.720	5.425377	2.375286	579.424939	-0.462099	1.963420	-0.567969	-0.338857	-0.079751
0.730	5.444364	2.369927	579.219693	-0.484622	1.937613	-0.580196	-0.334521	-0.083668
0.740	5.457544	2.369942	579.006198	-0.506015	1.910134	-0.589201	-0.329899	-0.087394
0.750	5.464194	2.371674	578.847197	-0.523069	1.883154	-0.593095	-0.325328	-0.090364
0.760	5.464972	2.371757	578.787532	-0.533714	1.858183	-0.591055	-0.321048	-0.092212
0.770	5.460006	2.367735	578.837282	-0.537725	1.835831	-0.583814	-0.317158	-0.092897
0.780	5.447727	2.358300	578.969275	-0.536584	1.816010	-0.573623	-0.313663	-0.092679
0.790	5.425253	2.343644	579.132225	-0.532593	1.798503	-0.563642	-0.310551	-0.091964
0.800	5.389983	2.325778	579.272956	-0.527614	1.783580	-0.556944	-0.307900	-0.091082
0.810	5.341313	2.308303	579.356885	-0.522043	1.772372	-0.555531	-0.305921	-0.090107
0.820	5.281507	2.295447	579.377775	-0.514528	1.766815	-0.559754	-0.304951	-0.088807
0.830	5.215377	2.290876	579.354138	-0.502682	1.769089	-0.568350	-0.305355	-0.086766
0.840	5.149082	2.296844	579.316201	-0.484566	1.780664	-0.579052	-0.307373	-0.083645
0.850	5.088646	2.313736	579.290587	-0.460190	1.801316	-0.589469	-0.310952	-0.079440
0.860	5.038722	2.339787	579.289147	-0.432148	1.828658	-0.597897	-0.315673	-0.074600
0.870	5.001952	2.371137	579.305186	-0.404928	1.858561	-0.603788	-0.320826	-0.069899
0.880	4.978906	2.402680	579.317031	-0.383268	1.886431	-0.607775	-0.325630	-0.066159
0.890	4.968225	2.429863	579.296714	-0.370498	1.908854	-0.611292	-0.329512	-0.063957
0.900	4.966596	2.450812	579.220579	-0.367609	1.924991	-0.615888	-0.332342	-0.063466
0.910	4.968738	2.467644	579.078640	-0.373232	1.937180	-0.622471	-0.334528	-0.064453
0.920	4.968052	2.486018	578.880607	-0.384191	1.950457	-0.630789	-0.336936	-0.066368
0.930	4.958349	2.512795	578.657513	-0.396191	1.971035	-0.639404	-0.340622	-0.068467
0.940	4.936146	2.552737	578.457637	-0.404437	2.004203	-0.646195	-0.346474	-0.069916
0.950	4.902344	2.605826	578.335388	-0.404297	2.052390	-0.649136	-0.354879	-0.069907
0.960	4.862349	2.666566	578.334478	-0.392180	2.114187	-0.646999	-0.365565	-0.067812
0.970	4.824489	2.725662	578.471328	-0.366497	2.184701	-0.639677	-0.377668	-0.063356
0.980	4.797375	2.773373	578.726676	-0.328279	2.257171	-0.628077	-0.390024	-0.056724
0.990	4.787110	2.803183	579.050085	-0.280944	2.325231	-0.613682	-0.401560	-0.048518
1.000	4.795164	2.814323	579.375631	-0.229204	2.384963	-0.598043	-0.411644	-0.039560
1.010	4.817434	2.812263	579.642013	-0.177604	2.435956	-0.582397	-0.420252	-0.030640
1.020	4.844822	2.807104	579.809004	-0.129379	2.480979	-0.567560	-0.427896	-0.022314
1.030	4.865363	2.810345	579.864600	-0.085950	2.524488	-0.554031	-0.435358	-0.014822
1.040	4.867434	2.830924	579.821889	-0.046955	2.570622	-0.542197	-0.443347	-0.008098
1.050	4.843151	2.871800	579.709446	-0.010669	2.621539	-0.532451	-0.452216	-0.001840
1.060	4.790946	2.928593	579.560878	0.025187	2.676708	-0.525185	-0.461851	0.004346
1.070	4.716563	2.991063	579.407450	0.062349	2.733279	-0.520681	-0.471737	0.010761
1.080	4.631993	3.046975	579.274414	0.101085	2.787130	-0.518935	-0.481142	0.017450
1.090	4.552496	3.086730	579.179783	0.140023	2.834021	-0.519507	-0.489316	0.024176
1.100	4.492632	3.106912	579.134192	0.176863	2.870454	-0.521486	-0.495646	0.030539
1.110	4.462662	3.111511	579.141231	0.209502	2.894224	-0.523665	-0.499744	0.036175
1.120	4.466462	3.110543	579.198308	0.236871	2.904801	-0.524890	-0.501521	0.040896
1.130	4.501462	3.116549	579.298110	0.259085	2.903524	-0.524419	-0.501214	0.044724
1.140	4.560426	3.139910	579.430005	0.277070	2.893351	-0.522132	-0.499344	0.047818
1.150	4.634274	3.184424	579.580067	0.292014	2.877988	-0.518498	-0.496564	0.050384
1.160	4.714756	3.244988	579.729185	0.304958	2.860748	-0.514336	-0.493463	0.052604
1.170	4.795847	3.308792	579.850920	0.316622	2.843790	-0.510454	-0.490435	0.054604
1.180	4.873325	3.359929	579.912456	0.327408	2.828170	-0.507312	-0.487689	0.056458
1.190	4.943013	3.385592	579.881345	0.337506	2.814604	-0.504877	-0.485376	0.058203
1.200	4.999007	3.381393	579.737555	0.347002	2.804395	-0.502714	-0.483735	0.059855
1.210	5.033336	3.353688	579.486329	0.355928	2.799983	-0.500255	-0.483184	0.061421
1.220	5.037538	3.317831	579.164801	0.364188	2.804765	-0.497098	-0.484278	0.062882
1.230	5.005368	3.292601	578.836390	0.371419	2.822172	-0.493214	-0.487560	0.064167
1.240	4.935114	3.292657	578.572768	0.376938	2.854325	-0.488971	-0.493339	0.065150
1.250	4.830477	3.322143	578.430886	0.379912	2.900805	-0.484957	-0.501495	0.065680
1.260	4.699990	3.372446	578.436223	0.379727	2.958044	-0.481685	-0.511386	0.065647
1.270	4.555779	3.425398	578.579636	0.376384	3.019544	-0.479410	-0.521889	0.065053
1.280	4.412342	3.460577	578.826788	0.370624	3.076805	-0.478176	-0.531559	0.064030
1.290	4.285335	3.463418	579.132710	0.363636	3.120720	-0.478077	-0.538861	0.062790
1.300	4.189831	3.430548	579.453255	0.356354	3.143132	-0.479506	-0.542431	0.061498
1.310	4.137892	3.370322	579.749338	0.348623	3.138295	-0.483167	-0.541319	0.060133
1.320	4.136169	3.298847	579.985955	0.338661	3.103984	-0.489780	-0.535183	0.058391
1.330	4.184529	3.233556	580.132069	0.323230	3.042064	-0.499602	-0.524374	0.055717
1.340	4.276130	3.187048	580.165678	0.298603	2.958246	-0.512065	-0.509897	0.051469
1.350	4.398738	3.163405	580.082196	0.261953	2.860921	-0.525765	-0.493192	0.045158
1.360	4.536999	3.158078	579.899758	0.212493	2.759315	-0.538871	-0.475826	0.036643
1.370	4.675363	3.160976	579.656513	0.151834	2.661555	-0.549809	-0.459161	0.026194
1.380	4.801016	3.161189	579.400283	0.083445	2.573283	-0.557894	-0.444129	0.014402
1.390	4.905817	3.151172	579.175391	0.011563	2.497164	-0.563571	-0.431159	0.001996
1.400	4.986534	3.128629	579.012233	-0.060000	2.433365	-0.568091	-0.420261	-0.010362
1.410	5.043625	3.095571	578.922994	-0.128751	2.380680	-0.572757	-0.411226	-0.022240
1.420	5.079727	3.055558	578.903815	-0.193907	2.337755	-0.578159	-0.403825	-0.033496
1.430	5.099004	3.010985	578.941177	-0.256199	2.303700	-0.583794	-0.397916	-0.044253
1.440	5.107500	2.961966	579.019283	-0.317194	2.277759	-0.588272	-0.393382	-0.054781
1.450	5.113449	2.906994	579.125627	-0.378447	2.258293	-0.589976	-0.389949	-0.065348
1.460	5.126383	2.844407	579.252936	-0.440876	2.241809	-0.587807	-0.387017	-0.076111
1.470	5.154932	2.773508	579.396984	-0.504586	2.222814	-0.581654	-0.383643	-0.087088
1.480	5.204349	2.694934	579.551574	-0.569104	2.194829	-0.572400	-0.378712	-0.098197
1.490	5.274852	2.610476	579.703478	-0.633778	2.152328	-0.561568	-0.371281	-0.109328
1.500	5.361257	2.522575	579.830721	-0.698099	2.092781	-0.550849	-0.360930	-0.120397
1.510	5.453918	2.433731	579.906592	-0.761776	2.017859	-0.541696	-0.347963	-0.131362
1.520	5.540958	2.346125	579.908940	-0.824680	1.933086	-0.535060	-0.333343	-0.142209
1.530	5.611689	2.261696	579.830566	-0.886826	1.846004	-0.531249	-0.318370	-0.152946
1.540	5.660417	2.182500	579.684806	-0.948501	1.763647	-0.529928	-0.304242	-0.163624
1.550	5.689092	2.110983	579.502863	-1.010431	1.690435	-0.530252	-0.291704	-0.174362
1.560	5.707393	2.049799	579.324084	-1.073864	1.627197	-0.531102	-0.280879	-0.185365
1.570	5.729942	2.001116	579.183601	-1.140479	1.571470	-0.531389	-0.271325	-0.196912
1.580	5.771536	1.965550	579.102054	-1.212107	1.518774	-0.530327	-0.262264	-0.209308
1.590	5.841992	1.941165	579.080748	-1.290280	1.464538	-0.527637	-0.252907	-0.222815
1.600	5.942253	1.923053	579.103682	-1.375703	1.406147	-0.523620	-0.242814	-0.237557
1.610	6.063136	1.903934	579.145607	-1.467833	1.344440	-0.519099	-0.232142	-0.253448
1.620	6.187400	1.875789	579.182783	-1.564761	1.283908	-0.515195	-0.221676	-0.270167
1.630	6.294669	1.831971	579.201476	-1.663571	1.231355	-0.513012	-0.212595	-0.287218
1.640	6.367394	1.768971	579.200100	-1.761083	1.193589	-0.513262	-0.206075	-0.304054
1.650	6.395481	1.687261	579.184602	-1.854572	1.175260	-0.516025	-0.202916	-0.320204
1.660	6.377902	1.591205	579.160777	-1.942089	1.177866	-0.520733	-0.203375	-0.335328
1.670	6.321306	1.488358	579.128727	-2.022297	1.200175	-0.526412	-0.207238	-0.349197
1.680	6.236830	1.388377	579.082668	-2.094136	1.239554	-0.532041	-0.214055	-0.361630
1.690	6.136541	1.301477	579.016112	-2.156667	1.293357	-0.536879	-0.223372	-0.372471
1.700	6.030424	1.236365	578.929527	-2.209261	1.359767	-0.540649	-0.234876	-0.381611
1.710	5.924441	1.198066	578.835656	-2.251918	1.437998	-0.543532	-0.248429	-0.389043
1.720	5.820006	1.186471	578.758264	-2.285431	1.528139	-0.546020	-0.264037	-0.394885
1.730	5.714851	1.196457	578.723738	-2.311235	1.630842	-0.548677	-0.281800	-0.399368
1.740	5.604719	1.219692	578.749190	-2.331076	1.746883	-0.551901	-0.301838	-0.402778
1.750	5.485216	1.247201	578.832665	-2.346679	1.876527	-0.555733	-0.324192	-0.405416
1.760	5.353374	1.271363	578.950499	-2.359458	2.018799	-0.559777	-0.348700	-0.407541
1.770	5.208876	1.286632	579.064350	-2.370155	2.170972	-0.563307	-0.374910	-0.409308
1.780	5.054878	1.289469	579.136063	-2.378436	2.328615	-0.565571	-0.402084	-0.410687
1.790	4.898114	1.278487	579.144369	-2.382684	2.486287	-0.566136	-0.429303	-0.411414
1.800	4.747876	1.255244	579.095787	-2.380288	2.638640	-0.565051	-0.455648	-0.411035
1.810	4.613820	1.225045	579.023954	-2.368446	2.781534	-0.562731	-0.480383	-0.409041
1.820	4.503246	1.196679	578.976434	-2.345088	2.912848	-0.559710	-0.503103	-0.405040
1.830	4.418891	1.180628	578.993749	-2.309453	3.032731	-0.556478	-0.523793	-0.398874
1.840	4.358267	1.186335	579.089382	-2.262155	3.143089	-0.553563	-0.542764	-0.390640
1.850	4.314912	1.219701	579.239630	-2.204942	3.246295	-0.551723	-0.560441	-0.380661
1.860	4.281054	1.281742	579.388675	-2.140366	3.343634	-0.552022	-0.577097	-0.369418
1.870	4.250420	1.368707	579.467999	-2.071378	3.434296	-0.555574	-0.592664	-0.357462
1.880	4.219890	1.473491	579.422687	-2.000725	3.515613	-0.563065	-0.606744	-0.345296
1.890	4.189244	1.587845	579.233461	-1.930187	3.584550	-0.574324	-0.618844	-0.333231
1.900	4.159286	1.704527	578.925228	-1.859920	3.639727	-0.588260	-0.628704	-0.321271
1.910	4.129525	1.818568	578.559736	-1.788250	3.682906	-0.603165	-0.636564	-0.309087
1.920	4.096937	1.927366	578.217156	-1.712100	3.719136	-0.617169	-0.643207	-0.296100
1.930	4.056786	2.030033	577.974596	-1.627866	3.755347	-0.628555	-0.649743	-0.281650
1.940	4.005235	2.126739	577.887600	-1.532410	3.797879	-0.635899	-0.657200	-0.265174
1.950	3.942325	2.218499	577.977447	-1.423805	3.849878	-0.638140	-0.666095	-0.246343
1.960	3.873676	2.307301	578.226006	-1.301698	3.909617	-0.634745	-0.676140	-0.225119
1.970	3.810152	2.396207	578.580102	-1.167327	3.970451	-0.625963	-0.686241	-0.201757
1.980	3.765680	2.489059	578.965920	-1.023372	4.022587	-0.613034	-0.694788	-0.176759
1.990	3.754047	2.589670	579.309933	-0.873779	4.056068	-0.598153	-0.700155	-0.150831
2.000	3.785594	2.700541	579.558857	-0.723545	4.063883	-0.584052	-0.701203	-0.124844
2.010	3.864609	2.821399	579.690543	-0.578285	4.043935	-0.573300	-0.697602	-0.099758
2.020	3.987995	2.948144	579.712190	-0.443367	3.999132	-0.567587	-0.689848	-0.076481
2.030	4.145510	3.073000	579.648801	-0.322734	3.935740	-0.567253	-0.678987	-0.055677
2.040	4.321619	3.186328	579.528722	-0.217907	3.861019	-0.571228	-0.666234	-0.037601
2.050	4.498569	3.279619	579.372762	-0.127787	3.781411	-0.577371	-0.652673	-0.022056
2.060	4.659828	3.348377	579.190813	-0.049473	3.702005	-0.583101	-0.639169	-0.008542
2.070	4.792877	3.393589	578.986489	0.020313	3.627048	-0.586115	-0.626448	0.003508
2.080	4.890715	3.421228	578.766389	0.083933	3.560627	-0.584909	-0.615210	0.014502
2.090	4.952019	3.440073	578.548146	0.142259	3.506732	-0.578957	-0.606126	0.024589
2.100	4.980345	3.458662	578.362614	0.194959	3.468505	-0.568584	-0.599711	0.033709
2.110	4.982832	3.482401	578.249287	0.241370	3.447076	-0.554687	-0.596123	0.041741
2.120	4.968766	3.511815	578.246720	0.281475	3.440624	-0.538420	-0.595010	0.048677
2.130	4.948276	3.542606	578.380060	0.316480	3.444259	-0.520947	-0.595501	0.054718
2.140	4.931350	3.567660	578.648124	0.348674	3.450935	-0.503340	-0.596379	0.060257
2.150	4.926993	3.580321	579.014598	0.380545	3.453140	-0.486691	-0.596382	0.065723
2.160	4.942079	3.577553	579.409581	0.413458	3.444744	-0.472277	-0.594527	0.071358
2.170	4.979683	3.561422	579.745174	0.446569	3.422285	-0.461531	-0.590308	0.077029
2.180	5.037566	3.538087	579.941816	0.476696	3.385250	-0.455647	-0.583722	0.082197
2.190	5.108115	3.514718	579.955149	0.499368	3.335392	-0.454987	-0.575112	0.086105
2.200	5.180611	3.495905	579.791752	0.510509	3.275547	-0.458674	-0.564952	0.088050
2.210	5.245152	3.481343	579.507245	0.507829	3.208579	-0.464688	-0.553674	0.087631
2.220	5.296294	3.465974	579.187576	0.491224	3.136864	-0.470478	-0.541597	0.084813
2.230	5.334552	3.442552	578.919926	0.462120	3.062414	-0.473797	-0.528987	0.079824
2.240	5.365178	3.405242	578.763525	0.422286	2.987419	-0.473395	-0.516173	0.072963
2.250	5.394959	3.352120	578.732186	0.372905	2.914790	-0.469311	-0.503651	0.064435
2.260	5.428495	3.285163	578.796459	0.314442	2.848252	-0.462717	-0.492099	0.054327
2.270	5.465593	3.208189	578.903809	0.247157	2.791776	-0.455424	-0.482252	0.042694
2.280	5.501107	3.124596	579.005895	0.171642	2.748560	-0.449305	-0.474703	0.029644
2.290	5.527426	3.036561	579.079022	0.088975	2.720060	-0.445828	-0.469722	0.015365
2.300	5.538157	2.945895	579.128348	0.000576	2.705619	-0.445768	-0.467188	0.000099
2.310	5.530648	2.855493	579.175755	-0.091930	2.702919	-0.449097	-0.466684	-0.015873
2.320	5.506032	2.769937	579.240217	-0.186642	2.708955	-0.455091	-0.467674	-0.032222
2.330	5.467347	2.694463	579.322860	-0.281176	2.720998	-0.462689	-0.469686	-0.048535
2.340	5.417490	2.632697	579.404526	-0.372539	2.737112	-0.471052	-0.472401	-0.064297
2.350	5.358501	2.584525	579.455646	-0.457338	2.756136	-0.479994	-0.475642	-0.078925
2.360	5.292486	2.545636	579.452087	-0.532377	2.777344	-0.489964	-0.479305	-0.091876
2.370	5.223065	2.509375	579.388928	-0.595480	2.800054	-0.501517	-0.483277	-0.102777
2.380	5.155827	2.470121	579.285761	-0.646146	2.823440	-0.514635	-0.487400	-0.111542
