Time[s]	Fx[N]	Fy[N]	Fz[N]	Mx[Nm]	My[Nm]	Mz[Nm]	COPx[cm]	COPy[cm]
0.010	4.069378	1.524533	723.316154	9.022723	-9.361977	-1.650155	1.294313	1.247411
0.020	4.052756	1.439881	723.349062	8.855018	-9.213759	-1.639600	1.273764	1.224169
0.030	3.992348	1.347233	723.413002	8.692724	-9.045426	-1.629269	1.250382	1.201627
0.040	3.854868	1.240832	723.532344	8.540259	-8.841046	-1.619164	1.221928	1.180356
0.050	3.623320	1.118972	723.713310	8.399719	-8.590993	-1.609130	1.187071	1.160642
0.060	3.298975	0.984815	723.940575	8.270322	-8.292889	-1.599079	1.145521	1.142403
0.070	2.898401	0.845840	724.180696	8.148647	-7.950686	-1.589201	1.097887	1.125223
0.080	2.446980	0.711777	724.390939	8.029809	-7.572436	-1.579966	1.045352	1.108491
0.090	1.971442	0.591451	724.530171	7.909223	-7.167637	-1.571811	0.989281	1.091635
0.100	1.494043	0.489729	724.569185	7.784219	-6.745054	-1.564709	0.930905	1.074324
0.110	1.029860	0.406032	724.499012	7.654799	-6.311608	-1.557952	0.871169	1.056565
0.120	0.586980	0.335120	724.335783	7.523375	-5.872408	-1.550374	0.810730	1.038659
0.130	0.168399	0.269619	724.120270	7.393790	-5.431575	-1.540926	0.750093	1.021072
0.140	-0.225486	0.202814	723.910705	7.270174	-4.993335	-1.529221	0.689772	1.004292
0.150	-0.594452	0.130390	723.769300	7.156047	-4.562824	-1.515717	0.630425	0.988719
0.160	-0.936581	0.050774	723.745824	7.053829	-4.146198	-1.501478	0.572880	0.974628
0.170	-1.247429	-0.035333	723.863308	6.964682	-3.749981	-1.487717	0.518051	0.962154
0.180	-1.520598	-0.125431	724.110009	6.888566	-3.380000	-1.475430	0.466780	0.951315
0.190	-1.749668	-0.215338	724.439224	6.824470	-3.040396	-1.465278	0.419690	0.942035
0.200	-1.930796	-0.299207	724.777330	6.770867	-2.733063	-1.457681	0.377090	0.934200
0.210	-2.064839	-0.369855	725.040430	6.726370	-2.457527	-1.452952	0.338950	0.927723
0.220	-2.158120	-0.419674	725.158346	6.690307	-2.211096	-1.451271	0.304912	0.922599
0.230	-2.221659	-0.442029	725.099731	6.662858	-1.989116	-1.452471	0.274323	0.918889
0.240	-2.269442	-0.432930	724.887133	6.644623	-1.785306	-1.455792	0.246288	0.916642
0.250	-2.316480	-0.392527	724.592157	6.635926	-1.592215	-1.459813	0.219739	0.915815
0.260	-2.377219	-0.325748	724.309985	6.636390	-1.401813	-1.462687	0.193538	0.916236
0.270	-2.464438	-0.241433	724.123799	6.645132	-1.206187	-1.462632	0.166572	0.917679
0.280	-2.588477	-0.150034	724.075104	6.661430	-0.998210	-1.458462	0.137860	0.919992
0.290	-2.756487	-0.060851	724.152369	6.685299	-0.772136	-1.449973	0.106626	0.923190
0.300	-2.971402	0.020036	724.300796	6.717413	-0.524133	-1.438065	0.072364	0.927434
0.310	-3.230627	0.090522	724.446450	6.758323	-0.252751	-1.424590	0.034889	0.932895
0.320	-3.525028	0.152020	724.523092	6.807490	0.040801	-1.411981	-0.005631	0.939582
0.330	-3.839219	0.208155	724.491300	6.862818	0.352774	-1.402672	-0.048693	0.947260
0.340	-4.153990	0.262887	724.345109	6.921054	0.677455	-1.398485	-0.093527	0.955491
0.350	-4.450584	0.318550	724.107786	6.978905	1.008043	-1.400182	-0.139212	0.963794
0.360	-4.715263	0.374631	723.821638	7.034336	1.337605	-1.407419	-0.184798	0.971833
0.370	-4.942154	0.428073	723.535999	7.087513	1.660020	-1.419129	-0.229432	0.979566
0.380	-5.133297	0.474924	723.295773	7.141018	1.970825	-1.434094	-0.272478	0.987289
0.390	-5.296352	0.512236	723.132523	7.199233	2.267844	-1.451382	-0.313614	0.995562
0.400	-5.441306	0.539104	723.060651	7.267001	2.551327	-1.470453	-0.352851	1.005033
0.410	-5.577423	0.556579	723.080058	7.347950	2.823398	-1.490936	-0.390468	1.016201
0.420	-5.711096	0.567090	723.183806	7.443093	3.086763	-1.512286	-0.426830	1.029212
0.430	-5.844603	0.574047	723.366522	7.550308	3.342956	-1.533508	-0.462139	1.043773
0.440	-5.975471	0.581756	723.628442	7.664916	3.590654	-1.553126	-0.496201	1.059234
0.450	-6.096317	0.595303	723.972101	7.781127	3.824730	-1.569402	-0.528298	1.074783
0.460	-6.195546	0.620101	724.392820	7.893843	4.036529	-1.580730	-0.557229	1.089718
0.470	-6.259355	0.661138	724.867954	8.000230	4.215439	-1.586030	-0.581546	1.103681
0.480	-6.275056	0.722203	725.351035	8.100567	4.351368	-1.585022	-0.599898	1.116779
0.490	-6.234890	0.805344	725.775524	8.198027	4.437278	-1.578333	-0.611384	1.129554
0.500	-6.138999	0.910577	726.069707	8.297446	4.470838	-1.567469	-0.615759	1.142789
0.510	-5.996249	1.035551	726.179404	8.403487	4.454561	-1.554645	-0.613424	1.157219
0.520	-5.822407	1.175101	726.089765	8.518868	4.394380	-1.542462	-0.605212	1.173253
0.530	-5.636254	1.321312	725.835152	8.643369	4.297224	-1.533425	-0.592039	1.190817
0.540	-5.454999	1.464859	725.490404	8.773936	4.168593	-1.529477	-0.574590	1.209380
0.550	-5.290463	1.597515	725.146008	8.905824	4.011185	-1.531717	-0.553156	1.228142
0.560	-5.147047	1.714554	724.877995	9.034248	3.825110	-1.540313	-0.527690	1.246313
0.570	-5.021889	1.815689	724.725248	9.155881	3.609497	-1.554502	-0.498050	1.263359
0.580	-4.906974	1.904186	724.682059	9.269589	3.364689	-1.572575	-0.464299	1.279125
0.590	-4.792527	1.984955	724.706474	9.376220	3.094121	-1.591946	-0.426948	1.293795
0.600	-4.670800	2.062731	724.739665	9.477795	2.805117	-1.609495	-0.387052	1.307752
0.610	-4.539252	2.141007	724.729453	9.576763	2.508198	-1.622234	-0.346087	1.321426
0.620	-4.401945	2.221799	724.650536	9.675755	2.214964	-1.628136	-0.305660	1.335230
0.630	-4.268010	2.305974	724.514412	9.777763	1.935129	-1.626884	-0.267093	1.349561
0.640	-4.146946	2.394008	724.364537	9.886276	1.673586	-1.620218	-0.231042	1.364820
0.650	-4.042229	2.487152	724.257751	10.004907	1.428371	-1.611673	-0.197219	1.381401
0.660	-3.946206	2.588739	724.239632	10.136483	1.190163	-1.605647	-0.164333	1.399603
0.670	-3.839189	2.704693	724.324885	10.281974	0.943560	-1.606044	-0.130267	1.419525
0.680	-3.693953	2.842231	724.491481	10.439816	0.670059	-1.614995	-0.092487	1.440985
0.690	-3.484213	3.006686	724.690281	10.605974	0.352228	-1.632142	-0.048604	1.463518
0.700	-3.193753	3.197700	724.864796	10.774636	-0.021941	-1.654779	0.003027	1.486434
0.710	-2.822710	3.406576	724.972036	10.939140	-0.455752	-1.678755	0.062865	1.508905
0.720	-2.388753	3.616291	724.996049	11.092708	-0.942757	-1.699809	0.130036	1.530037
0.730	-1.922816	3.804637	724.949881	11.228886	-1.468366	-1.714861	0.202547	1.548919
0.740	-1.460832	3.949620	724.866753	11.341955	-2.013599	-1.722842	0.277789	1.564695
0.750	-1.034159	4.035363	724.784873	11.427761	-2.559776	-1.724825	0.353177	1.576711
0.760	-0.661606	4.056828	724.731903	11.485108	-3.092633	-1.723454	0.426728	1.584739
0.770	-0.345232	4.022234	724.715227	11.517251	-3.604713	-1.721928	0.497397	1.589211
0.780	-0.070934	3.952365	724.722325	11.532484	-4.095603	-1.722996	0.565127	1.591297
0.790	0.186516	3.876302	724.731121	11.542878	-4.570376	-1.728348	0.630631	1.592712
0.800	0.455683	3.824091	724.725223	11.561038	-5.037075	-1.738553	0.695032	1.595231
0.810	0.760454	3.818309	724.706716	11.595909	-5.504054	-1.753314	0.759487	1.600083
0.820	1.114185	3.867438	724.700617	11.649404	-5.977829	-1.771737	0.824869	1.607478
0.830	1.517382	3.963612	724.748626	11.715369	-6.461880	-1.792420	0.891603	1.616473
0.840	1.959147	4.085691	724.893819	11.781380	-6.956652	-1.813420	0.959679	1.625256
0.850	2.421768	4.206544	725.161547	11.832646	-7.460573	-1.832268	1.028815	1.631726
0.860	2.886971	4.301724	725.543749	11.856449	-7.971432	-1.846179	1.098684	1.634147
0.870	3.341676	4.356167	725.993105	11.845399	-8.487262	-1.852452	1.169056	1.631613
0.880	3.781108	4.366498	726.429789	11.798402	-9.006216	-1.848984	1.239792	1.624163
0.890	4.208158	4.338548	726.758771	11.719259	-9.525557	-1.834758	1.310690	1.612538
0.900	4.629388	4.281766	726.892178	11.613800	-10.040454	-1.810192	1.381285	1.597734
0.910	5.049419	4.203275	726.770773	11.486840	-10.543300	-1.777221	1.450705	1.580531
0.920	5.466220	4.103999	726.379881	11.340122	-11.024010	-1.739033	1.517665	1.561183
0.930	5.869462	3.978003	725.755886	11.171922	-11.471297	-1.699514	1.580600	1.539350
0.940	6.242557	3.814796	724.980575	10.978237	-11.874549	-1.662587	1.637913	1.514280
0.950	6.567101	3.603528	724.163895	10.754841	-12.225711	-1.631586	1.688252	1.485139
0.960	6.827530	3.337496	723.419671	10.499202	-12.520554	-1.608744	1.730746	1.451329
0.970	7.014232	3.017246	722.841014	10.211443	-12.758940	-1.594845	1.765110	1.412682
0.980	7.124721	2.650998	722.482334	9.894084	-12.944118	-1.589085	1.791617	1.369457
0.990	7.163377	2.252193	722.353037	9.550880	-13.081410	-1.589257	1.810944	1.322190
1.000	7.140408	1.835139	722.423458	9.185428	-13.176754	-1.592303	1.823965	1.271474
1.010	7.070322	1.410671	722.638385	8.800180	-13.235527	-1.595165	1.831556	1.217785
1.020	6.969791	0.983841	722.931581	8.396169	-13.261918	-1.595712	1.834464	1.161406
1.030	6.854730	0.554619	723.236956	7.973392	-13.258799	-1.593449	1.833258	1.102459
1.040	6.736662	0.120770	723.495698	7.531594	-13.227607	-1.589686	1.828291	1.041000
1.050	6.619058	-0.319139	723.660872	7.071123	-13.167693	-1.587054	1.819594	0.977132
1.060	6.494781	-0.764403	723.701164	6.593656	-13.075079	-1.588487	1.806696	0.911102
1.070	6.345810	-1.212685	723.604282	6.102727	-12.941375	-1.596032	1.788460	0.843379
1.080	6.146011	-1.661078	723.379008	5.604094	-12.753816	-1.609931	1.763089	0.774711
1.090	5.867099	-2.106419	723.054179	5.105874	-12.497028	-1.628343	1.728367	0.706154
1.100	5.486827	-2.544597	722.673581	4.618200	-12.156240	-1.647822	1.682120	0.639044
1.110	4.996958	-2.969654	722.287442	4.152217	-11.720949	-1.664442	1.622754	0.574870
1.120	4.407667	-3.373451	721.942746	3.718512	-11.187595	-1.675093	1.549651	0.515070
1.130	3.745640	-3.746203	721.675515	3.325503	-10.560049	-1.678410	1.463268	0.460803
1.140	3.045623	-4.077895	721.508273	2.978373	-9.847590	-1.675017	1.364862	0.412798
1.150	2.338565	-4.360411	721.454027	2.678978	-9.061351	-1.667068	1.255985	0.371330
1.160	1.641800	-4.589918	721.524126	2.426738	-8.211151	-1.657361	1.138029	0.336335
1.170	0.956208	-4.768589	721.733744	2.220084	-7.304474	-1.648369	1.012073	0.307604
1.180	0.271723	-4.904547	722.099173	2.057779	-6.348097	-1.641508	0.879117	0.284972
1.190	-0.422209	-5.009212	722.626289	1.939600	-5.351156	-1.636824	0.740515	0.268410
1.200	-1.127400	-5.092377	723.296456	1.866275	-4.327530	-1.633152	0.598307	0.258024
1.210	-1.833967	-5.156895	724.059339	1.838936	-3.295879	-1.628654	0.455195	0.253976
1.220	-2.524516	-5.195667	724.838828	1.858515	-2.277180	-1.621582	0.314164	0.256404
1.230	-3.182060	-5.192837	725.550669	1.925442	-1.291054	-1.610979	0.177941	0.265377
1.240	-3.796614	-5.129043	726.123859	2.039763	-0.352567	-1.597075	0.048555	0.280911
1.250	-4.367033	-4.988572	726.516395	2.201598	0.529298	-1.581203	-0.072854	0.303035
1.260	-4.898048	-4.765593	726.719486	2.411636	1.351282	-1.565300	-0.185943	0.331852
1.270	-5.395174	-4.467234	726.750327	2.671318	2.114172	-1.551212	-0.290908	0.367570
1.280	-5.860884	-4.112524	726.639004	2.982454	2.820698	-1.540033	-0.388184	0.410445
1.290	-6.293945	-3.727349	726.417267	3.346322	3.473777	-1.531707	-0.478207	0.460661
1.300	-6.691538	-3.336768	726.114308	3.762543	4.075412	-1.525003	-0.561263	0.518175
1.310	-7.052044	-2.957138	725.759139	4.228288	4.626186	-1.517921	-0.637427	0.582602
1.320	-7.376237	-2.591034	725.384728	4.738217	5.125119	-1.508411	-0.706538	0.653201
1.330	-7.665779	-2.227138	725.028407	5.285161	5.569653	-1.495182	-0.768198	0.728959
1.340	-7.919687	-1.845249	724.726033	5.861060	5.955644	-1.478291	-0.821779	0.808728
1.350	-8.130698	-1.424399	724.502547	6.457598	6.277435	-1.459240	-0.866448	0.891315
1.360	-8.283866	-0.951021	724.365557	7.066237	6.528350	-1.440504	-0.901251	0.975507
1.370	-8.358964	-0.424452	724.307239	7.677917	6.701971	-1.424609	-0.925294	1.060036
1.380	-8.336514	0.141702	724.313342	8.283012	6.794096	-1.413119	-0.938005	1.143568
1.390	-8.205259	0.722389	724.372445	8.872017	6.804591	-1.405978	-0.939377	1.224787
1.400	-7.967833	1.286961	724.479234	9.436967	6.738204	-1.401517	-0.930075	1.302586
1.410	-7.641982	1.806123	724.631152	9.973058	6.603899	-1.397157	-0.911346	1.376294
1.420	-7.256697	2.258090	724.822509	10.479635	6.413191	-1.390489	-0.884795	1.445821
1.430	-6.844906	2.632736	725.040799	10.959967	6.178368	-1.380252	-0.852141	1.511634
1.440	-6.435775	2.933212	725.267394	11.419746	5.911291	-1.366807	-0.815050	1.574557
1.450	-6.049352	3.174808	725.481505	11.864913	5.622763	-1.351954	-0.775039	1.635454
1.460	-5.694640	3.381098	725.664808	12.299733	5.321923	-1.338322	-0.733386	1.694961
1.470	-5.370382	3.578157	725.804581	12.725877	5.015278	-1.328667	-0.690996	1.753348
1.480	-5.067198	3.788594	725.894416	13.142732	4.705516	-1.325346	-0.648237	1.810557
1.490	-4.770143	4.027228	725.932282	13.548547	4.390863	-1.329986	-0.604858	1.866365
1.500	-4.461613	4.299347	725.916634	13.941705	4.065707	-1.343275	-0.560079	1.920566
1.510	-4.124780	4.601248	725.842848	14.321521	3.722682	-1.364781	-0.512877	1.973088
1.520	-3.747426	4.922162	725.703252	14.688434	3.355637	-1.392866	-0.462398	2.024028
1.530	-3.325368	5.246813	725.491958	15.043754	2.962437	-1.424817	-0.408335	2.073594
1.540	-2.864236	5.558310	725.211715	15.389019	2.546527	-1.457325	-0.351143	2.122004
1.550	-2.378662	5.841161	724.877960	15.724897	2.116753	-1.487225	-0.292015	2.169317
1.560	-1.889109	6.083934	724.517178	16.049844	1.685635	-1.512279	-0.232656	2.215247
1.570	-1.417788	6.280914	724.160833	16.359138	1.266934	-1.531726	-0.174952	2.259048
1.580	-0.985596	6.432329	723.838874	16.644941	0.873450	-1.546409	-0.120669	2.299537
1.590	-0.611080	6.543238	723.576308	16.897465	0.515781	-1.558442	-0.071282	2.335271
1.600	-0.310727	6.621545	723.392903	17.106778	0.202142	-1.570509	-0.027944	2.364798
1.610	-0.098628	6.675695	723.303238	17.264598	-0.061341	-1.585030	0.008481	2.386910
1.620	0.015972	6.712447	723.315108	17.365689	-0.270803	-1.603401	0.037439	2.400847
1.630	0.032815	6.735011	723.427585	17.408712	-0.425777	-1.625537	0.058856	2.406421
1.640	-0.035725	6.741890	723.631150	17.396610	-0.530798	-1.649826	0.073352	2.404071
1.650	-0.163957	6.726911	723.909814	17.336536	-0.596283	-1.673551	0.082370	2.394847
1.660	-0.316263	6.680935	724.242984	17.239209	-0.637660	-1.693731	0.088045	2.380307
1.670	-0.453832	6.595258	724.605988	17.117497	-0.672618	-1.708127	0.092825	2.362318
1.680	-0.542715	6.465848	724.970376	16.984302	-0.717350	-1.716069	0.098949	2.342758
1.690	-0.560916	6.296869	725.305207	16.850268	-0.783140	-1.718780	0.107974	2.323197
1.700	-0.502652	6.101810	725.579165	16.721992	-0.874538	-1.719074	0.120530	2.304641
1.710	-0.378611	5.901164	725.763046	16.601193	-0.989638	-1.720594	0.136358	2.287412
1.720	-0.211990	5.716856	725.833007	16.484848	-1.122142	-1.726839	0.154601	2.271163
1.730	-0.031152	5.565249	725.775132	16.366177	-1.264337	-1.740211	0.174205	2.254993
1.740	0.139071	5.451608	725.590167	16.236342	-1.410030	-1.761263	0.194329	2.237674
1.750	0.284544	5.368527	725.295371	16.086634	-1.556523	-1.788373	0.214605	2.217943
1.760	0.404737	5.298786	724.921194	15.910724	-1.704924	-1.817990	0.235187	2.194821
1.770	0.510246	5.220893	724.504144	15.706309	-1.858665	-1.845519	0.256543	2.167870
1.780	0.616197	5.114550	724.080022	15.475649	-2.020888	-1.866645	0.279097	2.137284
1.790	0.734725	4.964212	723.680692	15.224769	-2.191937	-1.878689	0.302887	2.103797
1.800	0.869928	4.760484	723.334276	14.961521	-2.368098	-1.881446	0.327386	2.068410
1.810	1.017211	4.500130	723.066768	14.693006	-2.541985	-1.877177	0.351556	2.032040
1.820	1.166542	4.185516	722.903434	14.423107	-2.704205	-1.869777	0.374076	1.995164
1.830	1.307105	3.823875	722.869018	14.150924	-2.845442	-1.863481	0.393632	1.957606
1.840	1.430354	3.426437	722.985031	13.870752	-2.958085	-1.861589	0.409149	1.918539
1.850	1.529753	3.007283	723.261971	13.573731	-3.036807	-1.865640	0.419877	1.876738
1.860	1.597814	2.581673	723.687114	13.250521	-3.077999	-1.875205	0.425322	1.830974
1.870	1.622894	2.163645	724.213503	12.893862	-3.078526	-1.888281	0.425085	1.780395
1.880	1.588647	1.762982	724.758240	12.500040	-3.034659	-1.902054	0.418713	1.724719
1.890	1.477629	1.382284	725.215181	12.068951	-2.941975	-1.913784	0.405669	1.664189
1.900	1.278114	1.015428	725.479994	11.603228	-2.796517	-1.921570	0.385471	1.599386
1.910	0.990976	0.648669	725.478962	11.107289	-2.596804	-1.924813	0.357943	1.531028
1.920	0.632897	0.264699	725.191096	10.586972	-2.345726	-1.924233	0.323463	1.459887
1.930	0.233835	-0.151457	724.656730	10.049841	-2.051297	-1.921408	0.283071	1.386842
1.940	-0.170209	-0.606738	723.971344	9.505607	-1.725813	-1.918025	0.238381	1.312981
1.950	-0.545749	-1.096626	723.266996	8.965875	-1.383751	-1.915140	0.191320	1.239636
1.960	-0.868135	-1.605246	722.684908	8.442840	-1.039349	-1.912768	0.143818	1.168260
1.970	-1.123923	-2.108908	722.344186	7.947337	-0.704763	-1.909874	0.097566	1.100215
1.980	-1.309699	-2.581662	722.314330	7.487146	-0.389236	-1.904699	0.053887	1.036550
1.990	-1.429081	-3.000826	722.600295	7.066363	-0.099131	-1.895204	0.013719	0.977908
2.000	-1.489735	-3.350881	723.145510	6.686055	0.161532	-1.879491	-0.022337	0.924579
2.010	-1.501422	-3.624905	723.850964	6.345818	0.390378	-1.856153	-0.053931	0.876675
2.020	-1.475044	-3.823641	724.601791	6.045525	0.586132	-1.824576	-0.080890	0.834324
2.030	-1.422027	-3.953121	725.290866	5.786519	0.748550	-1.785164	-0.103207	0.797821
2.040	-1.353599	-4.022182	725.832818	5.571848	0.878997	-1.739368	-0.121102	0.767649
2.050	-1.280235	-4.040859	726.168667	5.405495	0.981470	-1.689453	-0.135157	0.744386
2.060	-1.212074	-4.019634	726.266176	5.290967	1.063542	-1.638009	-0.146440	0.728516
2.070	-1.160594	-3.968879	726.120929	5.229731	1.136597	-1.587362	-0.156530	0.720229
2.080	-1.140556	-3.898047	725.759025	5.219981	1.215007	-1.539089	-0.167412	0.719244
2.090	-1.170374	-3.814782	725.237925	5.256123	1.314319	-1.493770	-0.181226	0.724745
2.100	-1.269470	-3.724442	724.640609	5.329251	1.448889	-1.451048	-0.199946	0.735434
2.110	-1.452806	-3.630335	724.060609	5.428691	1.629544	-1.409984	-0.225056	0.749756
2.120	-1.724619	-3.534555	723.580219	5.544352	1.861770	-1.369568	-0.257300	0.766239
2.130	-2.074566	-3.438920	723.248968	5.669160	2.144800	-1.329190	-0.296551	0.783846
2.140	-2.478797	-3.345348	723.071292	5.800674	2.471734	-1.288892	-0.341838	0.802227
2.150	-2.906076	-3.255222	723.009669	5.941227	2.830711	-1.249358	-0.391518	0.821735
2.160	-3.326134	-3.168050	723.002955	6.096568	3.206801	-1.211710	-0.443539	0.843229
2.170	-3.716098	-3.080372	722.992396	6.273569	3.584071	-1.177275	-0.495727	0.867723
2.180	-4.062238	-2.985838	722.944104	6.477919	3.947232	-1.147383	-0.545994	0.896047
2.190	-4.357395	-2.876611	722.858849	6.712747	4.282652	-1.123213	-0.592460	0.928639
2.200	-4.596916	-2.745369	722.766722	6.978683	4.578914	-1.105659	-0.633526	0.965551
2.210	-4.776213	-2.586938	722.711446	7.275121	4.827257	-1.095212	-0.667937	1.006643
2.220	-4.891181	-2.398975	722.732814	7.601768	5.022121	-1.091863	-0.694879	1.051809
2.230	-4.940445	-2.181764	722.854142	7.959454	5.161698	-1.095019	-0.714072	1.101115
2.240	-4.927423	-1.937455	723.077006	8.349758	5.248249	-1.103445	-0.725822	1.154754
2.250	-4.860870	-1.669112	723.381494	8.773677	5.287946	-1.115319	-0.731004	1.212870
2.260	-4.753931	-1.379722	723.729170	9.230058	5.290138	-1.128464	-0.730956	1.275347
2.270	-4.622429	-1.071305	724.067407	9.714499	5.266051	-1.140768	-0.727287	1.341657
2.280	-4.482949	-0.744482	724.335768	10.219248	5.227063	-1.150681	-0.721635	1.410844
2.290	-4.350981	-0.398908	724.475878	10.734205	5.182886	-1.157653	-0.715398	1.481651
2.300	-4.239415	-0.034548	724.444983	11.248679	5.140145	-1.162377	-0.709529	1.552731
2.310	-4.157565	0.346792	724.230356	11.753289	5.101840	-1.166698	-0.704450	1.622866
2.320	-4.110393	0.740383	723.859166	12.241495	5.067769	-1.173085	-0.700104	1.691143
2.330	-4.097339	1.138368	723.398581	12.710498	5.035572	-1.183798	-0.696099	1.757053
2.340	-4.110762	1.530637	722.943536	13.161379	5.001760	-1.200085	-0.691860	1.820527
2.350	-4.134968	1.906830	722.593656	13.598340	4.962259	-1.221817	-0.686729	1.881879
2.360	-4.147135	2.259046	722.425553	14.026999	4.912314	-1.247766	-0.679975	1.941653
2.370	-4.120736	2.584078	722.470557	14.452189	4.846027	-1.276359	-0.670758	2.000385
2.380	-4.030844	2.883893	722.707470	14.876211	4.756100	-1.306500	-0.658095	2.058400
