Time[s]	Fx[N]	Fy[N]	Fz[N]	Mx[Nm]	My[Nm]	Mz[Nm]	COPx[cm]	COPy[cm]
0.010	2.428848	-7.080909	454.344057	3.514135	4.800885	-0.436359	-1.056663	0.773452
0.020	2.110451	-7.104065	454.120774	3.518225	5.017544	-0.416696	-1.104892	0.774733
0.030	1.789061	-7.126913	453.939345	3.523432	5.247069	-0.399964	-1.155897	0.776190
0.040	1.467685	-7.147581	453.829134	3.531268	5.497823	-0.388957	-1.211430	0.778105
0.050	1.157725	-7.160838	453.801400	3.543903	5.771479	-0.385801	-1.271807	0.780937
0.060	0.877844	-7.159687	453.848708	3.564069	6.062502	-0.391627	-1.335798	0.785299
0.070	0.648828	-7.138724	453.949367	3.594612	6.360018	-0.406168	-1.401041	0.791853
0.080	0.486473	-7.097330	454.075126	3.637755	6.651394	-0.427473	-1.464822	0.801135
0.090	0.395648	-7.040903	454.200162	3.694342	6.926100	-0.452024	-1.524900	0.813373
0.100	0.368141	-6.979598	454.308673	3.763415	7.178322	-0.475481	-1.580054	0.828383
0.110	0.385020	-6.925163	454.398123	3.842392	7.407362	-0.493874	-1.630148	0.845600
0.120	0.422362	-6.886973	454.476678	3.927880	7.615932	-0.504743	-1.675759	0.864264
0.130	0.458113	-6.868509	454.555709	4.016715	7.807428	-0.507770	-1.717595	0.883657
0.140	0.477705	-6.865723	454.640417	4.106661	7.983547	-0.504677	-1.756014	0.903277
0.150	0.476640	-6.868364	454.723112	4.196466	8.143195	-0.498539	-1.790803	0.922862
0.160	0.459463	-6.863985	454.783720	4.285486	8.282888	-0.492810	-1.821281	0.942313
0.170	0.436027	-6.842729	454.798880	4.373271	8.398272	-0.490383	-1.846590	0.961583
0.180	0.416783	-6.800574	454.755429	4.459419	8.486128	-0.492863	-1.866086	0.980619
0.190	0.408735	-6.739914	454.660435	4.543738	8.546271	-0.500249	-1.879704	0.999370
0.200	0.413034	-6.667963	454.541550	4.626422	8.582701	-0.511084	-1.888211	1.017822
0.210	0.424407	-6.593987	454.437313	4.707885	8.603529	-0.523053	-1.893227	1.035981
0.220	0.432155	-6.526169	454.382564	4.788175	8.619434	-0.533811	-1.896955	1.053776
0.230	0.422423	-6.468873	454.395706	4.866380	8.641079	-0.541716	-1.901664	1.070956
0.240	0.381457	-6.421393	454.472500	4.940549	8.676420	-0.546217	-1.909119	1.087095
0.250	0.299236	-6.378957	454.587851	5.008404	8.729009	-0.547794	-1.920203	1.101746
0.260	0.172364	-6.335461	454.704276	5.068586	8.797920	-0.547550	-1.934866	1.114700
0.270	0.005155	-6.286251	454.783522	5.121857	8.879100	-0.546677	-1.952379	1.126219
0.280	-0.191323	-6.229521	454.797322	5.171563	8.967362	-0.546036	-1.971727	1.137114
0.290	-0.401564	-6.165937	454.734564	5.222953	9.058136	-0.546029	-1.991961	1.148572
0.300	-0.608209	-6.097143	454.604145	5.281448	9.148382	-0.546729	-2.012384	1.161769
0.310	-0.794110	-6.024228	454.433718	5.350525	9.236483	-0.548139	-2.032526	1.177405
0.320	-0.943746	-5.947117	454.264227	5.430192	9.321301	-0.550405	-2.051956	1.195382
0.330	-1.044567	-5.865228	454.139576	5.516825	9.400946	-0.553892	-2.070056	1.214786
0.340	-1.088985	-5.778796	454.092049	5.604471	9.471904	-0.559072	-2.085899	1.234215
0.350	-1.076834	-5.689852	454.127791	5.686856	9.528973	-0.566259	-2.098302	1.252259
0.360	-1.017056	-5.602115	454.220102	5.759128	9.566075	-0.575328	-2.106044	1.267916
0.370	-0.926970	-5.519791	454.316966	5.818669	9.577649	-0.585571	-2.108142	1.280751
0.380	-0.828419	-5.445973	454.362038	5.864988	9.560169	-0.595816	-2.104086	1.290818
0.390	-0.741737	-5.381567	454.319771	5.899085	9.513311	-0.604739	-2.093968	1.298443
0.400	-0.679906	-5.325373	454.191737	5.922695	9.440365	-0.611203	-2.078498	1.304008
0.410	-0.645243	-5.275284	454.015669	5.937627	9.347649	-0.614488	-2.058882	1.307802
0.420	-0.629503	-5.229947	453.848316	5.945213	9.242929	-0.614419	-2.036568	1.309956
0.430	-0.616760	-5.190186	453.741717	5.945887	9.133279	-0.611437	-2.012881	1.310412
0.440	-0.587822	-5.159783	453.724876	5.938957	9.023133	-0.606548	-1.988679	1.308934
0.450	-0.525094	-5.145372	453.797936	5.922688	8.913334	-0.601089	-1.964164	1.305138
0.460	-0.416922	-5.155199	453.937937	5.894724	8.801616	-0.596284	-1.938947	1.298575
0.470	-0.260463	-5.196635	454.109760	5.852745	8.684394	-0.592738	-1.912400	1.288839
0.480	-0.062452	-5.273019	454.275848	5.795123	8.559165	-0.590122	-1.884134	1.275684
0.490	0.162106	-5.381079	454.402280	5.721449	8.426509	-0.587238	-1.854416	1.259115
0.500	0.392875	-5.510377	454.462718	5.632947	8.290802	-0.582477	-1.824308	1.239474
0.510	0.608195	-5.645501	454.442431	5.532769	8.159340	-0.574459	-1.795462	1.217485
0.520	0.789450	-5.770554	454.342160	5.425893	8.040338	-0.562550	-1.769666	1.194230
0.530	0.924733	-5.874296	454.179559	5.318318	7.940716	-0.547084	-1.748365	1.170973
0.540	1.010749	-5.953800	453.986566	5.215669	7.864582	-0.529301	-1.732338	1.148860
0.550	1.052530	-6.014932	453.802755	5.121759	7.812825	-0.511078	-1.721634	1.128631
0.560	1.061374	-6.069261	453.666116	5.037735	7.783687	-0.494554	-1.715730	1.110450
0.570	1.051821	-6.128578	453.603992	4.962124	7.773803	-0.481658	-1.713786	1.093933
0.580	1.038407	-6.199519	453.627539	4.891669	7.779115	-0.473647	-1.714868	1.078345
0.590	1.032670	-6.280926	453.731314	4.822725	7.795369	-0.470790	-1.718058	1.062903
0.600	1.040837	-6.365174	453.896587	4.752837	7.818260	-0.472354	-1.722476	1.047119
0.610	1.062643	-6.442343	454.095670	4.682055	7.843575	-0.476883	-1.727296	1.031072
0.620	1.091779	-6.504679	454.296075	4.613445	7.867635	-0.482666	-1.731830	1.015515
0.630	1.118174	-6.549119	454.465015	4.552382	7.888011	-0.488222	-1.735669	1.001701
0.640	1.131698	-6.577205	454.574548	4.504712	7.904237	-0.492638	-1.738821	0.990973
0.650	1.126053	-6.593211	454.606393	4.474428	7.918177	-0.495688	-1.741765	0.984242
0.660	1.101269	-6.601873	454.555391	4.461922	7.933760	-0.497699	-1.745389	0.981601
0.670	1.063563	-6.606856	454.431463	4.463628	7.956039	-0.499273	-1.750768	0.982244
0.680	1.022433	-6.610353	454.259710	4.473250	7.989839	-0.500958	-1.758870	0.984734
0.690	0.986406	-6.613472	454.077270	4.484045	8.038469	-0.503020	-1.770286	0.987507
0.700	0.959619	-6.616632	453.925975	4.491230	8.102921	-0.505411	-1.785075	0.989419
0.710	0.940810	-6.619499	453.841986	4.493654	8.181814	-0.507993	-1.802789	0.990136
0.720	0.924572	-6.620628	453.845793	4.494141	8.272046	-0.510859	-1.822656	0.990235
0.730	0.903577	-6.617409	453.936657	4.498350	8.369948	-0.514547	-1.843858	0.990964
0.740	0.870514	-6.606713	454.093954	4.512438	8.472497	-0.519969	-1.865803	0.993723
0.750	0.819333	-6.586097	454.284550	4.540393	8.578156	-0.528062	-1.888278	0.999460
0.760	0.746105	-6.555006	454.472060	4.582105	8.687057	-0.539311	-1.911461	1.008226
0.770	0.649897	-6.515363	454.623594	4.633059	8.800479	-0.553388	-1.935773	1.019098
0.780	0.533694	-6.471212	454.712846	4.685740	8.919764	-0.569074	-1.961626	1.030483
0.790	0.404874	-6.427638	454.722281	4.732101	9.045008	-0.584538	-1.989128	1.040657
0.800	0.274634	-6.389612	454.647381	4.766038	9.173958	-0.597849	-2.017818	1.048293
0.810	0.156139	-6.361332	454.501762	4.784962	9.301640	-0.607531	-2.046557	1.052793
0.820	0.061668	-6.346111	454.318074	4.790083	9.421002	-0.612962	-2.073658	1.054346
0.830	-0.000554	-6.346348	454.140539	4.785456	9.524453	-0.614477	-2.097248	1.053739
0.840	-0.028774	-6.363102	454.010346	4.776274	9.605703	-0.613125	-2.115745	1.052019
0.850	-0.028079	-6.395326	453.950286	4.767108	9.661136	-0.610139	-2.128237	1.050139
0.860	-0.007910	-6.439369	453.956453	4.760674	9.690290	-0.606381	-2.134630	1.048707
0.870	0.022480	-6.489343	454.001768	4.757360	9.695463	-0.602011	-2.135556	1.047873
0.880	0.058184	-6.538403	454.049973	4.755433	9.680813	-0.596559	-2.132103	1.047337
0.890	0.099947	-6.580387	454.073013	4.751808	9.651421	-0.589329	-2.125522	1.046485
0.900	0.152018	-6.611134	454.062818	4.743210	9.612582	-0.579888	-2.117016	1.044615
0.910	0.218179	-6.629163	454.032076	4.727354	9.569403	-0.568379	-2.107649	1.041194
0.920	0.298323	-6.635710	454.005300	4.703638	9.526532	-0.555540	-2.098331	1.036032
0.930	0.387116	-6.634204	454.006528	4.673029	9.487888	-0.542521	-2.089813	1.029287
0.940	0.474908	-6.629179	454.050195	4.637231	9.456315	-0.530674	-2.082659	1.021304
0.950	0.550133	-6.624928	454.138098	4.597701	9.433320	-0.521323	-2.077192	1.012402
0.960	0.602162	-6.624501	454.261690	4.555137	9.419180	-0.515454	-2.073514	1.002756
0.970	0.623699	-6.629547	454.407045	4.509715	9.413593	-0.513323	-2.071621	0.992439
0.980	0.612216	-6.640693	454.559562	4.461787	9.416605	-0.514170	-2.071589	0.981563
0.990	0.570249	-6.657702	454.706527	4.412443	9.429235	-0.516336	-2.073697	0.970394
1.000	0.504646	-6.679000	454.837419	4.363504	9.453258	-0.517851	-2.078382	0.959355
1.010	0.424998	-6.701137	454.943022	4.316957	9.490150	-0.517271	-2.086009	0.948901
1.020	0.341748	-6.719111	455.014450	4.274228	9.539768	-0.514338	-2.096586	0.939361
1.030	0.264538	-6.727991	455.042928	4.235751	9.599573	-0.510094	-2.109597	0.930847
1.040	0.201042	-6.725200	455.020901	4.201023	9.664970	-0.506368	-2.124072	0.923259
1.050	0.156203	-6.712046	454.944411	4.168998	9.730716	-0.504866	-2.138880	0.916375
1.060	0.131639	-6.693407	454.815542	4.138537	9.792788	-0.506361	-2.153134	0.909937
1.070	0.125302	-6.675674	454.643639	4.108705	9.849828	-0.510431	-2.166494	0.903720
1.080	0.131763	-6.664334	454.445653	4.078969	9.903448	-0.515857	-2.179237	0.897570
1.090	0.143543	-6.662573	454.247292	4.049405	9.957221	-0.521380	-2.192027	0.891454
1.100	0.153349	-6.671247	454.084932	4.020871	10.014806	-0.526319	-2.205492	0.885489
1.110	0.156456	-6.689587	454.004452	3.994958	10.078115	-0.530730	-2.219827	0.879938
1.120	0.152071	-6.715643	454.051852	3.973534	10.146397	-0.535125	-2.234634	0.875128
1.130	0.142867	-6.746062	454.254822	3.958038	10.216618	-0.539987	-2.249094	0.871325
1.140	0.132848	-6.775744	454.601772	3.948932	10.284934	-0.545358	-2.262405	0.868657
1.150	0.124719	-6.798567	455.030081	3.945675	10.348507	-0.550645	-2.274247	0.867124
1.160	0.118329	-6.809620	455.433997	3.947119	10.406877	-0.554741	-2.285046	0.866672
1.170	0.110960	-6.807800	455.693873	3.951904	10.462360	-0.556436	-2.295919	0.867228
1.180	0.098900	-6.796754	455.716894	3.958629	10.519346	-0.555031	-2.308307	0.868660
1.190	0.079099	-6.783111	455.472536	3.965886	10.582753	-0.550879	-2.323467	0.870719
1.200	0.050189	-6.772918	455.007902	3.972450	10.656111	-0.545562	-2.341962	0.873051
1.210	0.012947	-6.768475	454.436614	3.977729	10.739869	-0.541508	-2.363337	0.875310
1.220	-0.029477	-6.767518	453.905231	3.982225	10.830565	-0.541137	-2.386085	0.877325
1.230	-0.071581	-6.765067	453.548935	3.987628	10.921284	-0.545874	-2.407961	0.879206
1.240	-0.106186	-6.756628	453.451438	3.996329	11.003381	-0.555485	-2.426584	0.881314
1.250	-0.126161	-6.740844	453.622313	4.010515	11.068844	-0.568041	-2.440101	0.884109
1.260	-0.127031	-6.720221	453.998651	4.031275	11.112377	-0.580586	-2.447667	0.887949
1.270	-0.109526	-6.699897	454.469058	4.058122	11.132413	-0.590164	-2.449542	0.892937
1.280	-0.080618	-6.685403	454.909810	4.089148	11.130821	-0.594706	-2.446819	0.898892
1.290	-0.052084	-6.680757	455.219569	4.121737	11.111598	-0.593430	-2.440931	0.905439
1.300	-0.036657	-6.687564	455.341791	4.153615	11.079093	-0.586704	-2.433138	0.912197
1.310	-0.043021	-6.704965	455.270623	4.183851	11.036317	-0.575655	-2.424122	0.918981
1.320	-0.071603	-6.729960	455.042503	4.213317	10.983770	-0.561764	-2.413790	0.925917
1.330	-0.113214	-6.757921	454.719201	4.244250	10.919141	-0.546616	-2.401293	0.933378
1.340	-0.151657	-6.783455	454.368955	4.279085	10.838012	-0.531790	-2.385289	0.941764
1.350	-0.169556	-6.801592	454.051528	4.319206	10.735401	-0.518834	-2.364357	0.951259
1.360	-0.154689	-6.808949	453.810308	4.364303	10.607625	-0.509230	-2.337458	0.961702
1.370	-0.103589	-6.804357	453.670810	4.412517	10.453809	-0.504276	-2.304272	0.972625
1.380	-0.020840	-6.788709	453.641984	4.461072	10.276537	-0.504810	-2.265341	0.983390
1.390	0.084807	-6.764311	453.716744	4.506981	10.081533	-0.510866	-2.221988	0.993347
1.400	0.204668	-6.734261	453.871038	4.547584	9.876631	-0.521446	-2.176088	1.001955
1.410	0.332532	-6.702121	454.064293	4.581024	9.670503	-0.534645	-2.129765	1.008893
1.420	0.464960	-6.671623	454.245096	4.606740	9.471590	-0.548182	-2.085128	1.014153
1.430	0.600450	-6.646012	454.363136	4.625826	9.287403	-0.560152	-2.044048	1.018090
1.440	0.738207	-6.627069	454.383894	4.640859	9.124135	-0.569671	-2.008023	1.021352
1.450	0.876654	-6.614342	454.299873	4.655031	8.986413	-0.577091	-1.978080	1.024660
1.460	1.011957	-6.605215	454.133122	4.670832	8.877129	-0.583725	-1.954741	1.028516
1.470	1.137309	-6.595960	453.927717	4.688920	8.797399	-0.591208	-1.938062	1.032966
1.480	1.243646	-6.583316	453.735519	4.707798	8.746768	-0.600755	-1.927724	1.037564
1.490	1.321643	-6.565804	453.601201	4.724564	8.723631	-0.612584	-1.923194	1.041568
1.500	1.364062	-6.544101	453.551743	4.736409	8.725776	-0.625735	-1.923877	1.044293
1.510	1.367308	-6.520413	453.592463	4.742077	8.750910	-0.638371	-1.929245	1.045449
1.520	1.331510	-6.497406	453.708775	4.742454	8.797131	-0.648504	-1.938938	1.045264
1.530	1.259324	-6.477409	453.871826	4.740033	8.863331	-0.654875	-1.952827	1.044355
1.540	1.154556	-6.462118	454.046604	4.737635	8.949345	-0.657552	-1.971019	1.043425
1.550	1.021876	-6.452540	454.201261	4.737118	9.055639	-0.657907	-1.993750	1.042956
1.560	0.868003	-6.448955	454.315273	4.738717	9.182422	-0.657936	-2.021156	1.043046
1.570	0.703555	-6.450922	454.383359	4.741122	9.328381	-0.659243	-2.052976	1.043419
1.580	0.543975	-6.457455	454.413773	4.742056	9.489489	-0.662258	-2.088293	1.043555
1.590	0.408267	-6.467297	454.422906	4.738934	9.658358	-0.666108	-2.125412	1.042847
1.600	0.315339	-6.479148	454.429503	4.729467	9.824536	-0.669241	-2.161949	1.040748
1.610	0.279080	-6.491780	454.450283	4.712206	9.975939	-0.670406	-2.195166	1.036902
1.620	0.304019	-6.504110	454.496536	4.686998	10.101192	-0.669418	-2.222501	1.031251
1.630	0.383235	-6.515255	454.571398	4.655211	10.192200	-0.667238	-2.242156	1.024088
1.640	0.499359	-6.524576	454.669035	4.619617	10.246021	-0.665374	-2.253512	1.016040
1.650	0.628721	-6.531805	454.777125	4.584024	10.265248	-0.664995	-2.257204	1.007972
1.660	0.747720	-6.537346	454.881796	4.552775	10.256665	-0.666258	-2.254798	1.000870
1.670	0.839601	-6.542619	454.971904	4.530099	10.228597	-0.668169	-2.248182	0.995688
1.680	0.899241	-6.549916	455.040030	4.519321	10.188011	-0.668980	-2.238926	0.993170
1.690	0.934015	-6.561193	455.080683	4.522111	10.138577	-0.666907	-2.227864	0.993694
1.700	0.960328	-6.576020	455.088642	4.538127	10.080437	-0.660874	-2.215049	0.997196
1.710	0.997093	-6.590055	455.059800	4.565215	10.011604	-0.650941	-2.200063	1.003212
1.720	1.058667	-6.595696	454.994162	4.600110	9.930201	-0.638227	-2.182490	1.011026
1.730	1.149796	-6.585161	454.898593	4.639359	9.836512	-0.624354	-2.162353	1.019867
1.740	1.264206	-6.554459	454.786817	4.680157	9.734063	-0.610752	-2.140357	1.029088
1.750	1.386953	-6.506010	454.675998	4.720856	9.629425	-0.598178	-2.117865	1.038290
1.760	1.499323	-6.448495	454.581409	4.761022	9.530985	-0.586681	-2.096651	1.047342
1.770	1.584359	-6.394028	454.511741	4.801070	9.447215	-0.575957	-2.078541	1.056314
1.780	1.631081	-6.354030	454.467113	4.841627	9.385017	-0.565837	-2.065060	1.065342
1.790	1.636161	-6.335668	454.440697	4.882947	9.348496	-0.556592	-2.057143	1.074496
1.800	1.603015	-6.340223	454.423051	4.924664	9.338428	-0.548865	-2.055008	1.083718
1.810	1.539295	-6.363565	454.406587	4.965936	9.352542	-0.543317	-2.058188	1.092840
1.820	1.454124	-6.397913	454.387744	5.005746	9.386593	-0.540226	-2.065767	1.101646
1.830	1.355992	-6.433845	454.366655	5.043173	9.435935	-0.539266	-2.076723	1.109935
1.840	1.251569	-6.462093	454.345774	5.077559	9.497062	-0.539582	-2.090272	1.117554
1.850	1.145372	-6.475225	454.328439	5.108637	9.568475	-0.540118	-2.106070	1.124437
1.860	1.040071	-6.469277	454.317361	5.136574	9.650480	-0.540069	-2.124171	1.130614
1.870	0.937209	-6.444917	454.313461	5.161926	9.743954	-0.539268	-2.144765	1.136204
1.880	0.838035	-6.407449	454.316536	5.185639	9.848711	-0.538326	-2.167808	1.141415
1.890	0.744132	-6.365228	454.328418	5.209265	9.962321	-0.538417	-2.192758	1.146586
1.900	0.657759	-6.326888	454.356595	5.235280	10.080025	-0.540728	-2.218527	1.152240
1.910	0.581939	-6.298448	454.414494	5.267048	10.195800	-0.545850	-2.243722	1.159085
1.920	0.520336	-6.281495	454.516495	5.308085	10.304041	-0.553431	-2.267033	1.167853
1.930	0.476749	-6.273038	454.669858	5.360706	10.401097	-0.562327	-2.287615	1.179033
1.940	0.454111	-6.266905	454.868404	5.424676	10.486071	-0.571134	-2.305298	1.192581
1.950	0.453168	-6.255963	455.091654	5.496643	10.560688	-0.578766	-2.320563	1.207810
1.960	0.471223	-6.234291	455.309532	5.570805	10.628449	-0.584781	-2.334335	1.223520
1.970	0.501369	-6.198637	455.489702	5.640651	10.693473	-0.589353	-2.347687	1.238371
1.980	0.532511	-6.148862	455.603768	5.701005	10.759525	-0.592955	-2.361597	1.251308
1.990	0.550532	-6.087565	455.630160	5.749386	10.829490	-0.595986	-2.376816	1.261854
2.000	0.540855	-6.019248	455.554618	5.786112	10.905329	-0.598520	-2.393858	1.270125
2.010	0.492117	-5.949368	455.371807	5.813298	10.988308	-0.600286	-2.413041	1.276605
2.020	0.399704	-5.883393	455.090251	5.833501	11.079194	-0.600841	-2.434505	1.281834
2.030	0.267480	-5.825959	454.738213	5.848687	11.178251	-0.599851	-2.458173	1.286166
2.040	0.106711	-5.780244	454.365025	5.859815	11.285035	-0.597347	-2.483694	1.289671
2.050	-0.067424	-5.747702	454.033991	5.866908	11.398152	-0.593867	-2.510418	1.292174
2.060	-0.240156	-5.728183	453.807478	5.869381	11.515150	-0.590415	-2.537453	1.293364
2.070	-0.400375	-5.720260	453.728750	5.866415	11.632577	-0.588229	-2.563773	1.292934
2.080	-0.541644	-5.721561	453.807303	5.857348	11.746205	-0.588423	-2.588368	1.290713
2.090	-0.661145	-5.729015	454.014259	5.842186	11.851371	-0.591588	-2.610352	1.286785
2.100	-0.757826	-5.739158	454.290616	5.822158	11.943469	-0.597525	-2.629037	1.281593
2.110	-0.830985	-5.748681	454.565043	5.799921	12.018533	-0.605262	-2.643963	1.275928
2.120	-0.879805	-5.755187	454.773869	5.779035	12.073840	-0.613384	-2.654911	1.270749
2.130	-0.903647	-5.757668	454.876484	5.762737	12.108300	-0.620513	-2.661887	1.266880
2.140	-0.902725	-5.756246	454.862646	5.752642	12.122410	-0.625714	-2.665070	1.264699
2.150	-0.878634	-5.751327	454.750875	5.748116	12.117689	-0.628697	-2.664687	1.264014
2.160	-0.834206	-5.742968	454.579409	5.746733	12.095760	-0.629773	-2.660869	1.264187
2.170	-0.772544	-5.731008	454.393519	5.745562	12.057448	-0.629597	-2.653526	1.264446
2.180	-0.695741	-5.715803	454.233854	5.742607	12.002276	-0.628803	-2.642312	1.264240
2.190	-0.604180	-5.699037	454.128813	5.737658	11.928635	-0.627741	-2.626707	1.263443
2.200	-0.497094	-5.684159	454.091439	5.732136	11.834693	-0.626417	-2.606236	1.262331
2.210	-0.374269	-5.676122	454.119792	5.728005	11.719824	-0.624649	-2.580778	1.261342
2.220	-0.237916	-5.680249	454.199452	5.726350	11.585986	-0.622279	-2.550859	1.260757
2.230	-0.093548	-5.700486	454.307157	5.726413	11.438401	-0.619315	-2.517768	1.260472
2.240	0.050643	-5.737735	454.415314	5.725598	11.285114	-0.615905	-2.483436	1.259992
2.250	0.185583	-5.789108	454.497343	5.720386	11.135488	-0.612210	-2.450067	1.258618
2.260	0.303509	-5.848628	454.533195	5.707656	10.998129	-0.608260	-2.419654	1.255718
2.270	0.399832	-5.909290	454.513732	5.685834	10.879018	-0.603935	-2.393551	1.250971
2.280	0.474121	-5.965572	454.442921	5.655448	10.780548	-0.599128	-2.372256	1.244479
2.290	0.529931	-6.015178	454.337754	5.618961	10.701810	-0.593992	-2.355475	1.236737
2.300	0.573512	-6.059232	454.225900	5.579903	10.639862	-0.589074	-2.342416	1.228442
2.310	0.611741	-6.101059	454.140184	5.541612	10.591333	-0.585189	-2.332173	1.220243
2.320	0.649852	-6.144372	454.109503	5.506073	10.553731	-0.583064	-2.324050	1.212499
2.330	0.689682	-6.191719	454.148570	5.473379	10.526028	-0.582986	-2.317750	1.205196
2.340	0.729130	-6.243812	454.251498	5.441970	10.508422	-0.584674	-2.313349	1.198008
2.350	0.763152	-6.299909	454.393500	5.409400	10.501356	-0.587438	-2.311071	1.190466
2.360	0.785964	-6.358924	454.540577	5.373158	10.504195	-0.590473	-2.310948	1.182107
2.370	0.793551	-6.420495	454.662561	5.331278	10.514183	-0.593098	-2.312525	1.172579
2.380	0.785581	-6.485309	454.743413	5.282711	10.526260	-0.594841	-2.314769	1.161691
