Time[s]	Fx[N]	Fy[N]	Fz[N]	Mx[Nm]	My[Nm]	Mz[Nm]	COPx[cm]	COPy[cm]
0.010	4.705432	0.629188	662.415316	6.329254	-0.349150	-0.223455	0.052709	0.955481
0.020	4.711657	0.650989	661.916739	6.342433	-0.273662	-0.223135	0.041344	0.958192
0.030	4.720952	0.677471	661.430790	6.351069	-0.202745	-0.223403	0.030652	0.960202
0.040	4.734520	0.710595	660.977701	6.352760	-0.139742	-0.224371	0.021142	0.961116
0.050	4.749890	0.748274	660.584519	6.348373	-0.085743	-0.225522	0.012980	0.961024
0.060	4.761283	0.784849	660.281953	6.341849	-0.039304	-0.226079	0.005953	0.960476
0.070	4.761439	0.813019	660.097658	6.338665	0.003071	-0.225590	-0.000465	0.960262
0.080	4.744110	0.826240	660.049088	6.343568	0.045807	-0.224275	-0.006940	0.961075
0.090	4.706265	0.820685	660.138156	6.358669	0.092847	-0.222898	-0.014065	0.963233
0.100	4.649220	0.796376	660.348049	6.382800	0.146391	-0.222219	-0.022169	0.966581
0.110	4.578402	0.757413	660.642184	6.412382	0.206196	-0.222401	-0.031211	0.970629
0.120	4.502028	0.711338	660.966607	6.443147	0.269688	-0.222806	-0.040802	0.974807
0.130	4.429281	0.667700	661.257601	6.471721	0.332852	-0.222352	-0.050336	0.978699
0.140	4.368541	0.636086	661.454497	6.496371	0.391536	-0.220232	-0.059193	0.982134
0.150	4.326044	0.624034	661.514908	6.516864	0.442680	-0.216479	-0.066919	0.985142
0.160	4.305184	0.635321	661.427571	6.533829	0.485056	-0.212008	-0.073335	0.987837
0.170	4.306460	0.669078	661.217613	6.548030	0.519374	-0.208112	-0.078548	0.990299
0.180	4.327789	0.719975	660.941196	6.559830	0.547841	-0.205771	-0.082888	0.992498
0.190	4.364846	0.779435	660.670691	6.568970	0.573425	-0.205209	-0.086794	0.994288
0.200	4.411190	0.837552	660.475156	6.574776	0.599119	-0.205932	-0.090710	0.995462
0.210	4.458345	0.885209	660.401869	6.576766	0.627417	-0.207173	-0.095005	0.995873
0.220	4.496357	0.915819	660.463623	6.575383	0.660044	-0.208436	-0.099937	0.995571
0.230	4.515434	0.926194	660.635454	6.572443	0.697794	-0.209765	-0.105625	0.994867
0.240	4.508515	0.916445	660.862999	6.570904	0.740428	-0.211553	-0.112040	0.994291
0.250	4.473720	0.889339	661.081107	6.573967	0.786734	-0.214047	-0.119007	0.994427
0.260	4.415275	0.849687	661.236332	6.583867	0.834931	-0.216924	-0.126268	0.995690
0.270	4.342341	0.804042	661.303407	6.600968	0.883360	-0.219279	-0.133579	0.998175
0.280	4.266247	0.760401	661.287916	6.623521	0.931114	-0.220004	-0.140803	1.001609
0.290	4.197351	0.727289	661.215100	6.648127	0.978272	-0.218300	-0.147951	1.005441
0.300	4.142608	0.711790	661.113390	6.670647	1.025615	-0.214019	-0.155134	1.009002
0.310	4.104426	0.716935	661.003518	6.687234	1.074048	-0.207709	-0.162487	1.011679
0.320	4.080889	0.739806	660.898108	6.695241	1.124112	-0.200431	-0.170089	1.013052
0.330	4.067054	0.771703	660.807951	6.693895	1.175816	-0.193469	-0.177936	1.012986
0.340	4.056861	0.800708	660.747434	6.684640	1.228769	-0.188007	-0.185966	1.011679
0.350	4.045054	0.815642	660.734188	6.670978	1.282402	-0.184829	-0.194087	1.009631
0.360	4.028493	0.809741	660.783100	6.657684	1.336123	-0.184093	-0.202203	1.007545
0.370	4.006354	0.782653	660.898125	6.649495	1.389399	-0.185295	-0.210229	1.006130
0.380	3.979194	0.740196	661.066045	6.649658	1.441799	-0.187493	-0.218102	1.005899
0.390	3.947600	0.692059	661.255403	6.658853	1.493040	-0.189747	-0.225789	1.007002
0.400	3.911435	0.648256	661.422243	6.675013	1.543050	-0.191528	-0.233293	1.009191
0.410	3.870197	0.615678	661.521796	6.694279	1.592062	-0.192897	-0.240667	1.011951
0.420	3.824028	0.596255	661.522260	6.712690	1.640701	-0.194362	-0.248019	1.014734
0.430	3.774366	0.587536	661.415193	6.727812	1.689899	-0.196536	-0.255497	1.017184
0.440	3.723695	0.585197	661.218455	6.739612	1.740515	-0.199748	-0.263228	1.019272
0.450	3.674803	0.585950	660.971233	6.750308	1.792773	-0.203788	-0.271233	1.021271
0.460	3.630251	0.589280	660.723559	6.763398	1.845854	-0.207889	-0.279369	1.023635
0.470	3.592300	0.597169	660.523564	6.782216	1.897921	-0.210986	-0.287336	1.026794
0.480	3.563066	0.612245	660.405584	6.808527	1.946583	-0.212174	-0.294756	1.030962
0.490	3.544615	0.635730	660.382484	6.841747	1.989631	-0.211162	-0.301285	1.036028
0.500	3.538764	0.666575	660.445144	6.879260	2.025750	-0.208553	-0.306725	1.041610
0.510	3.546503	0.702151	660.569422	6.917791	2.054936	-0.205731	-0.311086	1.047247
0.520	3.567224	0.739775	660.726702	6.955158	2.078436	-0.204350	-0.314568	1.052653
0.530	3.598325	0.777970	660.891812	6.991439	2.098153	-0.205597	-0.317473	1.057880
0.540	3.635610	0.816854	661.044846	7.029005	2.115703	-0.209644	-0.320054	1.063317
0.550	3.674411	0.857721	661.169064	7.071533	2.131498	-0.215603	-0.322383	1.069550
0.560	3.710880	0.902329	661.250076	7.122605	2.144394	-0.221968	-0.324294	1.077142
0.570	3.742807	0.952346	661.278972	7.184553	2.152233	-0.227268	-0.325465	1.086463
0.580	3.769683	1.009084	661.257500	7.257874	2.153091	-0.230551	-0.325606	1.097587
0.590	3.792227	1.073339	661.201286	7.341191	2.146568	-0.231538	-0.324647	1.110281
0.600	3.811741	1.145115	661.138280	7.431529	2.134333	-0.230473	-0.322827	1.124051
0.610	3.829457	1.223077	661.101929	7.524824	2.119525	-0.227898	-0.320605	1.138225
0.620	3.845905	1.303877	661.120266	7.616626	2.105232	-0.224504	-0.318434	1.152079
0.630	3.860456	1.381833	661.203368	7.702960	2.092835	-0.221081	-0.316519	1.164991
0.640	3.871388	1.449649	661.333692	7.781088	2.081146	-0.218469	-0.314689	1.176575
0.650	3.876654	1.500448	661.465635	7.849782	2.066845	-0.217408	-0.312465	1.186726
0.660	3.875184	1.530376	661.538534	7.908895	2.045949	-0.218344	-0.309271	1.195531
0.670	3.868148	1.540336	661.499891	7.958540	2.015511	-0.221289	-0.304688	1.203105
0.680	3.859336	1.535657	661.328289	7.998540	1.974740	-0.225855	-0.298602	1.209466
0.690	3.854088	1.523666	661.044786	8.028617	1.925177	-0.231456	-0.291232	1.214535
0.700	3.856975	1.510376	660.707758	8.049123	1.870103	-0.237567	-0.283045	1.218258
0.710	3.869430	1.498049	660.394201	8.061630	1.813569	-0.243910	-0.274619	1.220730
0.720	3.888663	1.484941	660.175825	8.068844	1.759445	-0.250457	-0.266512	1.222227
0.730	3.908526	1.467318	660.098973	8.073889	1.710712	-0.257267	-0.259160	1.223133
0.740	3.921869	1.442554	660.174098	8.079455	1.669130	-0.264260	-0.252832	1.223837
0.750	3.923205	1.411600	660.375863	8.087298	1.635283	-0.271071	-0.247629	1.224651
0.760	3.910612	1.379568	660.651763	8.098176	1.608888	-0.277090	-0.243530	1.225786
0.770	3.886470	1.354235	660.936343	8.112055	1.589174	-0.281665	-0.240443	1.227358
0.780	3.857174	1.343210	661.167931	8.128393	1.575137	-0.284334	-0.238236	1.229399
0.790	3.831918	1.351084	661.303915	8.146518	1.565521	-0.284922	-0.236732	1.231887
0.800	3.820562	1.377804	661.330077	8.166009	1.558606	-0.283463	-0.235678	1.234786
0.810	3.831044	1.418826	661.261208	8.186906	1.552031	-0.280060	-0.234708	1.238074
0.820	3.867217	1.466752	661.133492	8.209516	1.542899	-0.274853	-0.233372	1.241733
0.830	3.927817	1.513554	660.991747	8.233769	1.528282	-0.268111	-0.231210	1.245669
0.840	4.006654	1.552449	660.875596	8.258433	1.505993	-0.260347	-0.227878	1.249620
0.850	4.093833	1.578900	660.808694	8.280705	1.475348	-0.252324	-0.223264	1.253117
0.860	4.177756	1.590757	660.794374	8.296600	1.437619	-0.244937	-0.217559	1.255549
0.870	4.247508	1.587895	660.818855	8.302150	1.395943	-0.239034	-0.211244	1.256343
0.880	4.295021	1.571732	660.859849	8.294872	1.354556	-0.235279	-0.204969	1.255164
0.890	4.316448	1.544789	660.895950	8.274812	1.317570	-0.234103	-0.199361	1.252060
0.900	4.312492	1.510284	660.912619	8.244695	1.287772	-0.235723	-0.194848	1.247471
0.910	4.287716	1.471784	660.903498	8.209063	1.265977	-0.240166	-0.191552	1.242097
0.920	4.249114	1.433087	660.868835	8.172814	1.251153	-0.247205	-0.189319	1.236677
0.930	4.204472	1.398369	660.813540	8.139800	1.241151	-0.256211	-0.187822	1.231785
0.940	4.161119	1.372206	660.746130	8.112117	1.233613	-0.266013	-0.186700	1.227721
0.950	4.125331	1.358837	660.678108	8.090248	1.226577	-0.274953	-0.185654	1.224537
0.960	4.102161	1.360562	660.622646	8.073694	1.218581	-0.281246	-0.184459	1.222134
0.970	4.095117	1.376085	660.592303	8.061616	1.208459	-0.283599	-0.182936	1.220362
0.980	4.105372	1.400116	660.596817	8.053194	1.195290	-0.281717	-0.180941	1.219079
0.990	4.130789	1.424824	660.641948	8.047709	1.178631	-0.276392	-0.178407	1.218165
1.000	4.165618	1.442597	660.728880	8.044407	1.158774	-0.269111	-0.175378	1.217505
1.010	4.201612	1.448784	660.852638	8.042176	1.136675	-0.261444	-0.172001	1.216939
1.020	4.230500	1.443106	660.999248	8.039214	1.113535	-0.254566	-0.168462	1.216221
1.030	4.246786	1.428956	661.144085	8.033033	1.090314	-0.249096	-0.164913	1.215020
1.040	4.249547	1.410907	661.255178	8.021140	1.067397	-0.245193	-0.161420	1.213017
1.050	4.242455	1.391858	661.302720	8.002156	1.044445	-0.242749	-0.157938	1.210059
1.060	4.232194	1.371542	661.271071	7.976627	1.020393	-0.241509	-0.154308	1.206257
1.070	4.226081	1.347246	661.166662	7.946833	0.993632	-0.241085	-0.150285	1.201941
1.080	4.229763	1.316095	661.017246	7.915574	0.962463	-0.240931	-0.145603	1.197484
1.090	4.245632	1.277352	660.862919	7.884668	0.925677	-0.240384	-0.140071	1.193087
1.100	4.272286	1.233339	660.743026	7.854073	0.882935	-0.238862	-0.133628	1.188673
1.110	4.305115	1.188608	660.684070	7.822079	0.834600	-0.236162	-0.126324	1.183936
1.120	4.337876	1.147966	660.692982	7.786390	0.781091	-0.232676	-0.118223	1.178519
1.130	4.364893	1.114428	660.757605	7.745501	0.722157	-0.229306	-0.109292	1.172215
1.140	4.383224	1.088093	660.852849	7.699597	0.656572	-0.227029	-0.099352	1.165100
1.150	4.393934	1.066391	660.948957	7.650567	0.582520	-0.226310	-0.088134	1.157513
1.160	4.401831	1.045442	661.019131	7.601207	0.498474	-0.226783	-0.075410	1.149922
1.170	4.413719	1.021733	661.045394	7.554103	0.404149	-0.227424	-0.061138	1.142751
1.180	4.436095	0.993283	661.022309	7.510653	0.301039	-0.227114	-0.045541	1.136218
1.190	4.473376	0.959883	660.958137	7.470483	0.192301	-0.225206	-0.029094	1.130250
1.200	4.527249	0.922427	660.872863	7.431493	0.082006	-0.221759	-0.012409	1.124497
1.210	4.596894	0.881852	660.792746	7.390707	-0.025975	-0.217374	0.003931	1.118461
1.220	4.679419	0.838456	660.742265	7.345777	-0.129019	-0.212778	0.019526	1.111746
1.230	4.770085	0.792228	660.736070	7.296458	-0.226218	-0.208432	0.034237	1.104292
1.240	4.862596	0.744058	660.774263	7.245196	-0.318037	-0.204358	0.048131	1.096471
1.250	4.950112	0.696849	660.843349	7.196443	-0.405295	-0.200287	0.061330	1.088979
1.260	5.027166	0.655370	660.922760	7.154996	-0.488038	-0.195986	0.073842	1.082577
1.270	5.091756	0.624622	660.993767	7.124124	-0.564903	-0.191534	0.085463	1.077790
1.280	5.146284	0.607675	661.045477	7.104282	-0.633405	-0.187342	0.095819	1.074704
1.290	5.196615	0.604279	661.073767	7.092944	-0.691057	-0.183950	0.104536	1.072943
1.300	5.249691	0.610922	661.074027	7.085628	-0.736767	-0.181756	0.111450	1.071836
1.310	5.310876	0.622096	661.034270	7.077657	-0.771681	-0.180858	0.116738	1.070694
1.320	5.381999	0.632057	660.936216	7.065857	-0.798975	-0.181030	0.120885	1.069068
1.330	5.460410	0.636345	660.766321	7.049393	-0.822637	-0.181828	0.124497	1.066851
1.340	5.538970	0.632541	660.530411	7.029465	-0.845894	-0.182784	0.128063	1.064215
1.350	5.606997	0.620101	660.261845	7.008251	-0.869985	-0.183639	0.131764	1.061435
1.360	5.652332	0.599566	660.016843	6.987806	-0.893768	-0.184520	0.135416	1.058731
1.370	5.664431	0.571844	659.858253	6.969476	-0.914234	-0.185897	0.138550	1.056208
1.380	5.637673	0.538150	659.835280	6.953896	-0.927604	-0.188273	0.140581	1.053884
1.390	5.573638	0.500653	659.968116	6.941358	-0.930583	-0.191779	0.141004	1.051772
1.400	5.481450	0.463173	660.242502	6.932168	-0.921414	-0.195941	0.139557	1.049943
1.410	5.376243	0.431144	660.613427	6.926731	-0.900542	-0.199823	0.136319	1.048530
1.420	5.276290	0.410428	661.014520	6.925323	-0.870787	-0.202487	0.131735	1.047681
1.430	5.199251	0.405329	661.371088	6.927768	-0.836874	-0.203470	0.126536	1.047486
1.440	5.158153	0.416645	661.616151	6.933249	-0.804280	-0.202973	0.121563	1.047926
1.450	5.158163	0.440743	661.707118	6.940338	-0.777628	-0.201678	0.117519	1.048853
1.460	5.195433	0.470310	661.637907	6.947220	-0.759174	-0.200405	0.114742	1.050003
1.470	5.258464	0.496707	661.441109	6.952038	-0.747956	-0.199887	0.113080	1.051044
1.480	5.331301	0.512909	661.178187	6.953325	-0.739896	-0.200755	0.111906	1.051657
1.490	5.397313	0.515692	660.920680	6.950438	-0.728817	-0.203627	0.110273	1.051630
1.500	5.442471	0.506349	660.729475	6.943833	-0.708159	-0.209077	0.107178	1.050934
1.510	5.457507	0.490040	660.640004	6.934960	-0.672968	-0.217453	0.101866	1.049734
1.520	5.438607	0.474259	660.657812	6.925760	-0.621455	-0.228573	0.094066	1.048313
1.530	5.386747	0.466772	660.763512	6.917989	-0.555449	-0.241491	0.084062	1.046969
1.540	5.306277	0.473417	660.922641	6.912746	-0.479507	-0.254486	0.072551	1.045924
1.550	5.203580	0.496490	661.095822	6.910399	-0.399135	-0.265374	0.060375	1.045295
1.560	5.085996	0.534286	661.246549	6.910847	-0.318959	-0.272086	0.048236	1.045124
1.570	4.960688	0.581861	661.345857	6.913894	-0.241586	-0.273315	0.036529	1.045428
1.580	4.833226	0.632503	661.374514	6.919499	-0.167461	-0.269002	0.025320	1.046230
1.590	4.706361	0.679375	661.324167	6.927748	-0.095533	-0.260455	0.014446	1.047557
1.600	4.579822	0.717043	661.198903	6.938595	-0.024204	-0.250027	0.003661	1.049396
1.610	4.451562	0.742685	661.017237	6.951592	0.047890	-0.240462	-0.007245	1.051651
1.620	4.319939	0.756654	660.812273	6.965835	0.121464	-0.234141	-0.018381	1.054132
1.630	4.185595	0.762139	660.626957	6.980152	0.196418	-0.232488	-0.029732	1.056595
1.640	4.052079	0.763981	660.503516	6.993389	0.271748	-0.235642	-0.041142	1.058797
1.650	3.925072	0.767143	660.470239	7.004722	0.345586	-0.242454	-0.052324	1.060566
1.660	3.810792	0.775350	660.531642	7.014013	0.415530	-0.250762	-0.062908	1.061874
1.670	3.714385	0.790287	660.667308	7.022173	0.479290	-0.257934	-0.072546	1.062891
1.680	3.638948	0.811543	660.840194	7.031252	0.535301	-0.261611	-0.081003	1.063987
1.690	3.585421	0.837224	661.009877	7.044002	0.582892	-0.260517	-0.088182	1.065642
1.700	3.553002	0.864890	661.144074	7.062893	0.621896	-0.254997	-0.094064	1.068284
1.710	3.539489	0.892298	661.224185	7.088992	0.652072	-0.247007	-0.098616	1.072101
1.720	3.541136	0.917660	661.245292	7.121214	0.672865	-0.239435	-0.101757	1.076940
1.730	3.552358	0.939524	661.213816	7.156422	0.683698	-0.235017	-0.103400	1.082316
1.740	3.566053	0.956651	661.145289	7.190421	0.684520	-0.235270	-0.103536	1.087570
1.750	3.575044	0.968106	661.062088	7.219426	0.676148	-0.239894	-0.102282	1.092095
1.760	3.574394	0.973520	660.989515	7.241317	0.660193	-0.246887	-0.099879	1.095527
1.770	3.563561	0.973269	660.949595	7.256145	0.638727	-0.253349	-0.096638	1.097836
1.780	3.547189	0.968465	660.954280	7.265831	0.613916	-0.256631	-0.092883	1.099294
1.790	3.533828	0.960888	661.001412	7.273371	0.587747	-0.255311	-0.088918	1.100356
1.800	3.532952	0.953061	661.076115	7.281914	0.561859	-0.249569	-0.084992	1.101524
1.810	3.551593	0.948267	661.157376	7.293877	0.537434	-0.240893	-0.081287	1.103198
1.820	3.592089	0.950048	661.226035	7.310125	0.515113	-0.231357	-0.077903	1.105541
1.830	3.651717	0.961085	661.269424	7.329384	0.494935	-0.222881	-0.074846	1.108381
1.840	3.723977	0.982033	661.280884	7.348265	0.476239	-0.216771	-0.072018	1.111217
1.850	3.800574	1.010978	661.256967	7.362232	0.457555	-0.213587	-0.069195	1.113369
1.860	3.873211	1.043711	661.197061	7.367362	0.436654	-0.213261	-0.066040	1.114246
1.870	3.934961	1.074525	661.107579	7.362204	0.410937	-0.215308	-0.062159	1.113617
1.880	3.981431	1.097184	661.008130	7.348768	0.378215	-0.218995	-0.057218	1.111751
1.890	4.011789	1.106054	660.933805	7.332071	0.337538	-0.223422	-0.051070	1.109350
1.900	4.029313	1.097547	660.928184	7.318388	0.289590	-0.227511	-0.043816	1.107289
1.910	4.040956	1.071736	661.026207	7.313042	0.236315	-0.230034	-0.035750	1.106317
1.920	4.055781	1.033422	661.232738	7.318656	0.179796	-0.229800	-0.027191	1.106820
1.930	4.082528	0.991740	661.507971	7.334428	0.120863	-0.226047	-0.018271	1.108744
1.940	4.127028	0.958033	661.770377	7.356550	0.058153	-0.218866	-0.008787	1.111647
1.950	4.190404	0.942648	661.920293	7.379575	-0.011808	-0.209431	0.001784	1.114874
1.960	4.269009	0.951783	661.876370	7.398338	-0.093427	-0.199817	0.014115	1.117782
1.970	4.356331	0.985503	661.609648	7.409816	-0.190265	-0.192417	0.028758	1.119968
1.980	4.446069	1.037533	661.160452	7.414181	-0.303469	-0.189146	0.045899	1.121389
1.990	4.534787	1.096898	660.630877	7.414478	-0.431111	-0.190751	0.065257	1.122333
2.000	4.622666	1.150864	660.155615	7.415044	-0.568721	-0.196488	0.086150	1.123227
2.010	4.711958	1.188259	659.861610	7.419502	-0.710689	-0.204354	0.107703	1.124403
2.020	4.804213	1.202193	659.830296	7.429383	-0.851857	-0.211816	0.129102	1.125954
2.030	4.898377	1.191437	660.074556	7.443882	-0.988719	-0.216755	0.149789	1.127733
2.040	4.991315	1.160195	660.536880	7.460566	-1.119885	-0.218178	0.169542	1.129470
2.050	5.080454	1.116513	661.107786	7.476444	-1.245806	-0.216358	0.188442	1.130896
2.060	5.166541	1.069930	661.657482	7.488905	-1.367890	-0.212411	0.206737	1.131840
2.070	5.254480	1.029118	662.070537	7.496303	-1.487317	-0.207626	0.224646	1.132251
2.080	5.351625	0.999972	662.273585	7.498170	-1.603977	-0.202981	0.242192	1.132186
2.090	5.464401	0.984327	662.249363	7.495068	-1.715985	-0.198989	0.259115	1.131759
2.100	5.594903	0.979565	662.035042	7.488201	-1.820007	-0.195818	0.274911	1.131088
2.110	5.739074	0.979609	661.707012	7.478930	-1.912330	-0.193492	0.289000	1.130248
2.120	5.887355	0.977491	661.357081	7.468358	-1.990234	-0.192022	0.300932	1.129247
2.130	6.027572	0.968559	661.066559	7.457068	-2.053013	-0.191439	0.310561	1.128036
2.140	6.148753	0.952588	660.885111	7.445044	-2.102096	-0.191772	0.318073	1.126526
2.150	6.244183	0.933477	660.820663	7.431767	-2.140139	-0.193013	0.323861	1.124627
2.160	6.312335	0.916698	660.843900	7.416454	-2.169558	-0.195086	0.328301	1.122270
2.170	6.355330	0.906098	660.905643	7.398375	-2.191279	-0.197832	0.331557	1.119430
2.180	6.375890	0.901973	660.959391	7.377189	-2.204331	-0.201020	0.333505	1.116133
2.190	6.374657	0.901387	660.978612	7.353257	-2.206375	-0.204351	0.333804	1.112480
2.200	6.349597	0.900259	660.961700	7.327810	-2.194858	-0.207447	0.332070	1.108659
2.210	6.297863	0.895740	660.924924	7.302733	-2.168209	-0.209794	0.328057	1.104926
2.220	6.218840	0.887487	660.889548	7.279925	-2.126615	-0.210758	0.321781	1.101534
2.230	6.116209	0.877285	660.870228	7.260516	-2.072133	-0.209734	0.313546	1.098630
2.240	5.997615	0.867415	660.868738	7.244432	-2.008183	-0.206442	0.303870	1.096198
2.250	5.872305	0.858802	660.873805	7.230591	-1.938625	-0.201208	0.293343	1.094096
2.260	5.748498	0.849959	660.866282	7.217532	-1.866744	-0.195016	0.282469	1.092132
2.270	5.632139	0.837427	660.828164	7.204100	-1.794476	-0.189253	0.271550	1.090162
2.280	5.527262	0.817637	660.752491	7.189793	-1.722213	-0.185239	0.260644	1.088122
2.290	5.436800	0.789289	660.649679	7.174701	-1.649278	-0.183799	0.249645	1.086007
2.300	5.362589	0.754941	660.546797	7.159207	-1.574804	-0.185056	0.238409	1.083830
2.310	5.304413	0.720716	660.479784	7.143763	-1.498496	-0.188476	0.226880	1.081602
2.320	5.259131	0.694027	660.481826	7.128913	-1.420884	-0.193075	0.215128	1.079350
2.330	5.221042	0.680325	660.571945	7.115407	-1.342983	-0.197689	0.203306	1.077159
2.340	5.183603	0.680487	660.746977	7.104125	-1.265690	-0.201238	0.191554	1.075166
2.350	5.141513	0.690291	660.979392	7.095698	-1.189248	-0.202939	0.179922	1.073513
2.360	5.092069	0.702322	661.222651	7.090077	-1.112979	-0.202465	0.168321	1.072268
2.370	5.035429	0.709352	661.423769	7.086438	-1.035330	-0.199980	0.156531	1.071392
2.380	4.973951	0.707476	661.539403	7.083602	-0.954290	-0.196062	0.144253	1.070775
2.390	4.910900	0.697516	661.549510	7.080709	-0.868168	-0.191555	0.131233	1.070322
2.400	4.848871	0.684269	661.463378	7.077743	-0.776529	-0.187410	0.117396	1.070013
2.410	4.788554	0.674183	661.315884	7.075619	-0.680826	-0.184490	0.102950	1.069930
2.420	4.728492	0.672620	661.155324	7.075874	-0.584317	-0.183305	0.088378	1.070229
2.430	4.666048	0.681841	661.027210	7.080153	-0.491194	-0.183761	0.074308	1.071083
