Time[s]	Fx[N]	Fy[N]	Fz[N]	Mx[Nm]	My[Nm]	Mz[Nm]	COPx[cm]	COPy[cm]
0.010	9.072960	-8.423039	720.818120	1.543769	-9.175713	0.701926	1.272958	0.214169
0.020	9.157528	-8.238717	721.432207	1.816077	-9.569806	0.682618	1.326501	0.251732
0.030	9.266927	-8.054580	722.032512	2.097853	-9.961500	0.666542	1.379647	0.290548
0.040	9.423222	-7.872118	722.611564	2.394477	-10.348674	0.656228	1.432121	0.331364
0.050	9.638509	-7.695256	723.165515	2.706453	-10.729607	0.652860	1.483700	0.374251
0.060	9.910132	-7.530051	723.684739	3.030375	-11.102601	0.656107	1.534177	0.418742
0.070	10.219347	-7.382556	724.141925	3.361696	-11.465593	0.664320	1.583335	0.464232
0.080	10.535685	-7.255732	724.486253	3.697576	-11.815927	0.674962	1.630939	0.510372
0.090	10.826536	-7.147104	724.650154	4.038425	-12.150336	0.685130	1.676718	0.557293
0.100	11.068245	-7.048377	724.568766	4.387767	-12.465122	0.692114	1.720350	0.605569
0.110	11.253711	-6.946965	724.204746	4.750946	-12.756644	0.693924	1.761469	0.656022
0.120	11.393454	-6.828271	723.566810	5.133563	-13.022206	0.689714	1.799724	0.709480
0.130	11.510795	-6.677476	722.712498	5.540336	-13.261134	0.679954	1.834911	0.766603
0.140	11.634657	-6.480364	721.733374	5.974543	-13.475419	0.666315	1.867091	0.827805
0.150	11.793406	-6.223683	720.728774	6.437879	-13.669191	0.651285	1.896579	0.893246
0.160	12.010617	-5.896094	719.777200	6.930754	-13.846702	0.637666	1.923748	0.962903
0.170	12.300884	-5.490324	718.912536	7.453352	-14.009133	0.628031	1.948656	1.036754
0.180	12.663656	-5.005941	718.109536	8.007655	-14.151180	0.624165	1.970616	1.115102
0.190	13.075580	-4.451096	717.281830	8.599870	-14.258648	0.626482	1.987873	1.198953
0.200	13.485039	-3.841912	716.295502	9.241799	-14.308277	0.633517	1.997538	1.290222
0.210	13.813759	-3.199697	715.000751	9.949718	-14.270521	0.641697	1.995875	1.391567
0.220	13.968971	-2.547229	713.281722	10.740345	-14.115309	0.645786	1.978925	1.505765
0.230	13.866308	-1.905051	711.117865	11.625076	-13.819855	0.640198	1.943399	1.634761
0.240	13.458989	-1.287745	708.639299	12.604592	-13.376665	0.621001	1.887655	1.778704
0.250	12.763914	-0.700149	706.149095	13.665925	-12.799085	0.587953	1.812519	1.935275
0.260	11.872168	-0.134657	704.087034	14.783135	-12.121705	0.545609	1.721620	2.099618
0.270	10.933631	0.428401	702.928465	15.921608	-11.393994	0.502710	1.620932	2.265040
0.280	10.114455	1.015782	703.043566	17.044840	-10.667926	0.469603	1.517392	2.424436
0.290	9.539786	1.652103	704.569437	18.121727	-9.983343	0.454432	1.416942	2.572029
0.300	9.245161	2.348957	707.350610	19.131945	-9.356579	0.459673	1.322764	2.704733
0.310	9.160172	3.096514	710.976500	20.067639	-8.777077	0.480714	1.234510	2.822546
0.320	9.134097	3.861667	714.901387	20.931053	-8.213420	0.507296	1.148889	2.927824
0.330	8.992574	4.594341	718.599244	21.729373	-7.626203	0.527157	1.061259	3.023851
0.340	8.600033	5.240157	721.697991	22.468925	-6.982634	0.530206	0.967529	3.113342
0.350	7.903023	5.755060	724.053053	23.150822	-6.267727	0.511547	0.865645	3.197393
0.360	6.942068	6.117128	725.745233	23.769384	-5.488821	0.472491	0.756301	3.275169
0.370	5.834226	6.332020	727.012005	24.313507	-4.672890	0.419642	0.642753	3.344306
0.380	4.736979	6.430477	728.139386	24.770032	-3.858276	0.362741	0.529881	3.401826
0.390	3.805387	6.458458	729.350897	25.127610	-3.083932	0.312043	0.422832	3.445202
0.400	3.152582	6.462841	730.728611	25.379618	-2.379581	0.275933	0.325645	3.473193
0.410	2.822118	6.477348	732.188993	25.525277	-1.759579	0.259259	0.240318	3.486160
0.420	2.779202	6.513403	733.516509	25.568990	-1.221847	0.262691	0.166574	3.485810
0.430	2.924217	6.558527	734.438300	25.518549	-0.751452	0.283158	0.102317	3.474567
0.440	3.125169	6.581969	734.710854	25.383047	-0.327007	0.315158	0.044508	3.454835
0.450	3.258134	6.545176	734.188917	25.171025	0.072574	0.352525	-0.009885	3.428412
0.460	3.240939	6.414018	732.856447	24.889064	0.463137	0.390177	-0.063196	3.396172
0.470	3.048145	6.169566	730.814976	24.540819	0.853463	0.425411	-0.116782	3.358007
0.480	2.703947	5.814242	728.240432	24.126462	1.246608	0.458467	-0.171181	3.312980
0.490	2.259251	5.370843	725.330201	23.642801	1.643232	0.492238	-0.226550	3.259591
0.500	1.765012	4.873951	722.263989	23.084570	2.044925	0.531159	-0.283127	3.196140
0.510	1.253997	4.356342	719.193673	22.447337	2.455670	0.579510	-0.341448	3.121181
0.520	0.737983	3.835791	716.261835	21.731829	2.880611	0.639549	-0.402173	3.034062
0.530	0.219527	3.308445	713.632618	20.948470	3.322830	0.709986	-0.465622	2.935470
0.540	-0.289940	2.752775	711.510232	20.120286	3.779935	0.785313	-0.531255	2.827828
0.550	-0.757208	2.143684	710.125429	19.282480	4.242487	0.856383	-0.597428	2.715363
0.560	-1.128570	1.471570	709.687189	18.478074	4.695500	0.912322	-0.661630	2.603693
0.570	-1.346751	0.758152	710.316914	17.750424	5.122913	0.943359	-0.721215	2.498944
0.580	-1.376263	0.061179	711.994633	17.134628	5.513360	0.943688	-0.774354	2.406567
0.590	-1.224534	-0.535806	714.543999	16.650301	5.864649	0.913311	-0.820754	2.330199
0.600	-0.947105	-0.946094	717.665766	16.297855	6.184746	0.858167	-0.861786	2.270953
0.610	-0.632636	-1.106621	721.006980	16.059292	6.488771	0.788472	-0.899959	2.227342
0.620	-0.373888	-0.998682	724.237903	15.903205	6.793487	0.715966	-0.938019	2.195854
0.630	-0.238260	-0.654976	727.108974	15.792539	7.111820	0.651136	-0.978095	2.171963
0.640	-0.251105	-0.151285	729.473385	15.692838	7.449447	0.601304	-1.021209	2.151256
0.650	-0.397283	0.412725	731.277528	15.578597	7.804149	0.569953	-1.067194	2.130326
0.660	-0.636644	0.935658	732.532182	15.435949	8.167364	0.557056	-1.114949	2.107204
0.670	-0.923536	1.332269	733.279248	15.261464	8.526891	0.559958	-1.162844	2.081262
0.680	-1.221171	1.543731	733.565482	15.058420	8.869638	0.574422	-1.209113	2.052771
0.690	-1.506893	1.541148	733.429556	14.832680	9.183619	0.595625	-1.252147	2.022373
0.700	-1.769987	1.325164	732.902950	14.589810	9.458942	0.619047	-1.290613	1.990688
0.710	-2.006685	0.923709	732.019630	14.333925	9.688146	0.641218	-1.323482	1.958134
0.720	-2.216388	0.388083	730.826730	14.067898	9.866496	0.660231	-1.350046	1.924929
0.730	-2.400291	-0.213681	729.389871	13.794318	9.992571	0.675822	-1.369990	1.891213
0.740	-2.560967	-0.806816	727.790860	13.516545	10.068903	0.688858	-1.383488	1.857202
0.750	-2.700879	-1.322216	726.119307	13.239203	10.101972	0.700315	-1.391228	1.823282
0.760	-2.819229	-1.708647	724.461242	12.967600	10.101091	0.710162	-1.394290	1.789965
0.770	-2.908701	-1.941577	722.887984	12.706132	10.076388	0.716748	-1.393907	1.757690
0.780	-2.955059	-2.026154	721.448514	12.456455	10.036743	0.717187	-1.391193	1.726590
0.790	-2.941933	-1.993520	720.168436	12.216480	9.988598	0.708719	-1.386981	1.696337
0.800	-2.860128	-1.891581	719.056910	11.980778	9.935999	0.690467	-1.381810	1.666179
0.810	-2.716999	-1.772812	718.119803	11.742056	9.881530	0.664627	-1.376028	1.635111
0.820	-2.539806	-1.682437	717.374266	11.492618	9.827412	0.636364	-1.369914	1.602039
0.830	-2.369650	-1.650140	716.858411	11.224819	9.776115	0.612345	-1.363744	1.565835
0.840	-2.248141	-1.687320	716.631572	10.930433	9.730140	0.598549	-1.357760	1.525251
0.850	-2.203350	-1.790087	716.765269	10.599911	9.690990	0.598293	-1.352045	1.478854
0.860	-2.241631	-1.946293	717.329216	10.222674	9.657568	0.611249	-1.346323	1.425102
0.870	-2.347925	-2.143774	718.376876	9.788913	9.624495	0.633707	-1.339756	1.362643
0.880	-2.492451	-2.377045	719.932218	9.292346	9.581054	0.659902	-1.330827	1.290725
0.890	-2.639183	-2.650505	721.977726	8.732834	9.511428	0.683957	-1.317413	1.209571
0.900	-2.752263	-2.977397	724.444931	8.117770	9.396472	0.701865	-1.297058	1.120550
0.910	-2.799095	-3.374996	727.210484	7.461680	9.216663	0.712890	-1.267400	1.026069
0.920	-2.751331	-3.857557	730.100414	6.784014	8.955451	0.719783	-1.226605	0.929189
0.930	-2.585813	-4.428763	732.903011	6.105761	8.602199	0.727596	-1.173716	0.833093
0.940	-2.286711	-5.075519	735.388508	5.445831	8.154047	0.741472	-1.108808	0.740538
0.950	-1.848613	-5.765236	737.332346	4.818194	7.616368	0.764389	-1.032963	0.653463
0.960	-1.279165	-6.448817	738.538271	4.230489	7.001861	0.795876	-0.948070	0.572819
0.970	-0.599709	-7.070091	738.858330	3.684247	6.328696	0.832257	-0.856551	0.498640
0.980	0.156791	-7.579579	738.208596	3.176306	5.618245	0.868224	-0.761065	0.430272
0.990	0.950253	-7.947935	736.580098	2.700646	4.892782	0.898978	-0.664257	0.366647
1.000	1.739415	-8.174007	734.043079	2.250093	4.173427	0.921984	-0.568553	0.306534
1.010	2.487785	-8.284413	730.741789	1.817775	3.478588	0.937636	-0.476035	0.248757
1.020	3.167928	-8.324788	726.878817	1.398406	2.823163	0.948639	-0.388395	0.192385
1.030	3.762806	-8.345878	722.691603	0.989382	2.218472	0.958534	-0.306974	0.136902
1.040	4.263934	-8.389390	718.426927	0.591393	1.672613	0.970024	-0.232816	0.082318
1.050	4.667424	-8.478302	714.320197	0.208264	1.190836	0.983814	-0.166709	0.029156
1.060	4.969863	-8.614380	710.584225	-0.154063	0.775711	0.998321	-0.109165	-0.021681
1.070	5.165935	-8.782816	707.406997	-0.489014	0.427075	1.010314	-0.060372	-0.069128
1.080	5.248984	-8.961133	704.952862	-0.790616	0.141886	1.016167	-0.020127	-0.112152
1.090	5.214466	-9.127993	703.360244	-1.053867	-0.085794	1.013135	0.012198	-0.149833
1.100	5.064991	-9.268086	702.732383	-1.274209	-0.264506	1.000066	0.037640	-0.181322
1.110	4.814877	-9.371781	703.122806	-1.446745	-0.404621	0.977301	0.057546	-0.205760
1.120	4.492073	-9.431291	704.520829	-1.565960	-0.517131	0.945997	0.073402	-0.222273
1.130	4.136060	-9.436795	706.842989	-1.626296	-0.612246	0.907449	0.086617	-0.230079
1.140	3.791705	-9.375455	709.935257	-1.623284	-0.698268	0.862820	0.098357	-0.228652
1.150	3.500774	-9.234010	713.588836	-1.554593	-0.781295	0.813347	0.109488	-0.217856
1.160	3.294101	-9.003563	717.568334	-1.420546	-0.865982	0.760733	0.120683	-0.197967
1.170	3.187354	-8.684182	721.645281	-1.224071	-0.957094	0.707338	0.132627	-0.169622
1.180	3.181890	-8.287288	725.625204	-0.970404	-1.061076	0.655951	0.146229	-0.133734
1.190	3.269909	-7.834787	729.357204	-0.666880	-1.186756	0.609153	0.162713	-0.091434
1.200	3.440921	-7.355297	732.722646	-0.322950	-1.344557	0.568578	0.183502	-0.044075
1.210	3.685484	-6.878869	735.610379	0.049568	-1.544158	0.534480	0.209915	0.006738
1.220	3.993467	-6.432010	737.893020	0.436157	-1.791141	0.505916	0.242737	0.059108
1.230	4.347743	-6.034427	739.418429	0.819565	-2.083792	0.481486	0.281815	0.110839
1.240	4.718114	-5.698158	740.023564	1.180709	-2.411395	0.460206	0.325854	0.159550
1.250	5.061049	-5.428725	739.568170	1.500922	-2.755084	0.442030	0.372526	0.202946
1.260	5.327735	-5.227228	737.977464	1.765216	-3.091387	0.427789	0.418900	0.239196
1.270	5.478153	-5.092007	735.279469	1.965410	-3.397512	0.418661	0.462071	0.267301
1.280	5.495469	-5.019090	731.624432	2.101902	-3.656615	0.415531	0.499794	0.287292
1.290	5.394270	-5.001707	727.278871	2.183530	-3.861298	0.418545	0.530924	0.300233
1.300	5.218251	-5.029899	722.593722	2.225929	-4.014284	0.426973	0.555538	0.308047
1.310	5.027195	-5.090951	717.953690	2.249134	-4.126206	0.439276	0.574718	0.313270
1.320	4.877953	-5.170366	713.721111	2.275013	-4.211496	0.453299	0.590076	0.318754
1.330	4.807176	-5.252566	710.189330	2.324553	-4.283969	0.466555	0.603215	0.327314
1.340	4.822848	-5.321118	707.556926	2.414884	-4.353586	0.476675	0.615298	0.341299
1.350	4.907249	-5.359157	705.925840	2.556243	-4.425031	0.481993	0.626841	0.362112
1.360	5.028506	-5.350827	705.316503	2.749758	-4.497901	0.482161	0.637714	0.389862
1.370	5.154452	-5.283859	705.687136	2.987183	-4.567952	0.478532	0.647306	0.423301
1.380	5.262782	-5.152459	706.946858	3.253175	-4.628899	0.474041	0.654773	0.460172
1.390	5.344492	-4.959145	708.961073	3.529682	-4.674331	0.472445	0.659321	0.497867
1.400	5.401209	-4.714339	711.555114	3.800917	-4.699309	0.477074	0.660428	0.534170
1.410	5.439307	-4.433660	714.523070	4.057008	-4.701246	0.489548	0.657956	0.567792
1.420	5.464206	-4.134189	717.644193	4.294940	-4.679873	0.509049	0.652116	0.598478
1.430	5.477280	-3.831510	720.704012	4.516783	-4.636457	0.532537	0.643323	0.626718
1.440	5.475947	-3.538625	723.514732	4.726460	-4.572794	0.555826	0.632025	0.653264
1.450	5.455841	-3.266407	725.929841	4.926801	-4.490570	0.575034	0.618596	0.678688
1.460	5.413293	-3.024167	727.849851	5.118102	-4.391362	0.587770	0.603334	0.703181
1.470	5.346737	-2.819175	729.218986	5.298413	-4.277006	0.593652	0.586519	0.726587
1.480	5.256398	-2.655198	730.015932	5.464947	-4.149812	0.594071	0.568455	0.748607
1.490	5.142217	-2.531211	730.244189	5.615699	-4.012293	0.591436	0.549445	0.769017
1.500	5.000835	-2.441268	729.927720	5.750546	-3.866582	0.588280	0.529721	0.787824
1.510	4.823487	-2.375478	729.114593	5.871499	-3.714119	0.586590	0.509401	0.805292
1.520	4.596895	-2.321470	727.886391	5.982087	-3.556113	0.587524	0.488553	0.821843
1.530	4.308026	-2.266070	726.366270	6.086128	-3.394757	0.591516	0.467362	0.837887
1.540	3.951552	-2.197425	724.716933	6.186296	-3.234622	0.598592	0.446329	0.853616
1.550	3.537198	-2.107673	723.123278	6.282956	-3.083471	0.608719	0.426410	0.868864
1.560	3.093568	-1.995529	721.762132	6.373727	-2.951992	0.622057	0.408998	0.883079
1.570	2.665854	-1.867654	720.768952	6.453977	-2.852420	0.639073	0.395747	0.895429
1.580	2.307061	-1.737999	720.214069	6.518096	-2.796357	0.660505	0.388267	0.905022
1.590	2.065291	-1.625203	720.097089	6.560983	-2.792336	0.687202	0.387772	0.911125
1.600	1.971662	-1.548662	720.359814	6.579127	-2.843803	0.719801	0.394775	0.913311
1.610	2.033296	-1.524062	720.910379	6.570976	-2.948207	0.758274	0.408956	0.911483
1.620	2.233639	-1.559274	721.648017	6.536747	-3.097572	0.801483	0.429236	0.905808
1.630	2.539327	-1.651793	722.479293	6.478032	-3.280320	0.846980	0.454037	0.896639
1.640	2.910304	-1.788712	723.321954	6.397426	-3.483569	0.891279	0.481607	0.884451
1.650	3.308946	-1.949525	724.099799	6.298215	-3.695055	0.930670	0.510296	0.869799
1.660	3.705230	-2.111004	724.736817	6.184029	-3.904211	0.962314	0.538707	0.853279
1.670	4.077580	-2.252826	725.158018	6.058381	-4.102472	0.985157	0.565735	0.835457
1.680	4.411310	-2.362568	725.299264	5.924185	-4.283216	1.000179	0.590545	0.816792
1.690	4.696761	-2.438825	725.122645	5.783598	-4.441717	1.009873	0.612547	0.797603
1.700	4.927770	-2.491374	724.629701	5.638391	-4.575207	1.017229	0.631385	0.778107
1.710	5.099886	-2.537904	723.864794	5.490679	-4.682898	1.024727	0.646930	0.758523
1.720	5.208339	-2.597898	722.906355	5.343522	-4.765715	1.033764	0.659244	0.739172
1.730	5.247118	-2.685397	721.850824	5.200935	-4.825748	1.044627	0.668524	0.720500
1.740	5.210926	-2.802970	720.797162	5.067240	-4.865685	1.056887	0.675042	0.703005
1.750	5.100213	-2.939113	719.837365	4.946031	-4.888664	1.069913	0.679135	0.687104
1.760	4.926942	-3.070539	719.053272	4.839194	-4.898679	1.083289	0.681268	0.672995
1.770	4.717380	-3.169383	718.515473	4.746323	-4.901251	1.096954	0.682136	0.660574
1.780	4.509258	-3.213435	718.279261	4.664626	-4.903759	1.111028	0.682709	0.649417
1.790	4.343470	-3.195701	718.376011	4.589385	-4.914929	1.125438	0.684172	0.638856
1.800	4.253283	-3.129143	718.803620	4.514974	-4.943407	1.139579	0.687727	0.628123
1.810	4.255532	-3.044005	719.522196	4.436264	-4.995844	1.152227	0.694328	0.616557
1.820	4.347480	-2.978342	720.458710	4.349884	-5.075185	1.161785	0.704438	0.603766
1.830	4.510317	-2.965595	721.518685	4.254764	-5.179925	1.166766	0.717920	0.589696
1.840	4.716983	-3.024337	722.599290	4.151837	-5.304611	1.166253	0.734101	0.574570
1.850	4.940543	-3.154112	723.599666	4.043371	-5.441261	1.160106	0.751971	0.558786
1.860	5.160092	-3.337988	724.428708	3.932549	-5.580974	1.148768	0.770397	0.542848
1.870	5.363065	-3.549357	725.012700	3.823485	-5.715209	1.132797	0.788291	0.527368
1.880	5.544243	-3.759308	725.303340	3.721279	-5.836548	1.112525	0.804704	0.513065
1.890	5.702549	-3.942189	725.283907	3.631609	-5.939073	1.088140	0.818862	0.500715
1.900	5.837154	-4.078819	724.970784	3.559722	-6.018580	1.060198	0.830182	0.491016
1.910	5.944676	-4.157908	724.409013	3.509293	-6.072793	1.030144	0.838310	0.484435
1.920	6.018994	-4.176238	723.662585	3.481721	-6.101562	1.000365	0.843150	0.481125
1.930	6.053912	-4.137988	722.802031	3.476141	-6.106920	0.973652	0.844895	0.480926
1.940	6.047116	-4.053575	721.893196	3.489887	-6.092815	0.952318	0.844005	0.483435
1.950	6.002927	-3.938462	720.991047	3.518973	-6.064428	0.937374	0.841124	0.488075
1.960	5.932070	-3.811876	720.140365	3.558461	-6.027082	0.928091	0.836932	0.494134
1.970	5.848484	-3.694794	719.381354	3.602883	-5.985014	0.922069	0.831967	0.500831
1.980	5.764872	-3.606501	718.755210	3.646991	-5.940484	0.915826	0.826496	0.507404
1.990	5.689386	-3.559958	718.304943	3.686847	-5.893670	0.905811	0.820497	0.513270
2.000	5.625149	-3.557424	718.070003	3.720947	-5.843477	0.889579	0.813775	0.518187
2.010	5.572618	-3.588386	718.077014	3.750906	-5.788839	0.866666	0.806158	0.522354
2.020	5.533000	-3.631292	718.330954	3.781319	-5.729792	0.838773	0.797653	0.526404
2.030	5.510457	-3.659171	718.810900	3.818733	-5.667830	0.809160	0.788501	0.531257
2.040	5.511853	-3.647515	719.472440	3.869964	-5.605409	0.781536	0.779100	0.537889
2.050	5.544396	-3.581628	720.255755	3.940355	-5.544807	0.758902	0.769839	0.547077
2.060	5.612398	-3.460575	721.095460	4.032620	-5.486776	0.742795	0.760895	0.559235
2.070	5.714373	-3.296112	721.927422	4.146701	-5.429493	0.733139	0.752083	0.574393
2.080	5.841350	-3.107170	722.690399	4.280427	-5.368291	0.728662	0.742820	0.592291
2.090	5.977047	-2.912529	723.324591	4.430322	-5.296371	0.727536	0.732226	0.612494
2.100	6.100168	-2.725153	723.772008	4.591988	-5.206300	0.727862	0.719329	0.634452
2.110	6.188241	-2.550444	723.982927	4.760027	-5.091820	0.727883	0.703307	0.657478
2.120	6.221712	-2.388331	723.928800	4.927864	-4.949449	0.726075	0.683693	0.680711
2.130	6.187095	-2.237165	723.617104	5.087885	-4.779426	0.721340	0.660491	0.703118
2.140	6.078807	-2.096897	723.100895	5.232101	-4.585860	0.713289	0.634194	0.723564
2.150	5.900031	-1.969994	722.476916	5.353261	-4.376128	0.702430	0.605712	0.740960
2.160	5.662903	-1.860137	721.870330	5.446033	-4.159748	0.690068	0.576246	0.754434
2.170	5.387784	-1.769930	721.409171	5.507663	-3.946948	0.677906	0.547116	0.763459
2.180	5.100853	-1.699339	721.195023	5.537789	-3.747108	0.667466	0.519569	0.767863
2.190	4.829547	-1.646105	721.277577	5.537554	-3.567333	0.659585	0.494585	0.767742
2.200	4.596489	-1.608008	721.640623	5.508619	-3.411479	0.654213	0.472739	0.763347
2.210	4.414076	-1.585393	722.205258	5.452601	-3.279928	0.650613	0.454155	0.754993
2.220	4.282430	-1.581960	722.850940	5.371086	-3.170111	0.647888	0.438557	0.743042
2.230	4.192151	-1.602943	723.447322	5.265953	-3.077515	0.645558	0.425396	0.727897
2.240	4.130695	-1.651713	723.884963	5.139580	-2.996795	0.643917	0.413988	0.710000
2.250	4.089126	-1.726918	724.095125	4.994740	-2.922676	0.644031	0.403631	0.689791
2.260	4.065967	-1.821893	724.055888	4.834194	-2.850543	0.647430	0.393691	0.667655
2.270	4.066590	-1.926725	723.787950	4.660243	-2.776774	0.655676	0.383645	0.643869
2.280	4.098833	-2.031993	723.345528	4.474535	-2.698951	0.669931	0.373121	0.618589
2.290	4.167085	-2.132621	722.806175	4.278356	-2.616088	0.690567	0.361935	0.591909
2.300	4.267794	-2.230246	722.260430	4.073313	-2.528894	0.716855	0.350136	0.563967
2.310	4.388835	-2.333055	721.799791	3.861945	-2.439891	0.746815	0.338029	0.535044
2.320	4.513305	-2.452800	721.501509	3.647777	-2.353085	0.777394	0.326137	0.505581
2.330	4.625901	-2.599785	721.411501	3.434728	-2.272921	0.805037	0.315066	0.476112
2.340	4.718625	-2.777692	721.530671	3.226205	-2.202651	0.826598	0.305275	0.447133
2.350	4.793028	-2.980499	721.811651	3.024449	-2.142729	0.840262	0.296854	0.419008
2.360	4.858138	-3.193082	722.169865	2.830438	-2.090048	0.846133	0.289412	0.391935
2.370	4.925400	-3.395468	722.506169	2.644353	-2.038445	0.846239	0.282135	0.365997
2.380	5.003327	-3.568991	722.732647	2.466295	-1.980194	0.843919	0.273987	0.341246
2.390	5.094333	-3.701691	722.792026	2.296860	-1.907804	0.842796	0.263949	0.317776
2.400	5.194662	-3.790740	722.664812	2.137183	-1.815419	0.845687	0.251212	0.295736
2.410	5.296405	-3.841322	722.364234	1.988334	-1.699504	0.853845	0.235270	0.275254
