Time[s]	Fx[N]	Fy[N]	Fz[N]	Mx[Nm]	My[Nm]	Mz[Nm]	COPx[cm]	COPy[cm]
0.010	3.619140	-4.847708	679.701363	24.636105	-3.702621	1.590505	0.544742	3.624548
0.020	3.447667	-4.832871	677.423069	25.220773	-3.077269	1.548746	0.454261	3.723046
0.030	3.275965	-4.789547	676.068881	25.776424	-2.477399	1.509749	0.366442	3.812692
0.040	3.090816	-4.699464	676.343399	26.278352	-1.923978	1.475753	0.284468	3.885356
0.050	2.867078	-4.563002	678.581663	26.709680	-1.430794	1.448224	0.210851	3.936104
0.060	2.575873	-4.400997	682.701978	27.063222	-1.003633	1.427952	0.147009	3.964134
0.070	2.200849	-4.249862	688.261246	27.341193	-0.641679	1.415370	0.093232	3.972502
0.080	1.754377	-4.151253	694.582228	27.552873	-0.340397	1.410846	0.049008	3.966827
0.090	1.284229	-4.139526	700.908030	27.710881	-0.094713	1.414703	0.013513	3.953569
0.100	0.865707	-4.231130	706.542565	27.827177	0.098758	1.426917	-0.013978	3.938500
0.110	0.581871	-4.419592	710.949318	27.910029	0.241175	1.446667	-0.033923	3.925741
0.120	0.500034	-4.677771	713.797148	27.962875	0.332540	1.472045	-0.046587	3.917482
0.130	0.652941	-4.966442	714.957298	27.985224	0.373584	1.500153	-0.052253	3.914251
0.140	1.029415	-5.245760	714.467811	27.974944	0.367553	1.527629	-0.051444	3.915494
0.150	1.575490	-5.485099	712.486567	27.930862	0.321267	1.551420	-0.045091	3.920195
0.160	2.204957	-5.667877	709.250978	27.854715	0.245107	1.569514	-0.034559	3.927343
0.170	2.817113	-5.790802	705.053582	27.751965	0.151702	1.581413	-0.021516	3.936150
0.180	3.318178	-5.859722	700.232451	27.631488	0.053403	1.588249	-0.007626	3.946045
0.190	3.641564	-5.885162	695.167420	27.504469	-0.040927	1.592583	0.005887	3.956524
0.200	3.761876	-5.879538	690.270034	27.382939	-0.128810	1.597965	0.018661	3.966989
0.210	3.698900	-5.856098	685.958054	27.278414	-0.215570	1.608286	0.031426	3.976688
0.220	3.510423	-5.828352	682.612884	27.200945	-0.313402	1.627025	0.045912	3.984827
0.230	3.275800	-5.808880	680.526940	27.158591	-0.437961	1.656512	0.064356	3.990818
0.240	3.074812	-5.807287	679.853768	27.157143	-0.603346	1.697405	0.088746	3.994557
0.250	2.967967	-5.827846	680.574809	27.199958	-0.817111	1.748413	0.120062	3.996615
0.260	2.983925	-5.867655	682.493832	27.287937	-1.076966	1.806317	0.157799	3.998269
0.270	3.117020	-5.916200	685.264132	27.419677	-1.370287	1.866309	0.199965	4.001330
0.280	3.334272	-5.957023	688.445684	27.591698	-1.676666	1.922777	0.243544	4.007825
0.290	3.588581	-5.971424	691.581263	27.798685	-1.972846	1.970465	0.285266	4.019583
0.300	3.833672	-5.942977	694.274492	28.033815	-2.238598	2.005757	0.322437	4.037857
0.310	4.036528	-5.861052	696.251020	28.289392	-2.461657	2.027579	0.353559	4.063102
0.320	4.184220	-5.722122	697.387983	28.557884	-2.640021	2.037456	0.378558	4.094978
0.330	4.284112	-5.528987	697.706621	28.833140	-2.780853	2.038654	0.398570	4.132559
0.340	4.358325	-5.289089	697.334403	29.111353	-2.896630	2.034795	0.415386	4.174662
0.350	4.434494	-5.013197	696.451226	29.391179	-3.000224	2.028605	0.430787	4.220135
0.360	4.535328	-4.714857	695.236672	29.672659	-3.100784	2.021261	0.446004	4.267994
0.370	4.669471	-4.410103	693.832707	29.955242	-3.201617	2.012428	0.461439	4.317358
0.380	4.826062	-4.116490	692.329970	30.235821	-3.300212	2.000827	0.476682	4.367256
0.390	4.975044	-3.850843	690.777522	30.507688	-3.389822	1.985046	0.490726	4.416427
0.400	5.074216	-3.625933	689.208118	30.760708	-3.461881	1.964266	0.502298	4.463196
0.410	5.081914	-3.447276	687.666562	30.982427	-3.508692	1.938654	0.510232	4.505443
0.420	4.971833	-3.311980	686.229110	31.159636	-3.525940	1.909351	0.513814	4.540704
0.430	4.745111	-3.211260	685.006508	31.280093	-3.514461	1.878150	0.513055	4.566393
0.440	4.435041	-3.136572	684.129074	31.334220	-3.480713	1.847030	0.508780	4.580162
0.450	4.101500	-3.086950	683.717777	31.316653	-3.435595	1.817702	0.502487	4.580348
0.460	3.815296	-3.073586	683.850084	31.227437	-3.391657	1.791315	0.495965	4.566416
0.470	3.636609	-3.118319	684.532457	31.072506	-3.359395	1.768358	0.490758	4.539230
0.480	3.595183	-3.245628	685.690182	30.863039	-3.343839	1.748738	0.487660	4.501018
0.490	3.680443	-3.471292	687.178929	30.613585	-3.342737	1.731942	0.486443	4.454966
0.500	3.846013	-3.792915	688.814000	30.339408	-3.347155	1.717188	0.485930	4.404586
0.510	4.026597	-4.186832	690.407384	30.054049	-3.344376	1.703500	0.484406	4.353089
0.520	4.159755	-4.612886	691.801821	29.768032	-3.322154	1.689731	0.480218	4.302971
0.530	4.203806	-5.024965	692.894155	29.488897	-3.272840	1.674585	0.472343	4.255902
0.540	4.146223	-5.382814	693.644784	29.221813	-3.195958	1.656696	0.460749	4.212792
0.550	4.001870	-5.660698	694.073984	28.969626	-3.098411	1.634793	0.446409	4.173853
0.560	3.804533	-5.850642	694.248658	28.731772	-2.992467	1.607997	0.431037	4.138542
0.570	3.596549	-5.960657	694.264609	28.502630	-2.892562	1.576221	0.416637	4.105442
0.580	3.420191	-6.009988	694.229038	28.270654	-2.812192	1.540577	0.405081	4.072237
0.590	3.311980	-6.023678	694.245207	28.019310	-2.761808	1.503573	0.397814	4.035939
0.600	3.299007	-6.028235	694.398519	27.729862	-2.747961	1.468855	0.395733	3.993364
0.610	3.395766	-6.049422	694.743189	27.385037	-2.773427	1.440366	0.399202	3.941750
0.620	3.601021	-6.112192	695.290783	26.972185	-2.837753	1.421109	0.408139	3.879267
0.630	3.895842	-6.241532	696.003012	26.484724	-2.937715	1.411997	0.422084	3.805260
0.640	4.244639	-6.462316	696.790021	25.921520	-3.067326	1.411378	0.440208	3.720134
0.650	4.599978	-6.796574	697.513660	25.284853	-3.217367	1.415547	0.461262	3.624998
0.660	4.910218	-7.257856	697.995813	24.578217	-3.374815	1.420138	0.483501	3.521256
0.670	5.127811	-7.844226	698.034543	23.805172	-3.522792	1.421831	0.504673	3.410314
0.680	5.216324	-8.532970	697.432333	22.969801	-3.641711	1.419661	0.522160	3.293481
0.690	5.155279	-9.280497	696.037780	22.078527	-3.711920	1.415393	0.533293	3.172030
0.700	4.942965	-10.029265	693.794825	21.142345	-3.717476	1.412821	0.535818	3.047348
0.710	4.597669	-10.720487	690.785699	20.178314	-3.650065	1.416287	0.528393	2.921067
0.720	4.157210	-11.308445	687.250882	19.209447	-3.511848	1.429043	0.510999	2.795114
0.730	3.676021	-11.771477	683.574106	18.262676	-3.316240	1.452106	0.485132	2.671645
0.740	3.218914	-12.116156	680.230691	17.365164	-3.086110	1.484046	0.453686	2.552835
0.750	2.851215	-12.373875	677.708370	16.539777	-2.849513	1.521785	0.420463	2.440545
0.760	2.625986	-12.591533	676.417720	15.800968	-2.633859	1.562075	0.389383	2.335978
0.770	2.570594	-12.819566	676.613040	15.152348	-2.460073	1.603042	0.363586	2.239441
0.780	2.676702	-13.100663	678.342699	14.586812	-2.338564	1.645151	0.344747	2.150360
0.790	2.898686	-13.461480	681.440397	14.089207	-2.268244	1.691111	0.332860	2.067563
0.800	3.163850	-13.908275	685.557966	13.640743	-2.238765	1.744683	0.326561	1.989729
0.810	3.393141	-14.426843	690.230372	13.223741	-2.235037	1.808854	0.323810	1.915845
0.820	3.525756	-14.986971	694.956669	12.825320	-2.242458	1.884205	0.322676	1.845485
0.830	3.538386	-15.550988	699.277933	12.439127	-2.251264	1.968175	0.321941	1.778853
0.840	3.451796	-16.084061	702.835929	12.065204	-2.258854	2.055428	0.321391	1.716646
0.850	3.322708	-16.562218	705.404276	11.708883	-2.269643	2.139031	0.321751	1.659883
0.860	3.224732	-16.974361	706.892745	11.379664	-2.292799	2.211916	0.324349	1.609815
0.870	3.225598	-17.317615	707.330667	11.090402	-2.338827	2.268183	0.330655	1.567923
0.880	3.368162	-17.589278	706.837720	10.856452	-2.416264	2.303998	0.341841	1.535919
0.890	3.660307	-17.780748	705.591221	10.694232	-2.529582	2.318001	0.358505	1.515641
0.900	4.075357	-17.877385	703.797548	10.619042	-2.678820	2.311260	0.380624	1.508821
0.910	4.561234	-17.864283	701.669904	10.642451	-2.860672	2.286822	0.407695	1.516732
0.920	5.054470	-17.734137	699.409166	10.769887	-3.070107	2.248983	0.438957	1.539855
0.930	5.494585	-17.492456	697.184566	10.999082	-3.301557	2.202420	0.473556	1.577643
0.940	5.835239	-17.157664	695.116207	11.319854	-3.549241	2.151420	0.510597	1.628484
0.950	6.050348	-16.756969	693.265991	11.715383	-3.806791	2.099371	0.549110	1.689883
0.960	6.135224	-16.320632	691.642283	12.164676	-4.066779	2.048587	0.587989	1.758810
0.970	6.103940	-15.876883	690.217798	12.645625	-4.320641	2.000391	0.625982	1.832121
0.980	5.984538	-15.448274	688.954253	13.138089	-4.559345	1.955317	0.661778	1.906961
0.990	5.813666	-15.049234	687.825152	13.626688	-4.774729	1.913323	0.694178	1.981127
1.000	5.631747	-14.684554	686.829811	14.103110	-4.961126	1.873965	0.722322	2.053363
1.010	5.478751	-14.349019	685.995933	14.567627	-5.116579	1.836551	0.745861	2.123573
1.020	5.389768	-14.028713	685.372075	15.029221	-5.243026	1.800313	0.764990	2.192856
1.030	5.389780	-13.704137	685.013043	15.503691	-5.345209	1.764612	0.780308	2.263270
1.040	5.488186	-13.354738	684.961318	16.009585	-5.428590	1.729167	0.792540	2.337298
1.050	5.674762	-12.963935	685.228239	16.562772	-5.496930	1.694270	0.802204	2.417118
1.060	5.919221	-12.523418	685.779906	17.171392	-5.550306	1.660940	0.809342	2.503922
1.070	6.176046	-12.035428	686.532966	17.832958	-5.584278	1.630908	0.813403	2.597538
1.080	6.394419	-11.512213	687.363001	18.534605	-5.590503	1.606295	0.813326	2.696480
1.090	6.530496	-10.972897	688.124134	19.256260	-5.558599	1.588951	0.807790	2.798370
1.100	6.557648	-10.438958	688.674818	19.975540	-5.478563	1.579629	0.795523	2.900577
1.110	6.470976	-9.929913	688.903173	20.672871	-5.342861	1.577316	0.775561	3.000838
1.120	6.285004	-9.460361	688.745854	21.335350	-5.147567	1.579037	0.747383	3.097710
1.130	6.026236	-9.038612	688.196924	21.958485	-4.892395	1.580260	0.710900	3.190727
1.140	5.723766	-8.666245	687.306894	22.545630	-4.579938	1.575841	0.666360	3.280286
1.150	5.401132	-8.337779	686.175688	23.105675	-4.214659	1.561258	0.614224	3.367312
1.160	5.071690	-8.040393	684.944573	23.649767	-3.802119	1.533780	0.555099	3.452800
1.170	4.738324	-7.754617	683.789746	24.187683	-3.348763	1.493290	0.489736	3.537298
1.180	4.396888	-7.457175	682.915438	24.724196	-2.862328	1.442565	0.419134	3.620389
1.190	4.041534	-7.126462	682.540277	25.255969	-2.352654	1.386935	0.344691	3.700290
1.200	3.669657	-6.749715	682.870593	25.769808	-1.832384	1.333320	0.268335	3.773747
1.210	3.284640	-6.329709	684.059897	26.243248	-1.316837	1.288808	0.192503	3.836396
1.220	2.895818	-5.888336	686.162582	26.647977	-0.822600	1.259117	0.119884	3.883624
1.230	2.516438	-5.465045	689.096950	26.955586	-0.364970	1.247409	0.052964	3.911726
1.240	2.161310	-5.109690	692.633781	27.144185	0.044920	1.253814	-0.006485	3.918981
1.250	1.845588	-4.871276	696.420713	27.203939	0.402034	1.275725	-0.057729	3.906251
1.260	1.585006	-4.785766	700.040907	27.139836	0.707382	1.308654	-0.101049	3.876893
1.270	1.396584	-4.866745	703.090874	26.970807	0.965888	1.347311	-0.137377	3.836034
1.280	1.298222	-5.101907	705.253696	26.725414	1.183205	1.386613	-0.167770	3.789475
1.290	1.305996	-5.456290	706.345785	26.435438	1.363165	1.422396	-0.192988	3.742563
1.300	1.429134	-5.880956	706.326929	26.129297	1.507323	1.451770	-0.213403	3.699320
1.310	1.664029	-6.324185	705.277850	25.827225	1.616843	1.473187	-0.229249	3.661993
1.320	1.989680	-6.741596	703.359445	25.539448	1.695627	1.486375	-0.241075	3.631066
1.330	2.366902	-7.102182	700.769958	25.267514	1.752870	1.492276	-0.250135	3.605679
1.340	2.742471	-7.389212	697.711914	25.007830	1.803673	1.493002	-0.258513	3.584263
1.350	3.057570	-7.597500	694.373693	24.755782	1.867402	1.491725	-0.268933	3.565196
1.360	3.258376	-7.729941	690.925075	24.508999	1.964420	1.492373	-0.284317	3.547273
1.370	3.305935	-7.795431	687.523246	24.269061	2.112258	1.499038	-0.307227	3.529926
1.380	3.182855	-7.808378	684.324762	24.041786	2.322198	1.515163	-0.339341	3.513213
1.390	2.895718	-7.788521	681.498372	23.836449	2.596929	1.542718	-0.381062	3.497653
1.400	2.473488	-7.759680	679.233233	23.664203	2.929527	1.581677	-0.431299	3.483958
1.410	1.962822	-7.746776	677.737294	23.535804	3.303819	1.630040	-0.487478	3.472703
1.420	1.420959	-7.771435	677.221846	23.458908	3.696205	1.684459	-0.545789	3.463992
1.430	0.906699	-7.847443	677.870593	23.435499	4.078914	1.741244	-0.601725	3.457223
1.440	0.470401	-7.977929	679.796259	23.460297	4.424334	1.797335	-0.650832	3.451078
1.450	0.144843	-8.155792	682.994861	23.520937	4.709448	1.850839	-0.689529	3.443794
1.460	-0.060419	-8.367500	687.313986	23.600285	4.918988	1.900981	-0.715683	3.433698
1.470	-0.158546	-8.598606	692.450418	23.680349	5.046193	1.947545	-0.728744	3.419790
1.480	-0.177611	-8.838263	697.982857	23.746418	5.090958	1.990127	-0.729381	3.402149
1.490	-0.147336	-9.080438	703.432432	23.789856	5.056285	2.027581	-0.718802	3.381968
1.500	-0.085171	-9.321383	708.334383	23.808716	4.944602	2.057904	-0.698060	3.361225
1.510	0.012509	-9.555115	712.301799	23.806269	4.755372	2.078557	-0.667606	3.342161
1.520	0.170391	-9.769698	715.066563	23.788387	4.484784	2.087049	-0.627184	3.326737
1.530	0.425419	-9.946509	716.491537	23.760932	4.127487	2.081565	-0.576069	3.316289
1.540	0.812480	-10.063205	716.558348	23.728145	3.679717	2.061538	-0.513527	3.311404
1.550	1.349541	-10.099518	715.342167	23.692335	3.142693	2.028057	-0.439327	3.312028
1.560	2.027207	-10.043781	712.984946	23.654615	2.525074	1.983956	-0.354155	3.317688
1.570	2.806366	-9.897501	709.673414	23.616064	1.843540	1.933443	-0.259773	3.327737
1.580	3.624926	-9.675905	705.623004	23.578686	1.121161	1.881354	-0.158890	3.341542
1.590	4.411493	-9.403987	701.066844	23.545701	0.384022	1.832288	-0.054777	3.358553
1.600	5.101607	-9.109602	696.248564	23.521104	-0.342821	1.789940	0.049238	3.378263
1.610	5.651697	-8.816447	691.416452	23.508900	-1.038797	1.756709	0.150242	3.400107
1.620	6.047034	-8.539701	686.814863	23.512523	-1.689758	1.733553	0.246028	3.423415
1.630	6.301912	-8.285510	682.669142	23.534559	-2.288033	1.719967	0.335160	3.447433
1.640	6.452594	-8.053532	679.164015	23.576424	-2.830844	1.714154	0.416813	3.471389
1.650	6.545608	-7.840707	676.421067	23.637711	-3.317778	1.713449	0.490490	3.494526
1.660	6.625169	-7.644597	674.484969	23.715271	-3.748237	1.714996	0.555718	3.516056
1.670	6.723251	-7.465419	673.326786	23.802631	-4.119679	1.716413	0.611839	3.535079
1.680	6.854808	-7.306540	672.865289	23.890414	-4.427159	1.716141	0.657956	3.550549
1.690	7.018964	-7.173752	672.998186	23.968031	-4.664201	1.713336	0.693048	3.561381
1.700	7.204852	-7.073928	673.630108	24.026222	-4.824514	1.707409	0.716196	3.566679
1.710	7.398578	-7.013567	674.685206	24.059339	-4.903652	1.697527	0.726806	3.566010
1.720	7.587085	-6.997253	676.098513	24.066080	-4.899671	1.682453	0.724698	3.559552
1.730	7.756276	-7.025752	677.789992	24.047915	-4.812212	1.661019	0.709986	3.547989
1.740	7.884128	-7.094064	679.635215	24.005639	-4.640266	1.633175	0.682758	3.532136
1.750	7.933220	-7.190690	681.451319	23.935790	-4.379748	1.601133	0.642709	3.512472
1.760	7.849119	-7.299524	683.012749	23.829040	-4.022602	1.569820	0.588950	3.488813
1.770	7.569879	-7.404504	684.100434	23.671944	-3.558864	1.546084	0.520225	3.460302
1.780	7.047117	-7.495269	684.574680	23.451892	-2.981951	1.536707	0.435592	3.425761
1.790	6.272596	-7.571254	684.449159	23.163521	-2.295662	1.545912	0.335403	3.384257
1.800	5.299146	-7.642578	683.935582	22.813911	-1.520005	1.573383	0.222244	3.335681
1.810	4.244166	-7.727902	683.431716	22.424043	-0.692750	1.613658	0.101364	3.281095
1.820	3.269106	-7.850562	683.442308	22.025309	0.135142	1.657215	-0.019774	3.222702
1.830	2.537613	-8.033947	684.448057	21.651849	0.909755	1.692993	-0.132918	3.163403
1.840	2.164824	-8.296342	686.761737	21.331278	1.587087	1.711590	-0.231097	3.106067
1.850	2.176348	-8.645512	690.421346	21.077118	2.143873	1.708061	-0.310517	3.052791
1.860	2.494604	-9.074357	695.160391	20.885547	2.581941	1.683277	-0.371417	3.004421
1.870	2.961123	-9.559650	700.466662	20.737292	2.924189	1.643288	-0.417463	2.960497
1.880	3.388634	-10.065165	705.706022	20.603662	3.203884	1.597003	-0.453997	2.919581
1.890	3.622796	-10.548784	710.264955	20.454456	3.451808	1.553211	-0.485989	2.879835
1.900	3.588729	-10.971501	713.665852	20.265310	3.686253	1.518203	-0.516524	2.839608
1.910	3.305263	-11.305554	715.628293	20.022497	3.909072	1.494827	-0.546243	2.797891
1.920	2.865350	-11.539415	716.074025	19.724375	4.108136	1.482970	-0.573703	2.754516
1.930	2.395192	-11.678456	715.091285	19.379875	4.264138	1.480832	-0.596307	2.710126
1.940	2.010505	-11.741330	712.881223	19.005277	4.358591	1.486151	-0.611405	2.665981
1.950	1.785300	-11.753373	709.706454	18.620703	4.380114	1.496882	-0.617173	2.623719
1.960	1.740222	-11.739302	705.853123	18.247366	4.327227	1.511309	-0.613049	2.585151
1.970	1.849105	-11.717641	701.608375	17.905949	4.207520	1.527874	-0.599696	2.552129
1.980	2.057045	-11.698323	697.248182	17.615667	4.034534	1.545072	-0.578637	2.526456
1.990	2.301612	-11.683393	693.027200	17.393160	3.824376	1.561595	-0.551836	2.509737
2.000	2.529751	-11.669512	689.163981	17.250506	3.593673	1.576687	-0.521454	2.503106
2.010	2.705813	-11.650711	685.822028	17.192580	3.359179	1.590460	-0.489803	2.506857
2.020	2.810393	-11.620501	683.095480	17.215057	3.138079	1.603912	-0.459391	2.520154
2.030	2.833979	-11.573315	681.010626	17.304651	2.947560	1.618543	-0.432821	2.541025
2.040	2.771567	-11.505705	679.547573	17.442324	2.802816	1.635709	-0.412453	2.566755
2.050	2.622864	-11.417393	678.674732	17.608678	2.713812	1.655997	-0.399869	2.594568
2.060	2.398026	-11.311722	678.380353	17.789499	2.682107	1.678862	-0.395369	2.622349
2.070	2.124151	-11.194944	678.685546	17.979185	2.699330	1.702662	-0.397729	2.649119
2.080	1.846456	-11.074267	679.631573	18.180675	2.748389	1.725076	-0.404394	2.675078
2.090	1.620927	-10.955166	681.245970	18.402011	2.807486	1.743741	-0.412111	2.701229
2.100	1.500063	-10.838669	683.501349	18.651112	2.855839	1.756902	-0.417825	2.728760
2.110	1.516937	-10.719379	686.284058	18.930959	2.879206	1.763884	-0.419536	2.758473
2.120	1.673780	-10.585194	689.386749	19.237018	2.873289	1.765285	-0.416789	2.790454
2.130	1.939672	-10.419664	692.530867	19.557658	2.843833	1.762861	-0.410644	2.824085
2.140	2.258822	-10.207065	695.414446	19.877154	2.803478	1.759134	-0.403138	2.858318
2.150	2.567031	-9.938704	697.770625	20.180064	2.766582	1.756797	-0.396489	2.892077
2.160	2.810777	-9.617890	699.417388	20.455448	2.743991	1.758083	-0.392325	2.924641
2.170	2.962205	-9.261217	700.282050	20.699547	2.739589	1.764209	-0.391212	2.955887
2.180	3.024784	-8.895123	700.394311	20.916088	2.749681	1.774998	-0.392590	2.986330
2.190	3.027878	-8.548464	699.854742	21.114260	2.765148	1.788729	-0.395103	3.016949
2.200	3.012538	-8.243566	698.795063	21.305158	2.775392	1.802318	-0.397168	3.048842
2.210	3.014024	-7.989086	697.347632	21.497882	2.772551	1.811906	-0.397585	3.082807
2.220	3.047850	-7.777744	695.633806	21.696364	2.754431	1.813814	-0.395960	3.118935
2.230	3.104955	-7.590188	693.769633	21.897655	2.725016	1.805618	-0.392784	3.156329
2.240	3.157851	-7.403728	691.879316	22.092031	2.692352	1.787001	-0.389136	3.193047
2.250	3.174704	-7.202520	690.104762	22.264994	2.664672	1.760016	-0.386126	3.226321
2.260	3.134769	-6.985233	688.602152	22.400819	2.646471	1.728599	-0.384325	3.253086
2.270	3.038398	-6.767419	687.522174	22.486643	2.636307	1.697486	-0.383450	3.270679
2.280	2.907780	-6.578019	686.978709	22.515716	2.627411	1.670881	-0.382459	3.277498
2.290	2.778728	-6.451447	687.018050	22.488585	2.610770	1.651334	-0.380015	3.273362
2.300	2.687406	-6.417708	687.602121	22.411897	2.579175	1.639188	-0.375097	3.259428
2.310	2.657558	-6.493294	688.612981	22.295558	2.530319	1.632767	-0.367452	3.237749
2.320	2.692980	-6.675545	689.875999	22.149518	2.467737	1.629128	-0.357707	3.210652
2.330	2.777348	-6.942407	691.192199	21.981348	2.399558	1.625042	-0.347162	3.180208
2.340	2.880346	-7.257833	692.369918	21.795072	2.336015	1.617802	-0.337394	3.147894
2.350	2.966963	-7.580926	693.250377	21.591096	2.286846	1.605691	-0.329873	3.114473
2.360	3.006564	-7.875547	693.726476	21.366727	2.259341	1.588142	-0.325682	3.079993
2.370	2.979634	-8.117216	693.755874	21.116943	2.257139	1.565740	-0.325351	3.043858
2.380	2.881667	-8.295786	693.368240	20.835456	2.279590	1.540177	-0.328770	3.004963
2.390	2.724406	-8.414619	692.664696	20.516186	2.321571	1.514135	-0.335165	2.961922
