Time[s]	Fx[N]	Fy[N]	Fz[N]	Mx[Nm]	My[Nm]	Mz[Nm]	COPx[cm]	COPy[cm]
0.010	3.947769	-0.731946	636.244864	13.162426	-18.537767	-0.517924	2.913621	2.068767
0.020	3.934844	-0.554736	636.526234	13.176037	-18.569404	-0.521371	2.917304	2.069991
0.030	3.919027	-0.391588	636.741597	13.190281	-18.595173	-0.526771	2.920364	2.071528
0.040	3.898593	-0.252037	636.845517	13.204667	-18.610707	-0.535416	2.922327	2.073449
0.050	3.872452	-0.139423	636.825831	13.217232	-18.614127	-0.547722	2.922954	2.075486
0.060	3.839588	-0.052228	636.703669	13.224798	-18.606351	-0.563240	2.922294	2.077073
0.070	3.798731	0.012795	636.525859	13.223800	-18.590706	-0.580810	2.920652	2.077496
0.080	3.748886	0.058002	636.354632	13.211334	-18.571980	-0.598686	2.918495	2.076096
0.090	3.690344	0.084178	636.256818	13.185992	-18.555218	-0.614656	2.916309	2.072432
0.100	3.625049	0.091695	636.292430	13.148232	-18.544667	-0.626322	2.914488	2.066382
0.110	3.555734	0.082263	636.502596	13.100147	-18.543200	-0.631681	2.913295	2.058145
0.120	3.484404	0.059808	636.898761	13.044708	-18.552313	-0.629838	2.912914	2.048160
0.130	3.411401	0.029713	637.457534	12.984730	-18.572520	-0.621491	2.913531	2.036956
0.140	3.335814	-0.003168	638.125499	12.921990	-18.603906	-0.608845	2.915399	2.024992
0.150	3.257026	-0.036445	638.834297	12.856876	-18.646581	-0.594871	2.918845	2.012553
0.160	3.176551	-0.070881	639.520254	12.788710	-18.700883	-0.582197	2.924205	1.999735
0.170	3.099083	-0.109466	640.139700	12.716618	-18.767247	-0.572160	2.931742	1.986538
0.180	3.032107	-0.155389	640.673247	12.640530	-18.845866	-0.564504	2.941572	1.973007
0.190	2.984086	-0.209772	641.118041	12.561768	-18.936380	-0.557887	2.953650	1.959353
0.200	2.961991	-0.269934	641.472955	12.482811	-19.037772	-0.550855	2.967821	1.945961
0.210	2.969232	-0.328897	641.724817	12.406220	-19.148497	-0.542697	2.983911	1.933262
0.220	3.004748	-0.376656	641.842827	12.333217	-19.266793	-0.533749	3.001793	1.921532
0.230	3.063549	-0.403138	641.783994	12.262630	-19.391053	-0.525128	3.021430	1.910710
0.240	3.138464	-0.401807	641.507229	12.190745	-19.520124	-0.518163	3.042853	1.900329
0.250	3.222363	-0.372351	640.989773	12.112167	-19.653345	-0.513801	3.066093	1.889604
0.260	3.309851	-0.321190	640.238686	12.021407	-19.790267	-0.512181	3.091076	1.877645
0.270	3.397877	-0.259631	639.292868	11.914629	-19.930179	-0.512458	3.117535	1.863720
0.280	3.485434	-0.200638	638.216375	11.791053	-20.071704	-0.512953	3.144969	1.847501
0.290	3.573074	-0.155634	637.087501	11.653693	-20.212717	-0.511646	3.172675	1.829214
0.300	3.662640	-0.132385	635.987976	11.509282	-20.350718	-0.506925	3.199859	1.809670
0.310	3.756859	-0.134121	634.994463	11.367290	-20.483575	-0.498310	3.225788	1.790140
0.320	3.858288	-0.159530	634.173402	11.238077	-20.610296	-0.486814	3.249946	1.772083
0.330	3.967933	-0.203351	633.579049	11.130654	-20.731421	-0.474704	3.272113	1.756790
0.340	4.084492	-0.257639	633.252573	11.050753	-20.848861	-0.464736	3.292345	1.745078
0.350	4.204784	-0.313728	633.219473	10.999792	-20.965250	-0.459190	3.310898	1.737122
0.360	4.324854	-0.364348	633.484605	10.974925	-21.083145	-0.459088	3.328123	1.732469
0.370	4.440782	-0.405046	634.026587	10.970026	-21.204264	-0.463864	3.344381	1.730215
0.380	4.548596	-0.434250	634.794393	10.977328	-21.328782	-0.471621	3.359951	1.729273
0.390	4.643426	-0.452041	635.708720	10.989332	-21.454703	-0.479865	3.374927	1.728674
0.400	4.718631	-0.458411	636.669943	11.000446	-21.577591	-0.486393	3.389133	1.727810
0.410	4.765814	-0.451985	637.572721	11.007787	-21.691100	-0.489950	3.402137	1.726515
0.420	4.776380	-0.429913	638.324792	11.010942	-21.788483	-0.490426	3.413385	1.724975
0.430	4.744608	-0.389011	638.864993	11.010862	-21.864647	-0.488594	3.422421	1.723504
0.440	4.671221	-0.327702	639.174500	11.008390	-21.917947	-0.485638	3.429102	1.722282
0.450	4.565754	-0.247980	639.276671	11.002939	-21.950992	-0.482678	3.433723	1.721155
0.460	4.446065	-0.156702	639.225105	10.991810	-21.970193	-0.480472	3.437004	1.719552
0.470	4.334416	-0.065706	639.084826	10.970497	-21.984318	-0.479335	3.439969	1.716595
0.480	4.251380	0.009479	638.914357	10.933941	-22.002532	-0.479291	3.443737	1.711331
0.490	4.210068	0.052411	638.755178	10.878255	-22.032463	-0.480370	3.449281	1.703040
0.500	4.213036	0.049644	638.630430	10.802209	-22.078745	-0.482870	3.457202	1.691465
0.510	4.252831	-0.005135	638.549971	10.707855	-22.142363	-0.487367	3.467601	1.676902
0.520	4.315484	-0.108278	638.516708	10.600158	-22.220997	-0.494407	3.480096	1.660122
0.530	4.385154	-0.246147	638.530268	10.485904	-22.310285	-0.504027	3.494006	1.642194
0.540	4.448166	-0.398216	638.587008	10.372314	-22.405599	-0.515419	3.508621	1.624260
0.550	4.495567	-0.542160	638.678001	10.265694	-22.503644	-0.526994	3.523473	1.607335
0.560	4.524208	-0.659013	638.787624	10.170284	-22.603197	-0.536862	3.538452	1.592123
0.570	4.536592	-0.736947	638.894675	10.087504	-22.704711	-0.543523	3.553749	1.578899
0.580	4.539559	-0.772914	638.975955	10.015708	-22.809149	-0.546430	3.569641	1.567462
0.590	4.541884	-0.771982	639.009992	9.950405	-22.916760	-0.546172	3.586291	1.557159
0.600	4.551393	-0.744739	638.978250	9.884845	-23.026426	-0.544237	3.603632	1.546977
0.610	4.572658	-0.703833	638.863871	9.810976	-23.135786	-0.542447	3.621395	1.535691
0.620	4.606065	-0.661068	638.651233	9.720819	-23.241912	-0.542298	3.639218	1.522086
0.630	4.648451	-0.625997	638.329465	9.608262	-23.342149	-0.544390	3.656756	1.505220
0.640	4.694888	-0.605886	637.899579	9.470891	-23.434707	-0.548150	3.673730	1.484699
0.650	4.740884	-0.606182	637.381448	9.311197	-23.518822	-0.551987	3.689913	1.460852
0.660	4.784064	-0.630713	636.815998	9.136492	-23.594544	-0.553858	3.705080	1.434715
0.670	4.824510	-0.681582	636.259564	8.957371	-23.662394	-0.552041	3.718984	1.407817
0.680	4.863680	-0.759090	635.771263	8.785263	-23.723124	-0.545805	3.731393	1.381828
0.690	4.902627	-0.861777	635.398473	8.629971	-23.777612	-0.535706	3.742158	1.358198
0.700	4.940518	-0.986295	635.166874	8.497932	-23.826762	-0.523434	3.751260	1.337905
0.710	4.974135	-1.126985	635.078528	8.391406	-23.871259	-0.511301	3.758788	1.321318
0.720	4.998577	-1.275604	635.116941	8.308453	-23.911211	-0.501561	3.764852	1.308177
0.730	5.008868	-1.421805	635.255454	8.243492	-23.945858	-0.495780	3.769485	1.297666
0.740	5.001557	-1.554602	635.465617	8.188375	-23.973565	-0.494459	3.772598	1.288563
0.750	4.975254	-1.664395	635.723715	8.134001	-23.992238	-0.497032	3.774004	1.279487
0.760	4.929684	-1.744799	636.014685	8.072343	-24.000062	-0.502264	3.773507	1.269207
0.770	4.863980	-1.793619	636.332932	7.998496	-23.996356	-0.508850	3.771038	1.256967
0.780	4.775727	-1.812664	636.679995	7.912041	-23.982247	-0.515937	3.766766	1.242703
0.790	4.661825	-1.806595	637.060404	7.816988	-23.960898	-0.523272	3.761166	1.227040
0.800	4.520958	-1.781334	637.478146	7.720114	-23.937160	-0.530885	3.754977	1.211040
0.810	4.356238	-1.742658	637.934965	7.628339	-23.916689	-0.538500	3.749080	1.195786
0.820	4.176293	-1.695491	638.429083	7.546299	-23.904768	-0.545099	3.744311	1.182011
0.830	3.994115	-1.644200	638.952087	7.475070	-23.905190	-0.548997	3.741312	1.169895
0.840	3.824331	-1.593626	639.484159	7.412367	-23.919543	-0.548476	3.740443	1.159117
0.850	3.680286	-1.549917	639.991039	7.353992	-23.947084	-0.542640	3.741784	1.149077
0.860	3.571715	-1.520235	640.426415	7.295776	-23.985178	-0.531976	3.745189	1.139206
0.870	3.502923	-1.511266	640.740375	7.235169	-24.030124	-0.518249	3.750368	1.129189
0.880	3.471484	-1.527269	640.890975	7.171846	-24.078120	-0.503803	3.756976	1.119043
0.890	3.468283	-1.568575	640.854593	7.107321	-24.126190	-0.490612	3.764690	1.109038
0.900	3.479898	-1.631119	640.631636	7.044025	-24.172911	-0.479613	3.773293	1.099544
0.910	3.493153	-1.707261	640.246263	6.984446	-24.218743	-0.470628	3.782723	1.090900
0.920	3.500200	-1.787648	639.740999	6.930620	-24.265785	-0.462834	3.793064	1.083348
0.930	3.501809	-1.863402	639.168472	6.883867	-24.317024	-0.455429	3.804478	1.077004
0.940	3.507196	-1.927820	638.582762	6.844563	-24.375370	-0.448047	3.817104	1.071837
0.950	3.530128	-1.977119	638.032579	6.811990	-24.442823	-0.440768	3.830968	1.067655
0.960	3.582616	-2.010333	637.557667	6.784499	-24.519975	-0.433865	3.845923	1.064139
0.970	3.668653	-2.028823	637.188086	6.760166	-24.606015	-0.427563	3.861657	1.060937
0.980	3.780889	-2.035735	636.944640	6.737692	-24.699213	-0.421969	3.877764	1.057814
0.990	3.902130	-2.035435	636.839212	6.717116	-24.797692	-0.417135	3.893870	1.054759
1.000	4.011336	-2.032621	636.874927	6.699838	-24.900154	-0.413121	3.909740	1.051986
1.010	4.091498	-2.031001	637.045953	6.687770	-25.006280	-0.409974	3.925349	1.049810
1.020	4.135833	-2.032018	637.336114	6.681896	-25.116729	-0.407634	3.940892	1.048410
1.030	4.149566	-2.034526	637.716938	6.680966	-25.232834	-0.405839	3.956745	1.047638
1.040	4.146743	-2.035947	638.148162	6.681207	-25.356102	-0.404099	3.973388	1.046968
1.050	4.143798	-2.034423	638.583504	6.677511	-25.487610	-0.401788	3.991273	1.045675
1.060	4.153020	-2.030805	638.980383	6.665538	-25.627420	-0.398398	4.010674	1.043152
1.070	4.178772	-2.029311	639.308450	6.643510	-25.774189	-0.393881	4.031573	1.039171
1.080	4.217706	-2.036295	639.552342	6.612614	-25.925219	-0.388879	4.053651	1.033944
1.090	4.262202	-2.057497	639.708209	6.575985	-26.077006	-0.384598	4.076391	1.027966
1.100	4.304987	-2.095174	639.777097	6.537196	-26.226150	-0.382312	4.099264	1.021793
1.110	4.342791	-2.146765	639.759158	6.499318	-26.370277	-0.382801	4.121907	1.015901
1.120	4.377874	-2.205948	639.651926	6.464853	-26.508616	-0.386048	4.144225	1.010683
1.130	4.417371	-2.265442	639.453930	6.436141	-26.642083	-0.391366	4.166380	1.006506
1.140	4.471172	-2.319856	639.171697	6.415671	-26.772958	-0.397820	4.188696	1.003748
1.150	4.549099	-2.366996	638.825167	6.406047	-26.904359	-0.404703	4.211537	1.002786
1.160	4.658066	-2.407025	638.446748	6.409615	-27.039528	-0.411868	4.235205	1.003939
1.170	4.799842	-2.440269	638.073168	6.427868	-27.180904	-0.419792	4.259841	1.007387
1.180	4.969992	-2.465194	637.733884	6.460853	-27.329081	-0.429349	4.285342	1.013096
1.190	5.158281	-2.478021	637.441877	6.506853	-27.482128	-0.441386	4.311315	1.020776
1.200	5.350428	-2.474401	637.191300	6.562586	-27.635761	-0.456249	4.337121	1.029924
1.210	5.530717	-2.452370	636.963145	6.623963	-27.784439	-0.473469	4.362017	1.039929
1.220	5.684730	-2.414816	636.736532	6.687173	-27.922952	-0.491770	4.385323	1.050226
1.230	5.801704	-2.369781	636.500638	6.749739	-28.047800	-0.509430	4.406563	1.060445
1.240	5.876301	-2.328047	636.261731	6.811166	-28.157868	-0.524892	4.425516	1.070497
1.250	5.909588	-2.299011	636.042128	6.872918	-28.254270	-0.537355	4.442201	1.080576
1.260	5.908844	-2.286958	635.872344	6.937683	-28.339637	-0.547079	4.456812	1.091050
1.270	5.885888	-2.289671	635.781190	7.008251	-28.417281	-0.555215	4.469664	1.102305
1.280	5.854236	-2.299956	635.788591	7.086621	-28.490579	-0.563200	4.481140	1.114619
1.290	5.825952	-2.309012	635.903064	7.173874	-28.562632	-0.572009	4.491664	1.128140
1.300	5.809190	-2.309731	636.122934	7.270719	-28.636059	-0.581648	4.501655	1.142974
1.310	5.807138	-2.298318	636.439214	7.378157	-28.712785	-0.591147	4.511473	1.159287
1.320	5.818510	-2.273744	636.838069	7.497702	-28.793775	-0.599038	4.521365	1.177332
1.330	5.839155	-2.235711	637.301534	7.631048	-28.878772	-0.604064	4.531414	1.197400
1.340	5.863972	-2.182467	637.806409	7.779454	-28.966206	-0.605788	4.541536	1.219720
1.350	5.888539	-2.109807	638.322801	7.943280	-29.053457	-0.604796	4.551530	1.244399
1.360	5.910341	-2.011968	638.814519	8.121913	-29.137451	-0.602381	4.561175	1.271404
1.370	5.929653	-1.884175	639.242720	8.313977	-29.215283	-0.599893	4.570296	1.300598
1.380	5.949699	-1.725731	639.571798	8.517494	-29.284481	-0.598140	4.578764	1.331749
1.390	5.975460	-1.542144	639.774409	8.729831	-29.342780	-0.597108	4.586426	1.364517
1.400	6.011112	-1.345128	639.832697	8.947585	-29.387666	-0.596120	4.593023	1.398426
1.410	6.057223	-1.150115	639.735556	9.166558	-29.416165	-0.594286	4.598176	1.432867
1.420	6.109365	-0.972057	639.475033	9.381808	-29.425250	-0.591033	4.601470	1.467111
1.430	6.159033	-0.821245	639.046226	9.587712	-29.412849	-0.586478	4.602617	1.500316
1.440	6.196389	-0.701053	638.453158	9.778161	-29.379008	-0.581500	4.601592	1.531539
1.450	6.213486	-0.608619	637.718930	9.947143	-29.326606	-0.577530	4.598673	1.559800
1.460	6.206682	-0.537892	636.894475	10.089801	-29.261306	-0.576100	4.594373	1.584219
1.470	6.177550	-0.483268	636.059653	10.203764	-29.190791	-0.578276	4.589317	1.604215
1.480	6.132177	-0.441968	635.314039	10.290204	-29.123604	-0.584119	4.584127	1.619704
1.490	6.079172	-0.414282	634.759780	10.354084	-29.067898	-0.592457	4.579354	1.631181
1.500	6.027057	-0.402013	634.481675	10.403345	-29.030358	-0.601143	4.575445	1.639660
1.510	5.982046	-0.406179	634.529791	10.447277	-29.015376	-0.607785	4.572737	1.646460
1.520	5.947040	-0.425129	634.908727	10.494643	-29.024452	-0.610635	4.571437	1.652937
1.530	5.921860	-0.453894	635.576117	10.552166	-29.055916	-0.609248	4.571587	1.660252
1.540	5.903956	-0.485002	636.450910	10.623761	-29.105178	-0.604564	4.573044	1.669219
1.550	5.888960	-0.510207	637.429511	10.710565	-29.165736	-0.598362	4.575523	1.680274
1.560	5.871384	-0.522151	638.405589	10.811638	-29.230759	-0.592344	4.578713	1.693538
1.570	5.846229	-0.515280	639.288219	10.925032	-29.294668	-0.587331	4.582388	1.708937
1.580	5.811697	-0.486054	640.013557	11.048801	-29.354037	-0.582985	4.586471	1.726339
1.590	5.771780	-0.433034	640.547441	11.181552	-29.407544	-0.578148	4.591002	1.745624
1.600	5.736798	-0.357275	640.879949	11.322311	-29.455111	-0.571556	4.596042	1.766682
1.610	5.720717	-0.262984	641.015879	11.469807	-29.496676	-0.562513	4.601551	1.789317
1.620	5.736050	-0.157902	640.965598	11.621674	-29.531126	-0.551247	4.607287	1.813151
1.630	5.788736	-0.052725	640.738913	11.774169	-29.555828	-0.538845	4.612772	1.837592
1.640	5.875557	0.040801	640.342760	11.922778	-29.567011	-0.526921	4.617373	1.861937
1.650	5.985360	0.112859	639.782768	12.063544	-29.560890	-0.517200	4.620457	1.885569
1.660	6.103455	0.158741	639.068590	12.194532	-29.535035	-0.511142	4.621575	1.908173
1.670	6.216952	0.181009	638.221759	12.316698	-29.489396	-0.509633	4.620556	1.929846
1.680	6.318418	0.189601	637.282642	12.433787	-29.426463	-0.512738	4.617490	1.951063
1.690	6.406204	0.199524	636.311867	12.551440	-29.350404	-0.519560	4.612582	1.972530
1.700	6.481691	0.226738	635.383516	12.676165	-29.265419	-0.528320	4.605946	1.995041
1.710	6.545294	0.283864	634.571893	12.814717	-29.174019	-0.536713	4.597433	2.019427
1.720	6.593393	0.377609	633.937385	12.973891	-29.076148	-0.542455	4.586596	2.046557
1.730	6.617614	0.508971	633.517306	13.160285	-28.969706	-0.543841	4.572836	2.077336
1.740	6.606725	0.675573	633.324989	13.379575	-28.852221	-0.540160	4.555674	2.112592
1.750	6.550272	0.874297	633.356621	13.635175	-28.722777	-0.531904	4.535009	2.152843
1.760	6.442322	1.102597	633.601920	13.926614	-28.583266	-0.520714	4.511234	2.198007
1.770	6.283531	1.358072	634.052582	14.248331	-28.438474	-0.509048	4.485192	2.247184
1.780	6.080623	1.636942	634.702848	14.589516	-28.295034	-0.499616	4.457997	2.298637
1.790	5.843758	1.932351	635.540950	14.935145	-28.159632	-0.494735	4.430813	2.349989
1.800	5.583442	2.233198	636.537007	15.267841	-28.037167	-0.495779	4.404640	2.398579
1.810	5.308797	2.523940	637.637060	15.570069	-27.929622	-0.502890	4.380175	2.441839
1.820	5.028005	2.785659	638.769747	15.826481	-27.836199	-0.514978	4.357783	2.477650
1.830	4.750206	2.998445	639.863191	16.026322	-27.754633	-0.529983	4.337589	2.504648
1.840	4.487246	3.144808	640.862287	16.165537	-27.683040	-0.545306	4.319655	2.522467
1.850	4.254030	3.213461	641.736489	16.247798	-27.621354	-0.558369	4.304158	2.531849
1.860	4.067160	3.202588	642.474440	16.283623	-27.571709	-0.567203	4.291487	2.534517
1.870	3.942268	3.121484	643.069349	16.287443	-27.537611	-0.570975	4.282215	2.532766
1.880	3.890720	2.989441	643.503572	16.273435	-27.522318	-0.570287	4.276949	2.528880
1.890	3.916683	2.831439	643.740873	16.251604	-27.527064	-0.567048	4.276109	2.524557
1.900	4.015679	2.671660	643.730906	16.225523	-27.549788	-0.563819	4.279706	2.520544
1.910	4.175329	2.527314	643.424370	16.192506	-27.584850	-0.562772	4.287194	2.516614
1.920	4.377993	2.405412	642.791866	16.146058	-27.623868	-0.564757	4.297483	2.511864
1.930	4.604240	2.303714	641.837979	16.079604	-27.657443	-0.569026	4.309100	2.505244
1.940	4.836214	2.214967	640.605394	15.990078	-27.677284	-0.573810	4.320489	2.496089
1.950	5.060383	2.132215	639.169212	15.880026	-27.678117	-0.577401	4.330327	2.484479
1.960	5.269182	2.052727	637.625314	15.757525	-27.658751	-0.579058	4.337775	2.471283
1.970	5.460854	1.979062	636.076750	15.633944	-27.621851	-0.579228	4.342534	2.457871
1.980	5.637151	1.917215	634.620319	15.520385	-27.572395	-0.579035	4.344707	2.445617
1.990	5.799618	1.873104	633.334635	15.424093	-27.515285	-0.579470	4.344510	2.435378
2.000	5.946067	1.849079	632.271998	15.346236	-27.452998	-0.580757	4.341960	2.427157
2.010	6.068784	1.841785	631.456816	15.281951	-27.384258	-0.582214	4.336679	2.420110
2.020	6.155175	1.842123	630.891559	15.222556	-27.304375	-0.582621	4.327903	2.412864
2.030	6.190712	1.837540	630.567677	15.158877	-27.207149	-0.580902	4.314707	2.404005
2.040	6.163270	1.816042	630.476182	15.084258	-27.087378	-0.576747	4.296336	2.392518
2.050	6.067283	1.770379	630.612644	14.996098	-26.942701	-0.570815	4.272464	2.378021
2.060	5.905912	1.700351	630.974442	14.895549	-26.774039	-0.564377	4.243284	2.360722
2.070	5.690101	1.611890	631.552566	14.785785	-26.584805	-0.558603	4.209437	2.341180
2.080	5.434802	1.513271	632.323302	14.669871	-26.379564	-0.553893	4.171847	2.319995
2.090	5.154106	1.410462	633.245188	14.549262	-26.162751	-0.549600	4.131536	2.297572
2.100	4.857415	1.304085	634.263762	14.423467	-25.937748	-0.544244	4.089426	2.274049
2.110	4.547987	1.189441	635.322117	14.290736	-25.706476	-0.536072	4.046211	2.249368
2.120	4.223963	1.059259	636.372035	14.149256	-25.469549	-0.523685	4.002305	2.223425
2.130	3.881096	0.907581	637.380996	13.998336	-25.226921	-0.506495	3.957903	2.196227
2.140	3.516230	0.733045	638.333773	13.839300	-24.978824	-0.484903	3.913129	2.168035
2.150	3.130695	0.540530	639.230181	13.676001	-24.726766	-0.460279	3.868210	2.139449
2.160	2.732847	0.340857	640.081065	13.514848	-24.474400	-0.434798	3.823641	2.111428
2.170	2.339095	0.148698	640.903614	13.364178	-24.228015	-0.411146	3.780290	2.085209
2.180	1.973047	-0.020735	641.715855	13.232820	-23.996474	-0.392056	3.739424	2.062100
2.190	1.662629	-0.155266	642.529525	13.128082	-23.790343	-0.379731	3.702607	2.043187
2.200	1.435278	-0.248580	643.341683	13.053849	-23.620125	-0.375282	3.671474	2.029069
2.210	1.311739	-0.301504	644.127819	13.009591	-23.493918	-0.378377	3.647400	2.019722
2.220	1.299931	-0.321390	644.840038	12.990606	-23.415214	-0.387182	3.631166	2.014547
2.230	1.391191	-0.319730	645.411796	12.989174	-23.381749	-0.398648	3.622764	2.012541
2.240	1.560968	-0.308754	645.767991	12.996080	-23.385890	-0.409170	3.621407	2.012500
2.250	1.774479	-0.298192	645.838138	13.002227	-23.416460	-0.415529	3.625748	2.013233
2.260	1.995677	-0.293284	645.570307	13.000227	-23.461414	-0.415851	3.634215	2.013759
2.270	2.196359	-0.294551	644.942812	12.985799	-23.510516	-0.410220	3.645364	2.013481
2.280	2.362248	-0.298981	643.969824	12.958543	-23.557190	-0.400623	3.658120	2.012290
2.290	2.494196	-0.301895	642.698519	12.921668	-23.599022	-0.390250	3.671865	2.010533
2.300	2.604725	-0.298682	641.199594	12.880593	-23.636819	-0.382399	3.686343	2.008827
2.310	2.711748	-0.285900	639.556594	12.840924	-23.672775	-0.379465	3.701436	2.007785
2.320	2.831892	-0.261690	637.858657	12.806612	-23.708614	-0.382358	3.716907	2.007751
2.330	2.975236	-0.225789	636.196897	12.778928	-23.744562	-0.390557	3.732266	2.008644
2.340	3.142401	-0.179409	634.661282	12.756421	-23.779446	-0.402665	3.746793	2.009957
2.350	3.324370	-0.125145	633.335121	12.735689	-23.811471	-0.417146	3.759695	2.010893
2.360	3.504897	-0.067032	632.286793	12.712611	-23.838940	-0.432857	3.770273	2.010577
