Time[s]	Fx[N]	Fy[N]	Fz[N]	Mx[Nm]	My[Nm]	Mz[Nm]	COPx[cm]	COPy[cm]
0.010	3.870729	-2.939424	540.160564	15.120097	9.791929	-0.659940	-1.812781	2.799186
0.020	3.819542	-2.874805	539.699598	15.134502	9.794401	-0.671312	-1.814787	2.804246
0.030	3.773200	-2.801820	539.262966	15.156877	9.799152	-0.682789	-1.817138	2.810665
0.040	3.737111	-2.708464	538.875058	15.195627	9.808507	-0.694665	-1.820182	2.819879
0.050	3.717234	-2.580698	538.557857	15.259080	9.824773	-0.707305	-1.824274	2.833322
0.060	3.719114	-2.406404	538.331213	15.353794	9.849910	-0.721014	-1.829712	2.852109
0.070	3.745473	-2.181492	538.211822	15.482227	9.885075	-0.735694	-1.836651	2.876605
0.080	3.793164	-1.915124	538.210314	15.640877	9.930274	-0.750458	-1.845055	2.906090
0.090	3.851271	-1.631188	538.327867	15.819882	9.984323	-0.763449	-1.854692	2.938708
0.100	3.902008	-1.364836	538.553643	16.004419	10.045236	-0.772103	-1.865225	2.971741
0.110	3.924492	-1.154931	538.863291	16.177565	10.110951	-0.773798	-1.876348	3.002165
0.120	3.899935	-1.034761	539.219349	16.323724	10.180090	-0.766596	-1.887931	3.027288
0.130	3.816336	-1.023793	539.575635	16.431609	10.252434	-0.749821	-1.900092	3.045284
0.140	3.671402	-1.122707	539.886632	16.495988	10.328938	-0.724318	-1.913168	3.055454
0.150	3.473091	-1.312805	540.119328	16.517947	10.411295	-0.692398	-1.927592	3.058203
0.160	3.237729	-1.559767	540.262630	16.503952	10.501190	-0.657489	-1.943719	3.054802
0.170	2.986222	-1.820891	540.330298	16.464189	10.599383	-0.623526	-1.961649	3.047060
0.180	2.739691	-2.054277	540.356881	16.410634	10.704903	-0.594173	-1.981080	3.036999
0.190	2.516049	-2.227687	540.389349	16.355123	10.814665	-0.572048	-2.001273	3.026544
0.200	2.328125	-2.324480	540.477635	16.307602	10.923724	-0.558176	-2.021124	3.017258
0.210	2.182884	-2.344665	540.665289	16.274735	11.026083	-0.551889	-2.039355	3.010131
0.220	2.081173	-2.301030	540.979657	16.259095	11.115736	-0.551197	-2.054742	3.005491
0.230	2.018222	-2.212600	541.422200	16.259256	11.187590	-0.553492	-2.066334	3.003064
0.240	1.985495	-2.098911	541.962512	16.270954	11.238080	-0.556328	-2.073590	3.002229
0.250	1.973905	-1.977516	542.540775	16.289008	11.265482	-0.558067	-2.076431	3.002356
0.260	1.977407	-1.864511	543.080497	16.309221	11.269915	-0.558214	-2.075183	3.003095
0.270	1.995320	-1.775748	543.507924	16.329339	11.252963	-0.557376	-2.070432	3.004434
0.280	2.031964	-1.726444	543.770262	16.348660	11.216959	-0.556834	-2.062812	3.006538
0.290	2.093305	-1.728618	543.844816	16.366737	11.164206	-0.557908	-2.052829	3.009450
0.300	2.181882	-1.787510	543.736130	16.382211	11.096496	-0.561394	-2.040787	3.012897
0.310	2.292539	-1.898758	543.465148	16.392643	11.015058	-0.567283	-2.026820	3.016319
0.320	2.411621	-2.047758	543.058780	16.395479	10.920791	-0.574827	-2.010978	3.019098
0.330	2.520914	-2.211705	542.546320	16.389415	10.814523	-0.582888	-1.993290	3.020832
0.340	2.605200	-2.363966	541.962289	16.375320	10.697163	-0.590444	-1.973784	3.021487
0.350	2.659870	-2.479763	541.349544	16.356240	10.569737	-0.597011	-1.952479	3.021382
0.360	2.694446	-2.541586	540.756881	16.336587	10.433439	-0.602781	-1.929414	3.021059
0.370	2.729844	-2.542467	540.230462	16.320966	10.289866	-0.608391	-1.904718	3.021112
0.380	2.790476	-2.485944	539.803172	16.313170	10.141379	-0.614490	-1.878718	3.022059
0.390	2.894752	-2.383133	539.487319	16.315700	9.991235	-0.621401	-1.851987	3.024297
0.400	3.048100	-2.248706	539.274234	16.329734	9.843140	-0.629078	-1.825257	3.028095
0.410	3.241213	-2.097699	539.140895	16.355191	9.700360	-0.637338	-1.799225	3.033565
0.420	3.453648	-1.944053	539.060498	16.390635	9.565028	-0.646129	-1.774389	3.040593
0.430	3.660615	-1.800469	539.012469	16.433201	9.438171	-0.655566	-1.751012	3.048761
0.440	3.840075	-1.678287	538.988331	16.478932	9.320376	-0.665674	-1.729235	3.057382
0.450	3.978076	-1.586243	538.991831	16.523657	9.212481	-0.676031	-1.709206	3.065660
0.460	4.071321	-1.528208	539.033500	16.564079	9.115797	-0.685606	-1.691137	3.072922
0.470	4.126576	-1.501439	539.121739	16.598530	9.031867	-0.692937	-1.675293	3.078809
0.480	4.157270	-1.497087	539.254593	16.626988	8.962023	-0.696592	-1.661928	3.083328
0.490	4.178548	-1.503296	539.416599	16.650357	8.907036	-0.695714	-1.651235	3.086734
0.500	4.202637	-1.509525	539.582077	16.669392	8.866996	-0.690398	-1.643308	3.089315
0.510	4.235933	-1.510111	539.722507	16.683885	8.841468	-0.681759	-1.638151	3.091197
0.520	4.278243	-1.505897	539.814535	16.692412	8.829854	-0.671607	-1.635720	3.092249
0.530	4.323834	-1.503926	539.846173	16.692532	8.831733	-0.661843	-1.635972	3.092090
0.540	4.363776	-1.515776	539.819855	16.681091	8.846951	-0.653816	-1.638871	3.090122
0.550	4.388959	-1.554892	539.751809	16.654534	8.875361	-0.647932	-1.644341	3.085591
0.560	4.392835	-1.632960	539.668265	16.609467	8.916405	-0.643675	-1.652201	3.077718
0.570	4.372913	-1.755736	539.599516	16.543609	8.968880	-0.640024	-1.662136	3.065905
0.580	4.330673	-1.919520	539.572629	16.456952	9.031050	-0.636004	-1.673741	3.049998
0.590	4.270455	-2.109797	539.603852	16.352616	9.101018	-0.631135	-1.686611	3.030485
0.600	4.198154	-2.302928	539.693043	16.236963	9.177040	-0.625600	-1.700418	3.008555
0.610	4.120169	-2.470627	539.823345	16.118767	9.257587	-0.620118	-1.714929	2.985934
0.620	4.042564	-2.586010	539.968019	16.007626	9.341164	-0.615671	-1.729948	2.964551
0.630	3.970223	-2.629500	540.102634	15.912106	9.426045	-0.613218	-1.745232	2.946126
0.640	3.905976	-2.593106	540.216664	15.838196	9.510142	-0.613469	-1.760431	2.931823
0.650	3.849956	-2.482248	540.317436	15.788467	9.591194	-0.616684	-1.775104	2.922072
0.660	3.799629	-2.314933	540.423199	15.761955	9.667289	-0.622479	-1.788837	2.916595
0.670	3.750697	-2.118534	540.548915	15.754498	9.737504	-0.629749	-1.801410	2.914537
0.680	3.698601	-1.924796	540.693206	15.759324	9.802325	-0.636804	-1.812918	2.914652
0.690	3.640004	-1.764040	540.834338	15.767995	9.863580	-0.641767	-1.823771	2.915494
0.700	3.573616	-1.659746	540.937420	15.771871	9.923889	-0.643167	-1.834572	2.915655
0.710	3.500112	-1.624540	540.968263	15.763928	9.985884	-0.640511	-1.845928	2.914021
0.720	3.421473	-1.658247	540.906253	15.740333	10.051531	-0.634555	-1.858276	2.909993
0.730	3.340332	-1.748329	540.750460	15.700991	10.121763	-0.627046	-1.871799	2.903556
0.740	3.259642	-1.872706	540.517774	15.648703	10.196509	-0.620021	-1.886434	2.895132
0.750	3.182550	-2.004476	540.235668	15.587230	10.275107	-0.615009	-1.901968	2.885265
0.760	3.112121	-2.117504	539.933469	15.519128	10.356980	-0.612558	-1.918196	2.874267
0.770	3.050566	-2.191519	539.635522	15.444276	10.442342	-0.612199	-1.935073	2.861983
0.780	2.997968	-2.215552	539.358685	15.359762	10.532722	-0.612748	-1.952823	2.847782
0.790	2.951021	-2.189288	539.114561	15.261192	10.631046	-0.612725	-1.971946	2.830788
0.800	2.902625	-2.122617	538.913347	15.144890	10.741173	-0.610784	-1.993117	2.810264
0.810	2.842824	-2.034048	538.764493	15.009806	10.866949	-0.606100	-2.017013	2.785968
0.820	2.760915	-1.948376	538.672822	14.858017	11.011087	-0.598620	-2.044114	2.758264
0.830	2.648045	-1.893654	538.634309	14.693408	11.174296	-0.589077	-2.074561	2.727901
0.840	2.499766	-1.897390	538.636944	14.519347	11.354884	-0.578741	-2.108077	2.695572
0.850	2.318378	-1.981992	538.667888	14.336825	11.548880	-0.569036	-2.143970	2.661533
0.860	2.114672	-2.159716	538.723369	14.144326	11.750568	-0.561184	-2.181188	2.625527
0.870	1.907999	-2.427855	538.815979	13.939673	11.953315	-0.555995	-2.218441	2.587093
0.880	1.723385	-2.765806	538.974967	13.722933	12.150578	-0.553778	-2.254386	2.546117
0.890	1.585429	-3.136183	539.237884	13.498763	12.336947	-0.554307	-2.287849	2.503304
0.900	1.510500	-3.491363	539.635871	13.276761	12.508966	-0.556853	-2.318038	2.460318
0.910	1.500199	-3.784447	540.178275	13.069370	12.665482	-0.560303	-2.344686	2.419455
0.920	1.539162	-3.981050	540.843041	12.888318	12.807361	-0.563438	-2.368037	2.383005
0.930	1.598723	-4.067406	541.576863	12.741311	12.936634	-0.565309	-2.388698	2.352632
0.940	1.645366	-4.051773	542.304705	12.630460	13.055377	-0.565585	-2.407388	2.329034
0.950	1.650632	-3.959158	542.945197	12.552777	13.164808	-0.564685	-2.424703	2.311979
0.960	1.598732	-3.822135	543.427639	12.502065	13.265035	-0.563573	-2.440994	2.300594
0.970	1.489341	-3.671623	543.706749	12.471066	13.355503	-0.563269	-2.456380	2.293712
0.980	1.335292	-3.530834	543.771728	12.453055	13.435666	-0.564300	-2.470828	2.290126
0.990	1.157023	-3.413610	543.647387	12.442613	13.505284	-0.566404	-2.484199	2.288729
1.000	0.976561	-3.326179	543.387059	12.435795	13.564046	-0.568691	-2.496203	2.288570
1.010	0.813158	-3.270013	543.059018	12.430136	13.610871	-0.570154	-2.506334	2.288911
1.020	0.681201	-3.243603	542.729662	12.424726	13.643562	-0.570240	-2.513878	2.289303
1.030	0.589786	-3.242327	542.448023	12.420236	13.659257	-0.569118	-2.518077	2.289664
1.040	0.542966	-3.257289	542.236292	12.418621	13.655515	-0.567498	-2.518370	2.290260
1.050	0.540082	-3.274937	542.089222	12.422359	13.631406	-0.566145	-2.514606	2.291571
1.060	0.576273	-3.278903	541.981944	12.433478	13.587933	-0.565417	-2.507082	2.294076
1.070	0.643645	-3.253956	541.882871	12.452827	13.527630	-0.565129	-2.496412	2.298066
1.080	0.733251	-3.190486	541.767212	12.479922	13.453683	-0.564796	-2.483296	2.303558
1.090	0.837402	-3.087490	541.626813	12.513381	13.369079	-0.564039	-2.468319	2.310333
1.100	0.951370	-2.952810	541.473276	12.551661	13.276074	-0.562885	-2.451843	2.318057
1.110	1.073775	-2.800588	541.333577	12.593726	13.175976	-0.561816	-2.433985	2.326426
1.120	1.205593	-2.647098	541.239935	12.639352	13.069178	-0.561594	-2.414674	2.335259
1.130	1.348608	-2.506656	541.217292	12.688891	12.955353	-0.562927	-2.393743	2.344510
1.140	1.504235	-2.389123	541.272497	12.742585	12.833774	-0.566123	-2.371037	2.354190
1.150	1.672956	-2.299723	541.389103	12.799732	12.703700	-0.570842	-2.346501	2.364239
1.160	1.853617	-2.240724	541.529846	12.858121	12.564811	-0.576096	-2.320243	2.374407
1.170	2.041851	-2.213398	541.645538	12.913942	12.417619	-0.580515	-2.292573	2.384205
1.180	2.228112	-2.218374	541.686498	12.962170	12.263746	-0.582801	-2.263993	2.392928
1.190	2.397223	-2.253822	541.612707	12.997335	12.105960	-0.582145	-2.235169	2.399747
1.200	2.531193	-2.312872	541.400795	13.014688	11.947906	-0.578454	-2.206850	2.403892
1.210	2.615171	-2.382642	541.047814	13.011670	11.793635	-0.572307	-2.179777	2.404902
1.220	2.643987	-2.446091	540.572407	12.989237	11.647067	-0.564769	-2.154580	2.402867
1.230	2.625827	-2.486028	540.013533	12.952272	11.511500	-0.557187	-2.131706	2.398509
1.240	2.580891	-2.489648	539.425804	12.908555	11.389149	-0.551018	-2.111347	2.393018
1.250	2.535410	-2.452039	538.870560	12.866507	11.280742	-0.547574	-2.093405	2.387680
1.260	2.513394	-2.377561	538.404178	12.832664	11.185276	-0.547644	-2.077487	2.383463
1.270	2.529328	-2.278330	538.067860	12.810024	11.100175	-0.551124	-2.062969	2.380745
1.280	2.584593	-2.170057	537.883302	12.797962	11.021903	-0.556931	-2.049125	2.379319
1.290	2.668829	-2.066887	537.855248	12.793608	10.946833	-0.563391	-2.035275	2.378634
1.300	2.765301	-1.977679	537.977726	12.793956	10.872045	-0.568993	-2.020910	2.378157
1.310	2.857691	-1.905281	538.239044	12.797614	10.795752	-0.573093	-2.005754	2.377682
1.320	2.935448	-1.848441	538.622540	12.805268	10.717256	-0.576200	-1.989753	2.377410
1.330	2.995872	-1.804625	539.103878	12.818578	10.636624	-0.579694	-1.973019	2.377757
1.340	3.042705	-1.771950	539.648604	12.838115	10.554368	-0.585149	-1.955785	2.378977
1.350	3.082410	-1.749557	540.213946	12.861654	10.471312	-0.593616	-1.938364	2.380845
1.360	3.120144	-1.736858	540.756153	12.883948	10.388516	-0.605181	-1.921109	2.382580
1.370	3.157329	-1.732706	541.240474	12.898171	10.307092	-0.618927	-1.904346	2.383076
1.380	3.191711	-1.735193	541.648275	12.898119	10.227844	-0.633209	-1.888282	2.381272
1.390	3.219446	-1.741973	541.976974	12.879894	10.150891	-0.646111	-1.872938	2.376465
1.400	3.237876	-1.750499	542.232878	12.842328	10.075420	-0.655981	-1.858135	2.368416
1.410	3.247682	-1.757908	542.421316	12.786263	9.999721	-0.661925	-1.843534	2.357257
1.420	3.253621	-1.761010	542.539782	12.713352	9.921526	-0.664080	-1.828719	2.343303
1.430	3.263586	-1.757142	542.577605	12.625009	9.838616	-0.663505	-1.813310	2.326858
1.440	3.285917	-1.745890	542.521729	12.521778	9.749505	-0.661697	-1.797072	2.308069
1.450	3.325518	-1.730678	542.364992	12.403131	9.654001	-0.659892	-1.779982	2.286861
1.460	3.380266	-1.719096	542.112372	12.267657	9.553465	-0.658470	-1.762267	2.262936
1.470	3.439847	-1.721656	541.781926	12.113641	9.450716	-0.656690	-1.744376	2.235889
1.480	3.488358	-1.749613	541.399987	11.939939	9.349594	-0.652874	-1.726929	2.205382
1.490	3.510096	-1.812528	540.993179	11.746832	9.254309	-0.645016	-1.710615	2.171346
1.500	3.496155	-1.916012	540.581443	11.536379	9.168659	-0.631597	-1.696074	2.134069
1.510	3.448867	-2.060056	540.175575	11.312042	9.095238	-0.612310	-1.683756	2.094142
1.520	3.382102	-2.238516	539.780596	11.077849	9.034818	-0.588372	-1.673794	2.052287
1.530	3.317291	-2.440194	539.403175	10.837657	8.986111	-0.562305	-1.665936	2.009194
1.540	3.276902	-2.651189	539.058317	10.594897	8.946063	-0.537286	-1.659572	1.965445
1.550	3.278049	-2.857620	538.770330	10.352878	8.910706	-0.516294	-1.653897	1.921575
1.560	3.328384	-3.047707	538.566856	10.115327	8.876408	-0.501365	-1.648153	1.878193
1.570	3.425034	-3.212828	538.469612	9.886620	8.841140	-0.493177	-1.641901	1.836059
1.580	3.556206	-3.347734	538.487265	9.671251	8.805168	-0.491061	-1.635167	1.796004
1.590	3.704677	-3.450480	538.613802	9.472600	8.770848	-0.493401	-1.628411	1.758700
1.600	3.852187	-3.522372	538.832351	9.291637	8.741630	-0.498245	-1.622328	1.724402
1.610	3.983443	-3.567791	539.121435	9.126323	8.720796	-0.503924	-1.617594	1.692814
1.620	4.088442	-3.593500	539.459380	8.972090	8.710557	-0.509504	-1.614683	1.663163
1.630	4.162463	-3.607432	539.824043	8.823183	8.711871	-0.514968	-1.613835	1.634455
1.640	4.204261	-3.617502	540.188927	8.674248	8.724890	-0.521018	-1.615155	1.605780
1.650	4.213702	-3.630919	540.520072	8.521559	8.749604	-0.528531	-1.618738	1.576548
1.660	4.190175	-3.653881	540.777957	8.363633	8.786249	-0.537888	-1.624742	1.546593
1.670	4.132490	-3.691133	540.925508	8.201270	8.835290	-0.548555	-1.633365	1.516155
1.680	4.040211	-3.745225	540.939465	8.037160	8.897063	-0.559174	-1.644743	1.485778
1.690	3.915658	-3.815833	540.820066	7.875209	8.971249	-0.568109	-1.658823	1.456161
1.700	3.765528	-3.899685	540.594357	7.719748	9.056528	-0.574135	-1.675291	1.428011
1.710	3.601195	-3.991266	540.311117	7.574818	9.150602	-0.576909	-1.693580	1.401936
1.720	3.437202	-4.084014	540.028696	7.443566	9.250640	-0.577059	-1.712990	1.378365
1.730	3.288051	-4.171424	539.799819	7.327759	9.353879	-0.575907	-1.732842	1.357496
1.740	3.164052	-4.247632	539.658765	7.227534	9.458069	-0.574989	-1.752602	1.339279
1.750	3.067768	-4.307477	539.615756	7.141539	9.561581	-0.575592	-1.771924	1.323449
1.760	2.992908	-4.346560	539.660754	7.067497	9.663176	-0.578426	-1.790602	1.309619
1.770	2.926733	-4.361886	539.774449	7.003043	9.761574	-0.583510	-1.808454	1.297402
1.780	2.855381	-4.353069	539.940311	6.946535	9.855051	-0.590234	-1.825211	1.286538
1.790	2.769916	-4.323360	540.151155	6.897536	9.941294	-0.597534	-1.840465	1.276964
1.800	2.670454	-4.279759	540.407826	6.856705	10.017681	-0.604101	-1.853726	1.268802
1.810	2.566432	-4.231960	540.712853	6.825106	10.081917	-0.608623	-1.864560	1.262242
1.820	2.472799	-4.190328	541.064034	6.803257	10.132671	-0.610067	-1.872730	1.257385
1.830	2.403812	-4.163280	541.451112	6.790389	10.169812	-0.607957	-1.878251	1.254109
1.840	2.367258	-4.154772	541.855841	6.784240	10.194102	-0.602551	-1.881331	1.252038
1.850	2.361473	-4.162919	542.253997	6.781495	10.206559	-0.594806	-1.882247	1.250612
1.860	2.376220	-4.180679	542.617969	6.778713	10.207890	-0.586089	-1.881230	1.249261
1.870	2.396990	-4.198604	542.919688	6.773470	10.198244	-0.577684	-1.878407	1.247601
1.880	2.411174	-4.208427	543.134486	6.765293	10.177276	-0.570299	-1.873804	1.245602
1.890	2.413716	-4.205630	543.245826	6.755997	10.144470	-0.563819	-1.867381	1.243635
1.900	2.409711	-4.189671	543.249210	6.749294	10.099651	-0.557465	-1.859119	1.242394
1.910	2.412376	-4.161961	543.152976	6.749760	10.043519	-0.550330	-1.849114	1.242700
1.920	2.436845	-4.123029	542.974913	6.761491	9.978004	-0.541989	-1.837655	1.245268
1.930	2.492388	-4.070702	542.735747	6.786766	9.906279	-0.532861	-1.825249	1.250473
1.940	2.576806	-4.000382	542.452084	6.825037	9.832393	-0.524078	-1.812583	1.258183
1.950	2.676068	-3.907308	542.131767	6.872538	9.760648	-0.516940	-1.800420	1.267688
1.960	2.769806	-3.789772	541.773687	6.922765	9.694926	-0.512272	-1.789479	1.277797
1.970	2.840145	-3.652039	541.372155	6.967905	9.638196	-0.510083	-1.780327	1.287082
1.980	2.879447	-3.505771	540.924014	7.000845	9.592347	-0.509728	-1.773326	1.294238
1.990	2.893055	-3.369030	540.435675	7.017039	9.558373	-0.510398	-1.768642	1.298404
2.000	2.895915	-3.262505	539.927391	7.015501	9.536784	-0.511586	-1.766309	1.299342
2.010	2.905130	-3.203897	539.432850	6.998623	9.528010	-0.513245	-1.766301	1.297404
2.020	2.932382	-3.202520	538.993952	6.971012	9.532594	-0.515636	-1.768590	1.293338
2.030	2.979647	-3.256230	538.652797	6.937849	9.551067	-0.519022	-1.773140	1.288000
2.040	3.039435	-3.351595	538.443821	6.903381	9.583599	-0.523440	-1.779870	1.282099
2.050	3.098413	-3.466882	538.388123	6.870099	9.629596	-0.528675	-1.788597	1.276049
2.060	3.142048	-3.576798	538.490437	6.838774	9.687446	-0.534428	-1.799001	1.269990
2.070	3.158420	-3.657852	538.738390	6.809045	9.754510	-0.540507	-1.810621	1.263887
2.080	3.140713	-3.693162	539.104039	6.780104	9.827436	-0.546936	-1.822920	1.257662
2.090	3.088688	-3.675615	539.548414	6.751198	9.902786	-0.553927	-1.835384	1.251268
2.100	3.009008	-3.608684	540.029288	6.721881	9.977721	-0.561729	-1.847626	1.244725
2.110	2.913661	-3.505011	540.510379	6.692044	10.050414	-0.570399	-1.859430	1.238097
2.120	2.816180	-3.383349	540.968325	6.661790	10.119933	-0.579573	-1.870707	1.231457
2.130	2.726889	-3.264686	541.394247	6.631351	10.185676	-0.588377	-1.881379	1.224865
2.140	2.649480	-3.168289	541.789149	6.601190	10.246691	-0.595594	-1.891269	1.218406
2.150	2.580676	-3.108333	542.155440	6.572280	10.301355	-0.600027	-1.900074	1.212250
2.160	2.512952	-3.091679	542.488527	6.546191	10.347650	-0.600905	-1.907441	1.206697
2.170	2.438693	-3.117100	542.772401	6.524610	10.383927	-0.598153	-1.913127	1.202089
2.180	2.353785	-3.175913	542.981551	6.508386	10.409651	-0.592403	-1.917128	1.198638
2.190	2.259313	-3.253876	543.088975	6.496720	10.425550	-0.584721	-1.919676	1.196253
2.200	2.161102	-3.334366	543.077289	6.487123	10.432950	-0.576177	-1.921080	1.194512
2.210	2.067785	-3.402659	542.948434	6.476199	10.432717	-0.567467	-1.921493	1.192784
2.220	1.988567	-3.450325	542.727977	6.460772	10.424576	-0.558778	-1.920774	1.190426
2.230	1.931557	-3.478068	542.461717	6.438798	10.407340	-0.549956	-1.918539	1.186959
2.240	1.902706	-3.495354	542.204725	6.409807	10.379922	-0.540921	-1.914392	1.182175
2.250	1.904881	-3.516345	542.005997	6.374878	10.342421	-0.532067	-1.908175	1.176164
2.260	1.936976	-3.553471	541.894518	6.336259	10.296558	-0.524414	-1.900104	1.169279
2.270	1.993624	-3.611490	541.872221	6.296784	10.245199	-0.519318	-1.890704	1.162042
2.280	2.066081	-3.684935	541.916157	6.259214	10.191213	-0.517834	-1.880589	1.155015
2.290	2.144263	-3.760242	541.988248	6.225633	10.136265	-0.520019	-1.870200	1.148666
2.300	2.219295	-3.821485	542.048286	6.196978	10.080090	-0.524635	-1.859630	1.143252
2.310	2.285734	-3.856911	542.064920	6.172899	10.020595	-0.529445	-1.848597	1.138775
2.320	2.342707	-3.863371	542.020429	6.152099	9.954760	-0.531993	-1.836602	1.135031
2.330	2.393539	-3.847077	541.908361	6.133047	9.879996	-0.530405	-1.823186	1.131750
2.340	2.443883	-3.820929	541.727633	6.114696	9.795467	-0.523866	-1.808190	1.128740
2.350	2.499128	-3.799973	541.478944	6.096833	9.702846	-0.512618	-1.791916	1.125959
2.360	2.562218	-3.796986	541.166302	6.079843	9.606194	-0.497688	-1.775091	1.123470
