Time[s]	Fx[N]	Fy[N]	Fz[N]	Mx[Nm]	My[Nm]	Mz[Nm]	COPx[cm]	COPy[cm]
0.010	2.574897	-2.402821	488.978977	2.974891	1.985242	0.053985	-0.405997	0.608388
0.020	2.242748	-2.355219	489.245306	3.051957	2.229768	0.067601	-0.455757	0.623809
0.030	1.951322	-2.310503	489.509200	3.126565	2.467341	0.076496	-0.504044	0.638714
0.040	1.734869	-2.268417	489.769988	3.197112	2.690322	0.077276	-0.549303	0.652778
0.050	1.614128	-2.224615	490.022443	3.262549	2.890671	0.068684	-0.589906	0.665796
0.060	1.591156	-2.172122	490.257991	3.321667	3.061438	0.051854	-0.624454	0.677534
0.070	1.647795	-2.104382	490.467070	3.372466	3.198751	0.029902	-0.652185	0.687603
0.080	1.749383	-2.018481	490.639994	3.412350	3.303150	0.007030	-0.673233	0.695489
0.090	1.853359	-1.917396	490.765463	3.439209	3.379510	-0.012571	-0.688620	0.700785
0.100	1.920271	-1.810448	490.828857	3.452778	3.435576	-0.025649	-0.699954	0.703459
0.110	1.923461	-1.711520	490.813440	3.455372	3.479838	-0.030431	-0.708994	0.704009
0.120	1.854270	-1.635350	490.705636	3.451475	3.519566	-0.026721	-0.717246	0.703370
0.130	1.721615	-1.593153	490.502903	3.446324	3.559475	-0.015679	-0.725679	0.702610
0.140	1.547048	-1.589213	490.221265	3.444205	3.601186	0.000581	-0.734604	0.702582
0.150	1.357629	-1.619706	489.899110	3.447278	3.643481	0.019493	-0.743721	0.703671
0.160	1.179002	-1.674022	489.593926	3.455368	3.683268	0.038602	-0.752311	0.705762
0.170	1.030463	-1.737884	489.370397	3.466612	3.716905	0.056083	-0.759528	0.708382
0.180	0.922736	-1.797182	489.282002	3.478513	3.741318	0.071059	-0.764655	0.710942
0.190	0.858297	-1.841580	489.352546	3.488883	3.754482	0.083576	-0.767235	0.712959
0.200	0.833364	-1.867058	489.565673	3.496348	3.755231	0.094261	-0.767054	0.714174
0.210	0.840481	-1.876598	489.867338	3.500292	3.742821	0.103810	-0.764048	0.714539
0.220	0.870715	-1.878568	490.180312	3.500253	3.716728	0.112547	-0.758237	0.714075
0.230	0.914944	-1.883333	490.424944	3.495053	3.676908	0.120262	-0.749739	0.712658
0.240	0.964438	-1.899568	490.539046	3.482136	3.624343	0.126404	-0.738849	0.709859
0.250	1.011302	-1.931850	490.491422	3.457695	3.561348	0.130503	-0.726078	0.704945
0.260	1.049145	-1.980202	490.286763	3.417815	3.491275	0.132588	-0.712088	0.697105
0.270	1.073961	-2.041238	489.962490	3.360277	3.417606	0.133387	-0.697524	0.685823
0.280	1.084918	-2.110150	489.579540	3.286049	3.342868	0.134242	-0.682804	0.671198
0.290	1.084696	-2.182808	489.209270	3.199564	3.267880	0.136746	-0.667992	0.654028
0.300	1.078996	-2.257407	488.918502	3.107459	3.191644	0.142232	-0.652797	0.635578
0.310	1.075153	-2.335206	488.755201	3.016386	3.111803	0.151291	-0.636679	0.617157
0.320	1.080312	-2.420066	488.738566	2.930913	3.025315	0.163529	-0.619005	0.599689
0.330	1.100067	-2.516743	488.857657	2.852400	2.929046	0.177632	-0.599161	0.583483
0.340	1.138147	-2.628452	489.080021	2.779211	2.820232	0.191688	-0.576640	0.568253
0.350	1.197018	-2.754695	489.366473	2.708018	2.696911	0.203607	-0.551102	0.553372
0.360	1.278685	-2.890190	489.684084	2.635469	2.558358	0.211540	-0.522451	0.538198
0.370	1.385081	-3.025164	490.010408	2.559447	2.405326	0.214259	-0.490873	0.522325
0.380	1.517759	-3.146924	490.328242	2.479531	2.239890	0.211455	-0.456814	0.505688
0.390	1.677015	-3.242593	490.617146	2.396789	2.064911	0.203916	-0.420880	0.488525
0.400	1.860923	-3.302711	490.849857	2.313349	1.883386	0.193460	-0.383699	0.471295
0.410	2.064979	-3.324637	490.997077	2.232033	1.697987	0.182529	-0.345824	0.454592
0.420	2.282507	-3.314265	491.037204	2.156024	1.510944	0.173484	-0.307705	0.439075
0.430	2.505419	-3.284964	490.964284	2.088357	1.324234	0.167833	-0.269721	0.425358
0.440	2.724894	-3.253895	490.789789	2.031241	1.139835	0.165753	-0.232245	0.413872
0.450	2.931975	-3.237084	490.538769	1.985423	0.959845	0.166115	-0.195672	0.404743
0.460	3.118341	-3.245128	490.243967	1.949877	0.786392	0.167000	-0.160408	0.397736
0.470	3.277193	-3.280889	489.940947	1.921941	0.621453	0.166488	-0.126842	0.392280
0.480	3.404009	-3.339580	489.665187	1.897914	0.466754	0.163409	-0.095321	0.387594
0.490	3.496927	-3.410794	489.450161	1.874023	0.323788	0.157799	-0.066153	0.382883
0.500	3.556895	-3.481672	489.324580	1.847547	0.193818	0.150896	-0.039609	0.377571
0.510	3.587797	-3.540292	489.307747	1.817693	0.077633	0.144678	-0.015866	0.371483
0.520	3.596521	-3.578464	489.404219	1.785746	-0.025073	0.141161	0.005123	0.364882
0.530	3.592633	-3.593240	489.600672	1.754266	-0.116589	0.141689	0.023813	0.358306
0.540	3.587381	-3.586947	489.867017	1.725537	-0.201888	0.146435	0.041213	0.352246
0.550	3.592144	-3.566041	490.161358	1.699983	-0.288460	0.154219	0.058850	0.346821
0.560	3.616720	-3.539410	490.437081	1.675494	-0.384882	0.162679	0.078477	0.341633
0.570	3.667705	-3.516615	490.651090	1.648146	-0.498358	0.168822	0.101571	0.335910
0.580	3.747011	-3.506164	490.772802	1.614031	-0.632208	0.169864	0.128819	0.328875
0.590	3.850762	-3.513704	490.792109	1.571288	-0.784458	0.164129	0.159835	0.320154
0.600	3.969293	-3.540315	490.722989	1.521374	-0.948203	0.151691	0.193226	0.310027
0.610	4.088964	-3.581542	490.600203	1.468955	-1.113586	0.134462	0.226984	0.299420
0.620	4.195664	-3.628025	490.469462	1.420405	-1.270616	0.115590	0.259061	0.289601
0.630	4.278774	-3.667972	490.374215	1.381586	-1.411917	0.098369	0.287926	0.281741
0.640	4.333910	-3.690853	490.343116	1.355986	-1.534513	0.085126	0.312947	0.276538
0.650	4.363350	-3.691002	490.381578	1.344137	-1.640063	0.076601	0.334446	0.274100
0.660	4.374190	-3.669772	490.469894	1.344400	-1.733476	0.072101	0.353432	0.274104
0.670	4.375349	-3.635372	490.569427	1.354405	-1.820570	0.070255	0.371114	0.276088
0.680	4.374901	-3.600200	490.636055	1.372228	-1.905872	0.069857	0.388449	0.279683
0.690	4.378678	-3.576332	490.636428	1.396808	-1.991532	0.070310	0.405908	0.284693
0.700	4.390121	-3.570722	490.560070	1.427691	-2.077596	0.071581	0.423515	0.291033
0.710	4.410827	-3.582269	490.421658	1.464520	-2.163181	0.073888	0.441086	0.298625
0.720	4.441263	-3.602372	490.252678	1.506710	-2.247669	0.077444	0.458472	0.307333
0.730	4.481450	-3.618805	490.087257	1.553490	-2.331266	0.082312	0.475684	0.316982
0.740	4.531482	-3.620781	489.949790	1.604293	-2.414807	0.088295	0.492868	0.327440
0.750	4.591779	-3.602459	489.850282	1.659227	-2.499061	0.094828	0.510168	0.338721
0.760	4.662928	-3.563389	489.788036	1.719236	-2.583970	0.100970	0.527569	0.351016
0.770	4.745089	-3.506458	489.759354	1.785710	-2.668185	0.105640	0.544795	0.364610
0.780	4.837126	-3.435221	489.763828	1.859680	-2.749121	0.108062	0.561316	0.379710
0.790	4.935892	-3.352297	489.806208	1.940994	-2.823548	0.108167	0.576462	0.396278
0.800	5.036213	-3.259442	489.893559	2.027901	-2.888507	0.106660	0.589619	0.413947
0.810	5.131815	-3.158935	490.029159	2.117230	-2.942131	0.104658	0.600399	0.432062
0.820	5.216924	-3.055225	490.205947	2.205056	-2.983971	0.103147	0.608718	0.449822
0.830	5.287881	-2.955637	490.403358	2.287596	-3.014666	0.102593	0.614732	0.466472
0.840	5.344046	-2.869480	490.590333	2.362052	-3.035087	0.102873	0.618660	0.481471
0.850	5.387595	-2.805781	490.734022	2.427211	-3.045362	0.103490	0.620573	0.494608
0.860	5.422235	-2.770437	490.810156	2.483614	-3.044271	0.103889	0.620254	0.506023
0.870	5.451402	-2.763773	490.810151	2.533247	-3.029381	0.103723	0.617220	0.516136
0.880	5.476721	-2.779480	490.742014	2.578892	-2.997818	0.103013	0.610875	0.525509
0.890	5.497391	-2.805626	490.625612	2.623433	-2.947226	0.102186	0.600708	0.534712
0.900	5.510497	-2.827633	490.485445	2.669314	-2.876339	0.101989	0.586427	0.544219
0.910	5.511774	-2.832283	490.344412	2.718139	-2.785024	0.103268	0.567973	0.554333
0.920	5.496187	-2.811405	490.220124	2.770307	-2.673979	0.106660	0.545465	0.565115
0.930	5.458169	-2.764096	490.123056	2.824773	-2.544379	0.112318	0.519131	0.576340
0.940	5.391824	-2.696660	490.055292	2.879133	-2.397643	0.119781	0.489260	0.587512
0.950	5.291514	-2.620167	490.010190	2.930216	-2.235288	0.128076	0.456172	0.597991
0.960	5.152805	-2.546635	489.974607	2.975050	-2.058665	0.136004	0.420158	0.607185
0.970	4.973281	-2.485613	489.934499	3.011781	-1.868429	0.142523	0.381363	0.614731
0.980	4.752710	-2.442542	489.882155	3.040147	-1.663926	0.147071	0.339658	0.620587
0.990	4.492668	-2.419038	489.821589	3.061430	-1.442982	0.149696	0.294593	0.625009
1.000	4.196397	-2.414218	489.768991	3.078061	-1.202480	0.150904	0.245520	0.628472
1.010	3.869579	-2.425948	489.747539	3.093079	-0.939677	0.151316	0.191870	0.631566
1.020	3.521794	-2.451337	489.778457	3.109568	-0.653777	0.151318	0.133484	0.634893
1.030	3.167580	-2.486606	489.871506	3.130060	-0.347197	0.150930	0.070875	0.638955
1.040	2.825762	-2.527007	490.018134	3.155879	-0.026089	0.149932	0.005324	0.644033
1.050	2.516285	-2.567420	490.190270	3.186542	0.300115	0.148084	-0.061224	0.650062
1.060	2.255052	-2.603500	490.346580	3.219581	0.620071	0.145252	-0.126456	0.656593
1.070	2.048756	-2.632733	490.444813	3.251095	0.922449	0.141389	-0.188084	0.662887
1.080	1.892293	-2.654840	490.455002	3.276983	1.197849	0.136445	-0.244232	0.668152
1.090	1.770394	-2.671477	490.367475	3.294340	1.440192	0.130339	-0.293696	0.671810
1.100	1.663024	-2.685398	490.193300	3.302386	1.647252	0.123032	-0.336041	0.673691
1.110	1.552346	-2.699142	489.959633	3.302586	1.820337	0.114695	-0.371528	0.674053
1.120	1.428338	-2.713334	489.704244	3.298114	1.963347	0.105886	-0.400925	0.673491
1.130	1.290998	-2.725226	489.471169	3.293064	2.081567	0.097564	-0.425269	0.672780
1.140	1.148633	-2.728575	489.305909	3.291678	2.180460	0.090852	-0.445623	0.672724
1.150	1.013520	-2.715476	489.247229	3.297646	2.264616	0.086601	-0.462878	0.674025
1.160	0.897212	-2.679523	489.315364	3.313478	2.336998	0.084979	-0.477606	0.677166
1.170	0.807552	-2.618824	489.501191	3.340040	2.398651	0.085337	-0.490020	0.682335
1.180	0.748111	-2.537472	489.763490	3.376370	2.448975	0.086431	-0.500032	0.689388
1.190	0.719144	-2.444951	490.038690	3.419854	2.486447	0.086912	-0.507398	0.697874
1.200	0.718745	-2.353860	490.261022	3.466752	2.509514	0.085817	-0.511873	0.707124
1.210	0.743660	-2.276756	490.385107	3.513041	2.517244	0.082839	-0.513320	0.716384
1.220	0.790203	-2.222823	490.401221	3.555533	2.509402	0.078283	-0.511704	0.725025
1.230	0.855570	-2.195161	490.336508	3.593124	2.485923	0.072799	-0.506983	0.732787
1.240	0.938986	-2.189579	490.241520	3.627629	2.446130	0.067076	-0.498964	0.739968
1.250	1.041538	-2.195697	490.167811	3.663467	2.388341	0.061640	-0.487250	0.747390
1.260	1.164303	-2.200387	490.146352	3.705895	2.310295	0.056760	-0.471348	0.756079
1.270	1.305661	-2.192546	490.176325	3.758504	2.210270	0.052424	-0.450913	0.766766
1.280	1.459463	-2.167236	490.228857	3.821299	2.088294	0.048386	-0.425984	0.779493
1.290	1.615409	-2.127311	490.262640	3.890330	1.946802	0.044317	-0.397094	0.793520
1.300	1.761974	-2.081903	490.243009	3.958969	1.790447	0.040042	-0.365216	0.807552
1.310	1.890860	-2.042680	490.156176	4.020146	1.625221	0.035780	-0.331572	0.820177
1.320	2.000901	-2.019652	490.014785	4.068568	1.457221	0.032247	-0.297383	0.830295
1.330	2.099238	-2.018064	489.855074	4.102063	1.291440	0.030542	-0.263637	0.837403
1.340	2.198935	-2.037115	489.727025	4.121675	1.130807	0.031806	-0.230906	0.841627
1.350	2.314227	-2.070619	489.679039	4.130567	0.975625	0.036791	-0.199238	0.843525
1.360	2.455760	-2.109250	489.740668	4.132279	0.823497	0.045519	-0.168150	0.843769
1.370	2.627740	-2.143653	489.909713	4.129064	0.669789	0.057197	-0.136717	0.842821
1.380	2.827585	-2.167376	490.149941	4.120965	0.508560	0.070433	-0.103756	0.840756
1.390	3.047577	-2.178707	490.401548	4.105977	0.333791	0.083631	-0.068065	0.837268
1.400	3.277731	-2.180982	490.600739	4.081121	0.140746	0.095400	-0.028689	0.831862
1.410	3.509003	-2.181537	490.700678	4.043798	-0.072812	0.104813	0.014838	0.824086
1.420	3.735885	-2.189874	490.685631	3.992780	-0.305793	0.111488	0.062319	0.813714
1.430	3.957489	-2.215733	490.573010	3.928470	-0.553588	0.115564	0.112845	0.800792
1.440	4.176722	-2.267471	490.403107	3.852539	-0.808604	0.117616	0.164886	0.785586
1.450	4.397949	-2.350751	490.221747	3.767254	-1.061318	0.118487	0.216498	0.768480
1.460	4.624105	-2.467425	490.064468	3.674793	-1.301523	0.119026	0.265582	0.749859
1.470	4.854385	-2.614715	489.949342	3.576733	-1.519484	0.119757	0.310131	0.730021
1.480	5.083154	-2.785080	489.879408	3.473848	-1.706962	0.120619	0.348445	0.709123
1.490	5.300120	-2.967137	489.849915	3.366363	-1.858093	0.120905	0.379319	0.687223
1.500	5.491484	-3.147728	489.854633	3.254631	-1.970003	0.119466	0.402161	0.664407
1.510	5.642012	-3.314794	489.888538	3.139862	-2.042913	0.115118	0.417016	0.640934
1.520	5.738173	-3.460265	489.947353	3.024362	-2.079679	0.107073	0.424470	0.617283
1.530	5.772022	-3.581878	490.025782	2.911046	-2.084840	0.095269	0.425455	0.594060
1.540	5.744603	-3.683091	490.116325	2.802528	-2.063415	0.080484	0.421005	0.571809
1.550	5.667070	-3.771127	490.209811	2.700473	-2.019692	0.064203	0.412006	0.550881
1.560	5.558412	-3.854026	490.297300	2.605668	-1.956340	0.048279	0.399011	0.531447
1.570	5.440233	-3.937931	490.371842	2.518720	-1.874175	0.034497	0.382195	0.513635
1.580	5.330409	-4.025445	490.428959	2.440844	-1.772695	0.024199	0.361458	0.497696
1.590	5.237964	-4.115233	490.466073	2.374211	-1.651148	0.018129	0.336649	0.484072
1.600	5.160919	-4.202598	490.481918	2.321666	-1.509622	0.016558	0.307784	0.473344
1.610	5.087711	-4.280627	490.476318	2.285980	-1.349615	0.019548	0.275164	0.466073
1.620	5.001388	-4.341644	490.450118	2.269003	-1.173811	0.027096	0.239334	0.462637
1.630	4.885022	-4.378682	490.405441	2.271085	-0.985299	0.038974	0.200915	0.463103
1.640	4.726678	-4.386726	490.346723	2.290980	-0.786698	0.054364	0.160437	0.467216
1.650	4.522643	-4.363500	490.281889	2.326235	-0.579611	0.071647	0.118220	0.474469
1.660	4.278074	-4.309844	490.221886	2.373778	-0.364449	0.088564	0.074344	0.484225
1.670	4.004889	-4.229700	490.177452	2.430395	-0.140514	0.102802	0.028666	0.495819
1.680	3.717688	-4.129698	490.154188	2.492953	0.093663	0.112694	-0.019109	0.508606
1.690	3.429380	-4.018296	490.148495	2.558535	0.339695	0.117711	-0.069305	0.521992
1.700	3.148264	-3.904582	490.146705	2.624691	0.598476	0.118445	-0.122101	0.535491
1.710	2.877467	-3.796986	490.128344	2.689806	0.869338	0.116142	-0.177369	0.548796
1.720	2.616427	-3.702110	490.073058	2.753277	1.149503	0.112068	-0.234557	0.561809
1.730	2.363267	-3.623892	489.969364	2.815124	1.434016	0.107111	-0.292675	0.574551
1.740	2.116782	-3.563210	489.822244	2.875090	1.716287	0.101768	-0.350390	0.586966
1.750	1.877162	-3.518086	489.656167	2.931870	1.989190	0.096399	-0.406242	0.598761
1.760	1.645476	-3.484640	489.511198	2.983240	2.246449	0.091449	-0.458917	0.609432
1.770	1.422834	-3.458681	489.432185	3.027223	2.483808	0.087492	-0.507488	0.618517
1.780	1.210353	-3.437299	489.453807	3.063587	2.699468	0.085098	-0.551527	0.625920
1.790	1.010189	-3.419584	489.586327	3.094741	2.893607	0.084707	-0.591031	0.632113
1.800	0.826704	-3.406107	489.807919	3.125451	3.067287	0.086632	-0.626222	0.638097
1.810	0.666540	-3.397653	490.068495	3.161497	3.221403	0.091172	-0.657337	0.645113
1.820	0.537176	-3.394045	490.305791	3.207870	3.356162	0.098644	-0.684504	0.654259
1.830	0.444707	-3.393551	490.467895	3.267332	3.471153	0.109158	-0.707723	0.666166
1.840	0.392004	-3.392840	490.531653	3.339850	3.565657	0.122232	-0.726896	0.680863
1.850	0.377919	-3.387408	490.507729	3.422944	3.638918	0.136549	-0.741868	0.697837
1.860	0.397444	-3.372407	490.430589	3.512659	3.690359	0.150094	-0.752473	0.716240
1.870	0.442424	-3.343592	490.340362	3.604857	3.719859	0.160642	-0.758628	0.735174
1.880	0.502658	-3.297988	490.266808	3.696526	3.728044	0.166403	-0.760411	0.753983
1.890	0.567432	-3.234113	490.221917	3.786702	3.716445	0.166597	-0.758115	0.772446
1.900	0.627544	-3.151839	490.201400	3.876641	3.687407	0.161780	-0.752223	0.790826
1.910	0.677490	-3.052054	490.191375	3.969161	3.643826	0.153755	-0.743348	0.809717
1.920	0.717040	-2.936237	490.175885	4.067505	3.588835	0.145039	-0.732153	0.829805
1.930	0.751341	-2.806220	490.142612	4.174333	3.525465	0.138032	-0.719273	0.851657
1.940	0.789179	-2.664392	490.086402	4.291303	3.456214	0.134266	-0.705225	0.875622
1.950	0.839961	-2.514259	490.011137	4.419273	3.382504	0.134058	-0.690291	0.901872
1.960	0.910592	-2.360791	489.929915	4.558745	3.304169	0.136681	-0.674417	0.930489
1.970	1.003431	-2.209865	489.862966	4.710040	3.219316	0.140872	-0.657187	0.961502
1.980	1.116088	-2.066597	489.833028	4.873074	3.124814	0.145346	-0.637935	0.994844
1.990	1.243051	-1.933279	489.858671	5.046956	3.017354	0.149097	-0.615964	1.030288
2.000	1.378234	-1.808173	489.947045	5.229780	2.894742	0.151455	-0.590828	1.067417
2.010	1.517074	-1.686149	490.088605	5.418633	2.757029	0.152075	-0.562557	1.105644
2.020	1.657140	-1.561149	490.256631	5.609635	2.607177	0.150957	-0.531798	1.144224
2.030	1.797293	-1.429405	490.412893	5.797973	2.451015	0.148511	-0.499786	1.182264
2.040	1.936335	-1.291900	490.518059	5.978247	2.296254	0.145499	-0.468128	1.218762
2.050	2.072402	-1.154884	490.543299	6.145425	2.150655	0.142744	-0.438423	1.252779
2.060	2.203676	-1.028008	490.479187	6.296186	2.019875	0.140704	-0.411817	1.283680
2.070	2.329910	-0.920561	490.338939	6.429969	1.905837	0.139125	-0.388677	1.311331
2.080	2.453439	-0.837155	490.154790	6.549143	1.806335	0.137051	-0.368523	1.336138
2.090	2.578590	-0.774757	489.968661	6.658142	1.716158	0.133189	-0.350259	1.358891
2.100	2.709536	-0.722829	489.820532	6.761926	1.629327	0.126426	-0.332638	1.380490
2.110	2.847705	-0.666985	489.738885	6.864403	1.541574	0.116244	-0.314775	1.401645
2.120	2.990187	-0.594769	489.736369	6.967397	1.451951	0.102876	-0.296476	1.422683
2.130	3.129950	-0.500931	489.810762	7.070482	1.362772	0.087196	-0.278224	1.443513
2.140	3.257812	-0.389805	489.948403	7.171592	1.277921	0.070473	-0.260828	1.463744
2.150	3.365473	-0.273812	490.127279	7.268078	1.200472	0.054104	-0.244931	1.482896
2.160	3.448484	-0.168928	490.319576	7.357757	1.130840	0.039441	-0.230633	1.500604
2.170	3.507874	-0.089259	490.495042	7.439520	1.066281	0.027684	-0.217389	1.516737
2.180	3.549570	-0.042912	490.625381	7.513171	1.001777	0.019755	-0.204184	1.531346
2.190	3.581803	-0.030326	490.688210	7.578601	0.931885	0.016117	-0.189914	1.544484
2.200	3.611647	-0.045006	490.669602	7.634869	0.852851	0.016577	-0.173814	1.556010
2.210	3.642135	-0.076051	490.565828	7.679906	0.764230	0.020272	-0.155785	1.565520
2.220	3.671112	-0.111728	490.385564	7.711041	0.669401	0.025928	-0.136505	1.572445
2.230	3.692393	-0.143235	490.152191	7.725957	0.574679	0.032342	-0.117245	1.576236
2.240	3.698880	-0.167478	489.903472	7.723479	0.487317	0.038783	-0.099472	1.576531
2.250	3.686165	-0.187662	489.685570	7.703899	0.413088	0.045075	-0.084358	1.573234
2.260	3.654697	-0.211290	489.541437	7.668760	0.354352	0.051293	-0.072384	1.566519
2.270	3.609434	-0.246484	489.497808	7.620171	0.309266	0.057307	-0.063180	1.556732
2.280	3.557555	-0.298554	489.556728	7.559806	0.272363	0.062542	-0.055635	1.544215
2.290	3.505777	-0.368556	489.695467	7.487878	0.236252	0.066148	-0.048245	1.529089
2.300	3.458664	-0.454400	489.874477	7.402469	0.193851	0.067459	-0.039572	1.511095
2.310	3.418427	-0.553581	490.049426	7.299531	0.140434	0.066371	-0.028657	1.489550
2.320	3.385894	-0.665860	490.182539	7.173574	0.074841	0.063355	-0.015268	1.463450
2.330	3.361847	-0.794516	490.250336	7.018740	-0.000488	0.059100	0.000100	1.431665
2.340	3.347773	-0.945912	490.247247	6.829932	-0.080590	0.054046	0.016439	1.393161
2.350	3.345463	-1.128020	490.185419	6.603821	-0.159648	0.048099	0.032569	1.347209
2.360	3.355672	-1.348549	490.090558	6.339702	-0.232607	0.040681	0.047462	1.293578
2.370	3.376682	-1.612813	489.993809	6.040042	-0.296224	0.031076	0.060455	1.232677
2.380	3.403773	-1.921451	489.921644	5.710510	-0.349400	0.018912	0.071318	1.165597
2.390	3.430228	-2.268624	489.887580	5.359446	-0.392880	0.004519	0.080198	1.094015
2.400	3.449797	-2.641555	489.889293	4.996978	-0.428542	-0.011003	0.087477	1.020022
2.410	3.459579	-3.021940	489.912110	4.634045	-0.458556	-0.026021	0.093600	0.945893
2.420	3.461662	-3.389217	489.936861	4.281366	-0.484735	-0.038818	0.098938	0.873861
2.430	3.462246	-3.725028	489.947896	3.948322	-0.508248	-0.048077	0.103735	0.805866
