Time[s]	Fx[N]	Fy[N]	Fz[N]	Mx[Nm]	My[Nm]	Mz[Nm]	COPx[cm]	COPy[cm]
0.010	3.660341	-1.909309	746.755728	-2.223749	8.619614	-0.047075	-1.154275	-0.297788
0.020	3.309860	-1.983451	747.964813	-2.416367	8.716924	-0.038504	-1.165419	-0.323059
0.030	2.980157	-2.058198	749.140467	-2.604396	8.810480	-0.032242	-1.176078	-0.347651
0.040	2.695851	-2.135409	750.254162	-2.783061	8.895599	-0.030587	-1.185678	-0.370949
0.050	2.488842	-2.218786	751.283374	-2.947073	8.965967	-0.035651	-1.193420	-0.392272
0.060	2.395124	-2.313000	752.207682	-3.091189	9.014872	-0.048952	-1.198455	-0.410949
0.070	2.445877	-2.421541	753.000733	-3.211157	9.037361	-0.070863	-1.200180	-0.426448
0.080	2.655488	-2.544178	753.624268	-3.304590	9.032138	-0.100216	-1.198493	-0.438493
0.090	3.011703	-2.675318	754.031424	-3.371345	9.002253	-0.134296	-1.193883	-0.447109
0.100	3.473374	-2.804304	754.180800	-3.413207	8.954313	-0.169354	-1.187290	-0.452571
0.110	3.978204	-2.917807	754.054186	-3.433141	8.896687	-0.201458	-1.179847	-0.455291
0.120	4.457948	-3.003596	753.667308	-3.434563	8.837585	-0.227383	-1.172611	-0.455713
0.130	4.854945	-3.054351	753.067518	-3.420981	8.783808	-0.245250	-1.166404	-0.454273
0.140	5.133602	-3.069946	752.320389	-3.396004	8.740508	-0.254738	-1.161807	-0.451404
0.150	5.283276	-3.057017	751.492047	-3.363517	8.711741	-0.256845	-1.159259	-0.447578
0.160	5.313177	-3.025951	750.633946	-3.327727	8.701237	-0.253348	-1.159185	-0.443322
0.170	5.243239	-2.986951	749.774743	-3.292888	8.712839	-0.246253	-1.162061	-0.439184
0.180	5.095965	-2.947313	748.922203	-3.262658	8.750270	-0.237416	-1.168382	-0.435647
0.190	4.892402	-2.911003	748.075740	-3.239282	8.816316	-0.228414	-1.178533	-0.433015
0.200	4.652316	-2.880195	747.245216	-3.222914	8.911873	-0.220547	-1.192630	-0.431306
0.210	4.396235	-2.857459	746.466505	-3.211399	9.035455	-0.214908	-1.210430	-0.430213
0.220	4.146545	-2.847253	745.804136	-3.200654	9.183417	-0.212464	-1.231344	-0.429155
0.230	3.925850	-2.855853	745.337843	-3.185665	9.350799	-0.214088	-1.254572	-0.427412
0.240	3.752403	-2.889718	745.138494	-3.161957	9.532533	-0.220448	-1.279297	-0.424345
0.250	3.633812	-2.952947	745.243496	-3.127200	9.724835	-0.231726	-1.304920	-0.419621
0.260	3.561119	-3.044744	745.640421	-3.082371	9.926550	-0.247277	-1.331278	-0.413386
0.270	3.505525	-3.157631	746.263124	-3.031812	10.140067	-0.265487	-1.358779	-0.406266
0.280	3.419971	-3.277178	747.000813	-2.981883	10.371292	-0.284039	-1.388391	-0.399181
0.290	3.247116	-3.384071	747.718630	-2.938639	10.628452	-0.300588	-1.421451	-0.393014
0.300	2.933507	-3.458713	748.286553	-2.905524	10.919878	-0.313586	-1.459318	-0.388290
0.310	2.446764	-3.487180	748.610690	-2.882102	11.251288	-0.322911	-1.502956	-0.384993
0.320	1.789801	-3.466074	748.658168	-2.864279	11.623330	-0.329987	-1.552555	-0.382588
0.330	1.005566	-3.403784	748.466753	-2.845705	12.030238	-0.337313	-1.607318	-0.380205
0.340	0.168962	-3.317281	748.134820	-2.819673	12.460236	-0.347589	-1.665507	-0.376894
0.350	-0.631964	-3.225868	747.794892	-2.780779	12.897719	-0.362811	-1.724767	-0.371864
0.360	-1.318966	-3.144864	747.580024	-2.725867	13.326483	-0.383735	-1.782616	-0.364625
0.370	-1.842661	-3.081938	747.593327	-2.654146	13.732858	-0.409827	-1.836942	-0.355025
0.380	-2.191583	-3.037028	747.888062	-2.566619	14.107789	-0.439596	-1.886350	-0.343182
0.390	-2.389033	-3.004819	748.461781	-2.465108	14.447437	-0.471051	-1.930284	-0.329357
0.400	-2.480302	-2.977818	749.264293	-2.351243	14.752423	-0.502113	-1.968921	-0.313807
0.410	-2.516348	-2.948548	750.215660	-2.225744	15.026205	-0.530925	-2.002918	-0.296681
0.420	-2.540448	-2.910536	751.227788	-2.088209	15.273155	-0.556144	-2.033092	-0.277973
0.430	-2.581540	-2.858631	752.222912	-1.937352	15.496885	-0.577200	-2.060145	-0.257550
0.440	-2.654043	-2.789088	753.144722	-1.771571	15.699225	-0.594435	-2.084490	-0.235223
0.450	-2.761417	-2.699539	753.961215	-1.589777	15.880069	-0.608942	-2.106218	-0.210857
0.460	-2.900406	-2.588950	754.660583	-1.392333	16.037977	-0.622089	-2.125191	-0.184498
0.470	-3.064214	-2.457976	755.242056	-1.181750	16.171112	-0.634866	-2.141183	-0.156473
0.480	-3.244444	-2.309914	755.704295	-0.962702	16.277985	-0.647367	-2.154015	-0.127391
0.490	-3.432446	-2.151554	756.035748	-0.741107	16.357694	-0.658610	-2.163614	-0.098025
0.500	-3.620420	-1.992750	756.213023	-0.522432	16.409614	-0.666801	-2.169972	-0.069085
0.510	-3.801913	-1.844172	756.211320	-0.309806	16.432736	-0.669999	-2.173035	-0.040968
0.520	-3.970997	-1.714049	756.024347	-0.102772	16.424946	-0.666946	-2.172542	-0.013594
0.530	-4.120023	-1.605570	755.683976	0.102685	16.382551	-0.657743	-2.167910	0.013588
0.540	-4.237024	-1.516276	755.268006	0.312659	16.300311	-0.644066	-2.158215	0.041397
0.550	-4.304666	-1.439611	754.889507	0.532907	16.172016	-0.628773	-2.142302	0.070594
0.560	-4.302233	-1.367635	754.670051	0.766334	15.991343	-0.615020	-2.118985	0.101546
0.570	-4.210355	-1.293509	754.706553	1.011208	15.752571	-0.605176	-2.087245	0.133987
0.580	-4.016433	-1.212941	755.043841	1.260678	15.450862	-0.599961	-2.046353	0.166968
0.590	-3.718379	-1.124546	755.662167	1.503786	15.082245	-0.598123	-1.995898	0.199002
0.600	-3.325516	-1.029489	756.483147	1.727690	14.643775	-0.596826	-1.935770	0.228384
0.610	-2.857148	-0.930798	757.391730	1.920365	14.134139	-0.592587	-1.866160	0.253550
0.620	-2.339940	-0.832564	758.267021	2.072908	13.554406	-0.582454	-1.787550	0.273374
0.630	-1.804669	-0.739182	759.012003	2.180833	12.908317	-0.564956	-1.700674	0.287325
0.640	-1.282166	-0.654764	759.572925	2.244179	12.201774	-0.540466	-1.606399	0.295453
0.650	-0.798307	-0.583018	759.942708	2.266686	11.441713	-0.510860	-1.505602	0.298271
0.660	-0.368803	-0.527730	760.147747	2.254518	10.634828	-0.478685	-1.399048	0.296589
0.670	0.004700	-0.493472	760.222532	2.214905	9.786640	-0.446280	-1.287339	0.291350
0.680	0.335780	-0.485882	760.180956	2.154795	8.901229	-0.415196	-1.170936	0.283458
0.690	0.651095	-0.511225	759.995433	2.079547	7.981673	-0.386004	-1.050226	0.273626
0.700	0.985468	-0.575364	759.593646	1.991942	7.030853	-0.358413	-0.925607	0.262238
0.710	1.375175	-0.682302	758.877636	1.891971	6.052186	-0.331566	-0.797518	0.249312
0.720	1.850542	-0.832410	757.761529	1.777608	5.049947	-0.304416	-0.666430	0.234587
0.730	2.429265	-1.020891	756.214575	1.646389	4.029129	-0.276073	-0.532802	0.217714
0.740	3.112426	-1.237556	754.290174	1.497215	2.994984	-0.246003	-0.397060	0.198493
0.750	3.885101	-1.468588	752.124543	1.331738	1.952615	-0.214105	-0.259613	0.177063
0.760	4.721777	-1.699894	749.902048	1.154797	0.906921	-0.180781	-0.120939	0.153993
0.770	5.594297	-1.920732	747.801468	0.973734	-0.136946	-0.147081	0.018313	0.130213
0.780	6.478638	-2.126204	745.947818	0.796887	-1.172849	-0.114837	0.157229	0.106829
0.790	7.357841	-2.317841	744.390263	0.631901	-2.193110	-0.086548	0.294618	0.084888
0.800	8.220992	-2.502213	743.111232	0.484476	-3.188571	-0.064841	0.429084	0.065196
0.810	9.060156	-2.687920	742.056066	0.357731	-4.149361	-0.051607	0.559171	0.048208
0.820	9.867536	-2.881728	741.165788	0.252135	-5.066078	-0.047206	0.683528	0.034019
0.830	10.634225	-3.085066	740.399407	0.165924	-5.930851	-0.050175	0.801034	0.022410
0.840	11.350833	-3.292329	739.741234	0.095985	-6.737848	-0.057635	0.910839	0.012975
0.850	12.009412	-3.492113	739.196474	0.038966	-7.483175	-0.066265	1.012339	0.005271
0.860	12.605674	-3.671285	738.780914	-0.007675	-8.164396	-0.073368	1.105117	-0.001039
0.870	13.140365	-3.820235	738.509177	-0.044925	-8.780004	-0.077551	1.188882	-0.006083
0.880	13.619024	-3.936667	738.384023	-0.071750	-9.328945	-0.078727	1.263427	-0.009717
0.890	14.049980	-4.025849	738.388542	-0.084896	-9.810152	-0.077588	1.328589	-0.011497
0.900	14.441216	-4.097154	738.483236	-0.079130	-10.222032	-0.074913	1.384193	-0.010715
0.910	14.797325	-4.158746	738.609974	-0.048230	-10.562038	-0.071154	1.429989	-0.006530
0.920	15.117691	-4.212996	738.703675	0.013191	-10.826640	-0.066481	1.465627	0.001786
0.930	15.396246	-4.254561	738.709533	0.107481	-11.011903	-0.061134	1.490695	0.014550
0.940	15.622007	-4.271603	738.600064	0.232348	-11.114546	-0.055760	1.504813	0.031458
0.950	15.779341	-4.249290	738.385329	0.380711	-11.133018	-0.051481	1.507752	0.051560
0.960	15.847898	-4.174216	738.112856	0.542285	-11.068155	-0.049680	1.499521	0.073469
0.970	15.803507	-4.038594	737.859122	0.706258	-10.923321	-0.051619	1.480407	0.095717
0.980	15.621412	-3.843614	737.718142	0.863959	-10.704206	-0.058063	1.450989	0.117112
0.990	15.281969	-3.601576	737.792343	1.010503	-10.418558	-0.069032	1.412126	0.136963
1.000	14.777255	-3.336342	738.186680	1.144934	-10.075989	-0.083720	1.364965	0.155101
1.010	14.115954	-3.081349	739.001865	1.269099	-9.687755	-0.100563	1.310924	0.171731
1.020	13.323993	-2.874525	740.320377	1.386026	-9.266289	-0.117408	1.251659	0.187220
1.030	12.440014	-2.750189	742.182468	1.498675	-8.824401	-0.131834	1.188980	0.201928
1.040	11.507304	-2.729430	744.557712	1.609568	-8.374324	-0.141614	1.124738	0.216178
1.050	10.565755	-2.811838	747.325399	1.721299	-7.926951	-0.145302	1.060709	0.230328
1.060	9.647206	-2.971941	750.278107	1.837461	-7.491527	-0.142762	0.998500	0.244904
1.070	8.775430	-3.162656	753.154833	1.963297	-7.075828	-0.135442	0.939492	0.260676
1.080	7.969701	-3.325769	755.696931	2.105574	-6.686678	-0.126225	0.884836	0.278627
1.090	7.249605	-3.406605	757.708836	2.271668	-6.330555	-0.118815	0.835487	0.299808
1.100	6.638485	-3.368236	759.102313	2.468277	-6.014059	-0.116812	0.792259	0.325157
1.110	6.163427	-3.200449	759.909051	2.700235	-5.744120	-0.122807	0.755896	0.355337
1.120	5.851150	-2.920467	760.258218	2.969744	-5.527933	-0.137825	0.727113	0.390623
1.130	5.721225	-2.565283	760.327670	3.276194	-5.372512	-0.161200	0.706605	0.430892
1.140	5.779440	-2.178430	760.285365	3.616535	-5.283699	-0.190773	0.694963	0.475681
1.150	6.013766	-1.795890	760.239221	3.986015	-5.264633	-0.223229	0.692497	0.524311
1.160	6.393820	-1.435930	760.209488	4.379043	-5.314142	-0.254518	0.699037	0.576031
1.170	6.873688	-1.096034	760.130117	4.790077	-5.425855	-0.280406	0.713806	0.630165
1.180	7.397958	-0.757365	759.876915	5.214399	-5.588678	-0.297192	0.735471	0.686216
1.190	7.910763	-0.394496	759.312616	5.648515	-5.788620	-0.302514	0.762350	0.743898
1.200	8.366507	0.013429	758.334014	6.089955	-6.011285	-0.295995	0.792696	0.803070
1.210	8.739310	0.473882	756.905852	6.536484	-6.244028	-0.279380	0.824941	0.863580
1.220	9.027571	0.976927	755.071096	6.985090	-6.477011	-0.256068	0.857801	0.925090
1.230	9.251483	1.496605	752.936405	7.431165	-6.703028	-0.230214	0.890252	0.986958
1.240	9.444141	1.996885	750.640945	7.868158	-6.916624	-0.205784	0.921429	1.048192
1.250	9.639440	2.440429	748.321707	8.287700	-7.113227	-0.185879	0.950557	1.107505
1.260	9.860939	2.797870	746.087145	8.680132	-7.288684	-0.172419	0.976921	1.163421
1.270	10.115109	3.055051	744.005193	9.035515	-7.439071	-0.166143	0.999868	1.214442
1.280	10.390586	3.215932	742.105634	9.345072	-7.560465	-0.166776	1.018786	1.259264
1.290	10.662765	3.300038	740.392607	9.602687	-7.648549	-0.173272	1.033040	1.296972
1.300	10.901371	3.335329	738.861419	9.805829	-7.698294	-0.184044	1.041913	1.327154
1.310	11.078103	3.349315	737.514279	9.955585	-7.704035	-0.197160	1.044595	1.349884
1.320	11.172225	3.361713	736.371404	10.056079	-7.660158	-0.210597	1.040257	1.365626
1.330	11.173312	3.380674	735.475897	10.113780	-7.562220	-0.222594	1.028208	1.375134
1.340	11.081544	3.402807	734.891985	10.136895	-7.407992	-0.232070	1.008038	1.379372
1.350	10.906402	3.416175	734.696619	10.134542	-7.197928	-0.238917	0.979714	1.379419
1.360	10.664315	3.405142	734.964586	10.115472	-6.934928	-0.244041	0.943573	1.376321
1.370	10.375178	3.355754	735.748630	10.086494	-6.623669	-0.249086	0.900263	1.370916
1.380	10.057715	3.260202	737.059452	10.051098	-6.269920	-0.255910	0.850667	1.363675
1.390	9.724614	3.119226	738.853218	10.008660	-5.879948	-0.265912	0.795821	1.354621
1.400	9.379246	2.942050	741.032631	9.954388	-5.459942	-0.279434	0.736802	1.343313
1.410	9.015464	2.744068	743.461192	9.879996	-5.015394	-0.295426	0.674601	1.328919
1.420	8.620824	2.542961	745.984171	9.775076	-4.550706	-0.311544	0.610027	1.310360
1.430	8.182262	2.354252	748.448984	9.629150	-4.069351	-0.324711	0.543705	1.286547
1.440	7.692432	2.187595	750.721255	9.434229	-3.574613	-0.332019	0.476157	1.256689
1.450	7.154720	2.044899	752.695909	9.187305	-3.070517	-0.331692	0.407936	1.220586
1.460	6.585372	1.920705	754.303313	8.891996	-2.562426	-0.323756	0.339708	1.178836
1.470	6.012101	1.804228	755.510106	8.558653	-2.057044	-0.310166	0.272272	1.132831
1.480	5.469337	1.681939	756.314772	8.202698	-1.561850	-0.294328	0.206508	1.084561
1.490	4.990931	1.539807	756.739441	7.841564	-1.084134	-0.280194	0.143264	1.036230
1.500	4.601711	1.365123	756.821224	7.491193	-0.629932	-0.271245	0.083234	0.989823
1.510	4.310143	1.148458	756.606856	7.163341	-0.203293	-0.269661	0.026869	0.946772
1.520	4.105160	0.885980	756.152162	6.864617	0.193744	-0.275919	-0.025622	0.907835
1.530	3.959749	0.581569	755.524217	6.597318	0.560438	-0.288878	-0.074179	0.873211
1.540	3.841342	0.247644	754.801633	6.361230	0.896374	-0.306237	-0.118756	0.842768
1.550	3.725389	-0.096110	754.068754	6.155350	1.200824	-0.325156	-0.159246	0.816285
1.560	3.605903	-0.425981	753.402440	5.978862	1.472799	-0.342811	-0.195486	0.793581
1.570	3.497446	-0.718422	752.854215	5.831236	1.711711	-0.356736	-0.227363	0.774550
1.580	3.427116	-0.953930	752.434664	5.711621	1.918314	-0.365050	-0.254948	0.759085
1.590	3.420338	-1.119601	752.108813	5.617851	2.095531	-0.366735	-0.278621	0.746947
1.600	3.487483	-1.210007	751.808140	5.545561	2.248754	-0.362075	-0.299113	0.737630
1.610	3.617563	-1.226704	751.456813	5.487996	2.385308	-0.353013	-0.317425	0.730314
1.620	3.781382	-1.177161	751.001210	5.436808	2.513159	-0.343049	-0.334641	0.723941
1.630	3.942056	-1.073623	750.429108	5.383632	2.639366	-0.336438	-0.351714	0.717407
1.640	4.067907	-0.931913	749.770885	5.321784	2.768954	-0.336876	-0.369307	0.709788
1.650	4.142176	-0.769900	749.085224	5.247385	2.904518	-0.346194	-0.387742	0.700506
1.660	4.165882	-0.605565	748.438803	5.159557	3.046512	-0.363673	-0.407049	0.689376
1.670	4.153379	-0.454935	747.889425	5.059803	3.193958	-0.386306	-0.427063	0.676544
1.680	4.123406	-0.330425	747.477286	4.950914	3.345321	-0.409967	-0.447548	0.662350
1.690	4.090190	-0.240055	747.223603	4.835835	3.499294	-0.430985	-0.468306	0.647174
1.700	4.058596	-0.187639	747.132839	4.716700	3.655231	-0.447457	-0.489234	0.631307
1.710	4.024849	-0.173723	747.195298	4.594224	3.813162	-0.459719	-0.510330	0.614863
1.720	3.981429	-0.196822	747.389521	4.467624	3.973514	-0.469816	-0.531652	0.597764
1.730	3.922934	-0.254393	747.685684	4.335154	4.136777	-0.480234	-0.553277	0.579810
1.740	3.849779	-0.342994	748.050390	4.194921	4.303312	-0.492570	-0.575270	0.560781
1.750	3.768273	-0.457381	748.451568	4.045313	4.473299	-0.506744	-0.597674	0.540491
1.760	3.687637	-0.589140	748.862003	3.884536	4.646609	-0.521055	-0.620489	0.518725
1.770	3.616096	-0.726383	749.261029	3.709583	4.822510	-0.532948	-0.643635	0.495099
1.780	3.558509	-0.855892	749.634805	3.515500	4.999308	-0.540071	-0.666899	0.468962
1.790	3.516916	-0.967503	749.975899	3.295802	5.174219	-0.541191	-0.689918	0.439454
1.800	3.493204	-1.058621	750.282630	3.044197	5.343735	-0.536614	-0.712230	0.405740
1.810	3.491391	-1.136206	750.557699	2.756993	5.504538	-0.527986	-0.733393	0.367326
1.820	3.517228	-1.214858	750.804980	2.435083	5.654734	-0.517577	-0.753156	0.324330
1.830	3.574665	-1.311841	751.024117	2.084508	5.794933	-0.507371	-0.771604	0.277555
1.840	3.660932	-1.441536	751.204581	1.715240	5.928749	-0.498337	-0.789232	0.228332
1.850	3.763099	-1.611968	751.322205	1.338550	6.062482	-0.490106	-0.806908	0.178159
1.860	3.858510	-1.824589	751.340731	0.963903	6.204067	-0.481061	-0.825733	0.128291
1.870	3.919591	-2.076361	751.219044	0.596464	6.361610	-0.468715	-0.846838	0.079399
1.880	3.921125	-2.361909	750.922419	0.236167	6.541988	-0.450311	-0.871194	0.031450
1.890	3.846431	-2.673904	750.433750	-0.121338	6.749936	-0.423553	-0.899471	-0.016169
1.900	3.689539	-3.001695	749.759829	-0.482238	6.987880	-0.387350	-0.932016	-0.064319
1.910	3.453068	-3.329951	748.929880	-0.851594	7.256350	-0.342304	-0.968896	-0.113708
1.920	3.144168	-3.639551	747.987862	-1.230913	7.554620	-0.290753	-1.009992	-0.164563
1.930	2.771643	-3.911530	746.983397	-1.617009	7.881342	-0.236321	-1.055089	-0.216472
1.940	2.345816	-4.132674	745.966262	-2.002410	8.235035	-0.183074	-1.103942	-0.268432
1.950	1.880054	-4.299920	744.986678	-2.377115	8.614350	-0.134583	-1.156309	-0.319082
1.960	1.391333	-4.421383	744.099570	-2.731164	9.017998	-0.093266	-1.211934	-0.367043
1.970	0.897836	-4.513785	743.367925	-3.057232	9.444417	-0.060245	-1.270490	-0.411268
1.980	0.413835	-4.597708	742.860511	-3.352373	9.891397	-0.035626	-1.331528	-0.451279
1.990	-0.055506	-4.692528	742.643357	-3.618318	10.355849	-0.018894	-1.394458	-0.487221
2.000	-0.515835	-4.812454	742.769609	-3.860300	10.833646	-0.009163	-1.458547	-0.519717
2.010	-0.979708	-4.964556	743.273471	-4.084916	11.319390	-0.005258	-1.522911	-0.549584
2.020	-1.458251	-5.149000	744.169238	-4.297806	11.806146	-0.005708	-1.586487	-0.577531
2.030	-1.952739	-5.361029	745.450877	-4.501939	12.285383	-0.008799	-1.648047	-0.603922
2.040	-2.450957	-5.593723	747.087392	-4.697026	12.747347	-0.012722	-1.706273	-0.628712
2.050	-2.930292	-5.840462	749.014384	-4.880180	13.181824	-0.015833	-1.759889	-0.651547
2.060	-3.365465	-6.096012	751.127633	-5.047416	13.579054	-0.017016	-1.807822	-0.671978
2.070	-3.736505	-6.355563	753.285672	-5.195314	13.930521	-0.016051	-1.849301	-0.689687
2.080	-4.033165	-6.612024	755.325633	-5.322046	14.229377	-0.013831	-1.883873	-0.704603
2.090	-4.254358	-6.853213	757.091677	-5.427267	14.470372	-0.012267	-1.911310	-0.716857
2.100	-4.403677	-7.061071	758.469227	-5.510909	14.649266	-0.013837	-1.931425	-0.726583
2.110	-4.483489	-7.214013	759.413045	-5.571557	14.761989	-0.020928	-1.943868	-0.733666
2.120	-4.490206	-7.291558	759.956846	-5.605304	14.803977	-0.035271	-1.948002	-0.737582
2.130	-4.412594	-7.279155	760.198582	-5.605782	14.770164	-0.057648	-1.942935	-0.737410
2.140	-4.233955	-7.171518	760.265452	-5.565422	14.655906	-0.087921	-1.927735	-0.732037
2.150	-3.937792	-6.973957	760.270660	-5.477492	14.458646	-0.125198	-1.901776	-0.720466
2.160	-3.515168	-6.701891	760.276385	-5.338201	14.179648	-0.167973	-1.865065	-0.702140
2.170	-2.970916	-6.378665	760.274702	-5.148108	13.824883	-0.214235	-1.818406	-0.677138
2.180	-2.326065	-6.031715	760.192329	-4.912317	13.404491	-0.261659	-1.763303	-0.646194
2.190	-1.615330	-5.687590	759.918058	-4.639317	12.930937	-0.307957	-1.701623	-0.610502
2.200	-0.880650	-5.366934	759.344759	-4.338835	12.416646	-0.351336	-1.635179	-0.571392
2.210	-0.163161	-5.080657	758.412657	-4.019448	11.872019	-0.390926	-1.565377	-0.529982
2.220	0.503719	-4.828086	757.138996	-3.686796	11.304401	-0.426997	-1.493042	-0.486938
2.230	1.098287	-4.597418	755.623142	-3.343089	10.718093	-0.460784	-1.418444	-0.442428
2.240	1.611401	-4.368559	754.024805	-2.988034	10.115148	-0.493902	-1.341487	-0.396278
2.250	2.045328	-4.117954	752.522670	-2.620718	9.496629	-0.527560	-1.261972	-0.348258
2.260	2.411884	-3.824408	751.266761	-2.241507	8.863997	-0.561903	-1.179873	-0.298364
2.270	2.730197	-3.474516	750.338631	-1.853224	8.220221	-0.595712	-1.095535	-0.246985
2.280	3.023438	-3.066361	749.730496	-1.461321	7.570310	-0.626583	-1.009737	-0.194913
2.290	3.314362	-2.610433	749.349217	-1.073141	6.921190	-0.651494	-0.923627	-0.143210
2.300	3.620763	-2.127268	749.044106	-0.696519	6.281109	-0.667643	-0.838550	-0.092988
2.310	3.952599	-1.642509	748.650204	-0.338064	5.658862	-0.673239	-0.755875	-0.045156
2.320	4.311868	-1.181272	748.033391	-0.001681	5.063039	-0.667968	-0.676847	-0.000225
2.330	4.694973	-0.763832	747.123328	0.312097	4.501374	-0.652989	-0.602494	0.041773
2.340	5.096132	-0.403577	745.925117	0.605724	3.980258	-0.630586	-0.533600	0.081204
2.350	5.509811	-0.106952	744.509034	0.883395	3.504509	-0.603729	-0.470714	0.118655
2.360	5.930648	0.125402	742.985478	1.149333	3.077441	-0.575675	-0.414199	0.154691
