Time[s]	Fx[N]	Fy[N]	Fz[N]	Mx[Nm]	My[Nm]	Mz[Nm]	COPx[cm]	COPy[cm]
0.010	2.656487	-4.203578	513.443304	5.895804	7.973596	0.318323	-1.552965	1.148287
0.020	2.643685	-4.046383	513.531509	5.964608	7.949486	0.329182	-1.548004	1.161488
0.030	2.638963	-3.904132	513.547709	6.030783	7.924763	0.338755	-1.543140	1.174337
0.040	2.644689	-3.789560	513.450930	6.091546	7.899638	0.346178	-1.538538	1.186393
0.050	2.656190	-3.711488	513.247556	6.144372	7.875641	0.351093	-1.534472	1.197156
0.060	2.662613	-3.673755	512.990255	6.187219	7.855639	0.353585	-1.531343	1.206109
0.070	2.650895	-3.674926	512.758748	6.218975	7.843163	0.353984	-1.529601	1.212846
0.080	2.611200	-3.708535	512.631005	6.240080	7.841177	0.352620	-1.529595	1.217265
0.090	2.541527	-3.763646	512.657068	6.253026	7.850775	0.349628	-1.531389	1.219729
0.100	2.449723	-3.825970	512.845087	6.262334	7.870405	0.344822	-1.534655	1.221097
0.110	2.352259	-3.880014	513.162558	6.273886	7.896028	0.337755	-1.538699	1.222592
0.120	2.270331	-3.912213	513.549243	6.293720	7.922127	0.327973	-1.542623	1.225534
0.130	2.224473	-3.914052	513.934852	6.326564	7.943102	0.315399	-1.545546	1.231005
0.140	2.228994	-3.883771	514.255105	6.374399	7.954500	0.300646	-1.546800	1.239540
0.150	2.287325	-3.825885	514.462959	6.435500	7.953820	0.285031	-1.546043	1.250916
0.160	2.389468	-3.748950	514.535038	6.504468	7.940872	0.270266	-1.543310	1.264145
0.170	2.512884	-3.662779	514.474120	6.573548	7.917755	0.257940	-1.539000	1.277722
0.180	2.627585	-3.576389	514.307508	6.634872	7.888415	0.249016	-1.533793	1.290059
0.190	2.704496	-3.497345	514.080761	6.682703	7.857793	0.243554	-1.528513	1.299933
0.200	2.724266	-3.432085	513.847469	6.714705	7.830711	0.240739	-1.523937	1.306751
0.210	2.683144	-3.386121	513.656857	6.731774	7.810798	0.239210	-1.520626	1.310559
0.220	2.593823	-3.363260	513.541762	6.736772	7.799724	0.237545	-1.518810	1.311826
0.230	2.481206	-3.364141	513.510584	6.732897	7.796888	0.234703	-1.518350	1.311151
0.240	2.374749	-3.385257	513.547081	6.722366	7.799550	0.230289	-1.518761	1.309007
0.250	2.300026	-3.419401	513.619367	6.705765	7.803426	0.224598	-1.519301	1.305590
0.260	2.272401	-3.457591	513.694364	6.682201	7.803722	0.218471	-1.519137	1.300813
0.270	2.294897	-3.491681	513.750263	6.650185	7.796382	0.213027	-1.517543	1.294439
0.280	2.360463	-3.516668	513.780813	6.608934	7.779091	0.209321	-1.514087	1.286333
0.290	2.456890	-3.531874	513.790879	6.559526	7.751546	0.208041	-1.508697	1.276692
0.300	2.571535	-3.540642	513.787932	6.505300	7.714938	0.209366	-1.501580	1.266145
0.310	2.693679	-3.548720	513.775227	6.451291	7.671080	0.213015	-1.493081	1.255664
0.320	2.814200	-3.562044	513.749935	6.402856	7.621807	0.218419	-1.483564	1.246298
0.330	2.924151	-3.584785	513.706283	6.364058	7.569003	0.224950	-1.473411	1.238852
0.340	3.014233	-3.618163	513.641225	6.336367	7.515040	0.232206	-1.463091	1.233617
0.350	3.075934	-3.659957	513.559062	6.318182	7.463149	0.240240	-1.453221	1.230274
0.360	3.103521	-3.704522	513.472124	6.305344	7.417308	0.249569	-1.444540	1.227982
0.370	3.095437	-3.743548	513.397017	6.292464	7.381631	0.260840	-1.437802	1.225653
0.380	3.054411	-3.768047	513.348520	6.274614	7.359448	0.274317	-1.433616	1.222291
0.390	2.986699	-3.771529	513.334553	6.248789	7.352336	0.289478	-1.432270	1.217294
0.400	2.901343	-3.753372	513.354682	6.214634	7.359354	0.304977	-1.433581	1.210593
0.410	2.809641	-3.720665	513.402347	6.174297	7.376787	0.318987	-1.436843	1.202623
0.420	2.724183	-3.687107	513.468768	6.131537	7.398717	0.329765	-1.440928	1.194140
0.430	2.656748	-3.668798	513.545887	6.090478	7.418448	0.336206	-1.444554	1.185966
0.440	2.615442	-3.678481	513.626869	6.054309	7.430417	0.338161	-1.446657	1.178737
0.450	2.602547	-3.720640	513.704557	6.024220	7.431904	0.336438	-1.446727	1.172701
0.460	2.614416	-3.789520	513.770115	5.998862	7.423816	0.332501	-1.444968	1.167616
0.470	2.643493	-3.870816	513.814410	5.974610	7.410226	0.327956	-1.442199	1.162795
0.480	2.681226	-3.946303	513.832443	5.946634	7.396971	0.323968	-1.439569	1.157310
0.490	2.720361	-3.999629	513.827615	5.910337	7.389991	0.320840	-1.438224	1.150257
0.500	2.755764	-4.021188	513.811657	5.862644	7.394028	0.317997	-1.439054	1.141010
0.510	2.783973	-4.010546	513.799428	5.802811	7.411894	0.314446	-1.442566	1.129392
0.520	2.802384	-3.975939	513.802048	5.732700	7.444286	0.309487	-1.448863	1.115741
0.530	2.809022	-3.931363	513.822803	5.656383	7.490004	0.303245	-1.457702	1.100843
0.540	2.803239	-3.892494	513.857607	5.579028	7.546403	0.296721	-1.468579	1.085715
0.550	2.786987	-3.872855	513.898516	5.505380	7.609822	0.291380	-1.480803	1.071297
0.560	2.765718	-3.881356	513.937349	5.438440	7.675852	0.288576	-1.493538	1.058191
0.570	2.747813	-3.921597	513.967630	5.378955	7.739533	0.289165	-1.505840	1.046555
0.580	2.742074	-3.992576	513.985059	5.325844	7.795858	0.293428	-1.516748	1.036186
0.590	2.753931	-4.090092	513.988012	5.277183	7.840862	0.301204	-1.525495	1.026713
0.600	2.782213	-4.207982	513.979035	5.231194	7.873071	0.312055	-1.531788	1.017784
0.610	2.818453	-4.338466	513.966556	5.186848	7.894566	0.325386	-1.536008	1.009180
0.620	2.849615	-4.471512	513.964454	5.143963	7.910810	0.340486	-1.539174	1.000840
0.630	2.863153	-4.594303	513.987516	5.102824	7.929036	0.356487	-1.542652	0.992791
0.640	2.851886	-4.692452	514.043239	5.063491	7.955856	0.372269	-1.547702	0.985032
0.650	2.816366	-4.753681	514.123544	5.025023	7.995136	0.386375	-1.555100	0.977396
0.660	2.763944	-4.772820	514.201724	4.984950	8.047023	0.397085	-1.564955	0.969454
0.670	2.705481	-4.755659	514.238458	4.939279	8.108291	0.402713	-1.576757	0.960504
0.680	2.651407	-4.719387	514.196020	4.883257	8.173636	0.402080	-1.589595	0.949688
0.690	2.608551	-4.688731	514.054649	4.812764	8.237301	0.394991	-1.602417	0.936236
0.700	2.578443	-4.688706	513.822899	4.726015	8.294570	0.382504	-1.614286	0.919775
0.710	2.557216	-4.736418	513.536551	4.625052	8.342972	0.366820	-1.624611	0.900628
0.720	2.536792	-4.834889	513.246641	4.516355	8.383096	0.350803	-1.633347	0.879958
0.730	2.507043	-4.971277	513.002631	4.409935	8.418847	0.337259	-1.641092	0.859632
0.740	2.458563	-5.120140	512.838508	4.316853	8.456786	0.328213	-1.649015	0.841757
0.750	2.385468	-5.250612	512.767030	4.246000	8.504396	0.324383	-1.658530	0.828056
0.760	2.287254	-5.335261	512.782603	4.201495	8.567620	0.325046	-1.670809	0.819352
0.770	2.168937	-5.358124	512.869247	4.181761	8.648613	0.328366	-1.686319	0.815366
0.780	2.039521	-5.319652	513.008508	4.180535	8.744734	0.332109	-1.704598	0.814906
0.790	1.909539	-5.236800	513.183277	4.189347	8.849208	0.334422	-1.724376	0.816345
0.800	1.788648	-5.137749	513.376784	4.200563	8.953114	0.334340	-1.743966	0.818222
0.810	1.684065	-5.052599	513.569646	4.209995	9.047819	0.331884	-1.761751	0.819751
0.820	1.600210	-5.003094	513.739103	4.218199	9.127026	0.327815	-1.776588	0.821078
0.830	1.539302	-4.995119	513.862432	4.230063	9.187913	0.323235	-1.788010	0.823190
0.840	1.502198	-5.016905	513.923215	4.252848	9.231191	0.319193	-1.796220	0.827526
0.850	1.488838	-5.043821	513.917510	4.293462	9.260233	0.316398	-1.801891	0.835438
0.860	1.498084	-5.048063	513.857119	4.355953	9.279637	0.315067	-1.805879	0.847697
0.870	1.527157	-5.009525	513.767668	4.440023	9.293726	0.314885	-1.808936	0.864208
0.880	1.571249	-4.923434	513.680551	4.540922	9.305422	0.315105	-1.811519	0.883997
0.890	1.623914	-4.801636	513.621001	4.650653	9.315746	0.314753	-1.813739	0.905464
0.900	1.678380	-4.667211	513.598034	4.760075	9.324032	0.312913	-1.815434	0.926810
0.910	1.729063	-4.545169	513.602339	4.861259	9.328775	0.308967	-1.816342	0.946503
0.920	1.772266	-4.453490	513.613925	4.949368	9.328779	0.302713	-1.816302	0.963636
0.930	1.805680	-4.398119	513.615470	5.023495	9.324102	0.294336	-1.815386	0.978065
0.940	1.827484	-4.373349	513.603909	5.086206	9.316335	0.284297	-1.813914	0.990297
0.950	1.836262	-4.366572	513.593574	5.142009	9.308036	0.273222	-1.812335	1.001183
0.960	1.832128	-4.364586	513.608596	5.195456	9.301560	0.261845	-1.811021	1.011559
0.970	1.818175	-4.358334	513.668442	5.249692	9.297816	0.251005	-1.810081	1.022000
0.980	1.800747	-4.344251	513.774782	5.305930	9.295585	0.241636	-1.809272	1.032735
0.990	1.787818	-4.322660	513.907249	5.363774	9.291838	0.234718	-1.808077	1.043724
1.000	1.786146	-4.295071	514.030328	5.422031	9.283012	0.231106	-1.805927	1.054808
1.010	1.798680	-4.262232	514.107366	5.479630	9.266643	0.231278	-1.802472	1.065853
1.020	1.823429	-4.223616	514.114482	5.536362	9.242586	0.235115	-1.797768	1.076873
1.030	1.854054	-4.177963	514.048222	5.593187	9.213312	0.241837	-1.792305	1.088067
1.040	1.881900	-4.124269	513.924896	5.651970	9.183233	0.250180	-1.786882	1.099766
1.050	1.898924	-4.062866	513.773677	5.714765	9.157339	0.258761	-1.782368	1.112312
1.060	1.900829	-3.996334	513.627345	5.783008	9.139572	0.266504	-1.779417	1.125915
1.070	1.889349	-3.929817	513.513694	5.857022	9.131348	0.272973	-1.778209	1.140578
1.080	1.872537	-3.870284	513.448995	5.936132	9.130569	0.278455	-1.778282	1.156129
1.090	1.862340	-3.824661	513.434241	6.019261	9.131493	0.283734	-1.778513	1.172353
1.100	1.869972	-3.797418	513.455100	6.105556	9.125791	0.289649	-1.777330	1.189112
1.110	1.901020	-3.788489	513.486268	6.194570	9.104798	0.296715	-1.773134	1.206375
1.120	1.952771	-3.792477	513.499563	6.285907	9.062267	0.304997	-1.764805	1.224131
1.130	2.015121	-3.799718	513.473360	6.378602	8.996475	0.314234	-1.752082	1.242246
1.140	2.074382	-3.799098	513.400228	6.470696	8.910745	0.324005	-1.735633	1.260361
1.150	2.117943	-3.781649	513.290319	6.559295	8.812255	0.333779	-1.716817	1.277892
1.160	2.137906	-3.743497	513.169721	6.641099	8.709812	0.342892	-1.697258	1.294133
1.170	2.133051	-3.687076	513.074359	6.713137	8.611550	0.350558	-1.678422	1.308414
1.180	2.109382	-3.620467	513.040781	6.773379	8.523170	0.355978	-1.661304	1.320242
1.190	2.079600	-3.555510	513.096157	6.821115	8.446828	0.358525	-1.646247	1.329403
1.200	2.061424	-3.505432	513.250584	6.857045	8.380606	0.357942	-1.632849	1.336003
1.210	2.074598	-3.482327	513.493934	6.883093	8.318681	0.354465	-1.620016	1.340443
1.220	2.136640	-3.494388	513.797217	6.901976	8.252549	0.348791	-1.606188	1.343327
1.230	2.257791	-3.543091	514.117298	6.916648	8.173379	0.341842	-1.589789	1.345344
1.240	2.436231	-3.621358	514.404349	6.929715	8.075051	0.334403	-1.569787	1.347134
1.250	2.655350	-3.714209	514.611852	6.943002	7.956817	0.326787	-1.546178	1.349172
1.260	2.885191	-3.802588	514.707689	6.957418	7.824427	0.318728	-1.520169	1.351722
1.270	3.088985	-3.869223	514.682829	6.973165	7.689023	0.309604	-1.493934	1.354847
1.280	3.233245	-3.903884	514.553572	6.990106	7.564012	0.298875	-1.470015	1.358480
1.290	3.297715	-3.905561	514.355561	7.008085	7.461058	0.286501	-1.450564	1.362498
1.300	3.281243	-3.880895	514.131870	7.027055	7.386742	0.273116	-1.436741	1.366781
1.310	3.201353	-3.840213	513.920061	7.047050	7.341075	0.259963	-1.428447	1.371235
1.320	3.087882	-3.793466	513.742670	7.068123	7.318130	0.248633	-1.424474	1.375810
1.330	2.973306	-3.747754	513.603692	7.090324	7.308280	0.240721	-1.422942	1.380505
1.340	2.883327	-3.706755	513.492156	7.113706	7.301097	0.237437	-1.421852	1.385358
1.350	2.830784	-3.671400	513.392022	7.138209	7.288029	0.239278	-1.419584	1.390401
1.360	2.814387	-3.640909	513.294509	7.163425	7.264239	0.245881	-1.415219	1.395578
1.370	2.821986	-3.613543	513.206531	7.188402	7.229313	0.256174	-1.408656	1.400684
1.380	2.836658	-3.586876	513.150078	7.211771	7.186840	0.268727	-1.400534	1.405392
1.390	2.842967	-3.557951	513.152046	7.232295	7.143103	0.282135	-1.392005	1.409386
1.400	2.831143	-3.523964	513.229334	7.249651	7.105229	0.295235	-1.384416	1.412556
1.410	2.798278	-3.483726	513.376981	7.264996	7.079246	0.307164	-1.378957	1.415139
1.420	2.747252	-3.439288	513.566134	7.280840	7.068444	0.317377	-1.376345	1.417703
1.430	2.684799	-3.396571	513.753674	7.300004	7.072421	0.325727	-1.376617	1.420915
1.440	2.619784	-3.364133	513.898737	7.324005	7.087065	0.332537	-1.379078	1.425184
1.450	2.561958	-3.350115	513.977286	7.351783	7.105557	0.338568	-1.382465	1.430371
1.460	2.520634	-3.358515	513.987251	7.379674	7.120170	0.344785	-1.385282	1.435770
1.470	2.502706	-3.386635	513.942935	7.402697	7.124420	0.351981	-1.386228	1.440373
1.480	2.510220	-3.425235	513.863999	7.416364	7.114923	0.360440	-1.384593	1.443254
1.490	2.538753	-3.461734	513.766803	7.417961	7.092343	0.369794	-1.380459	1.443838
1.500	2.578005	-3.485152	513.662757	7.406782	7.061043	0.379152	-1.374646	1.441954
1.510	2.614967	-3.490565	513.562286	7.383516	7.027499	0.387392	-1.368383	1.437706
1.520	2.638484	-3.481083	513.478792	7.349372	6.998076	0.393489	-1.362875	1.431290
1.530	2.643212	-3.466628	513.427699	7.305533	6.977000	0.396740	-1.358906	1.422894
1.540	2.631335	-3.460270	513.420372	7.253214	6.965266	0.396839	-1.356640	1.412724
1.550	2.611594	-3.473651	513.457478	7.194254	6.960758	0.393839	-1.355664	1.401139
1.560	2.596214	-3.513127	513.527343	7.131769	6.959429	0.388026	-1.355221	1.388781
1.570	2.596808	-3.577692	513.611543	7.070359	6.957015	0.379757	-1.354529	1.376597
1.580	2.620470	-3.659159	513.694997	7.015524	6.950671	0.369336	-1.353074	1.365698
1.590	2.667263	-3.744432	513.774929	6.972449	6.939933	0.356998	-1.350773	1.357102
1.600	2.729887	-3.819141	513.863475	6.944570	6.926717	0.343025	-1.347968	1.351443
1.610	2.795522	-3.871468	513.981414	6.932403	6.914357	0.327940	-1.345254	1.348765
1.620	2.849138	-3.894927	514.144452	6.933041	6.906066	0.312591	-1.343215	1.348462
1.630	2.877232	-3.889285	514.347710	6.940688	6.903469	0.298060	-1.342179	1.349416
1.640	2.871020	-3.859653	514.556663	6.948224	6.905865	0.285432	-1.342100	1.350332
1.650	2.828255	-3.814499	514.711183	6.949279	6.910507	0.275573	-1.342599	1.350132
1.660	2.753318	-3.763609	514.743388	6.939898	6.913678	0.268996	-1.343131	1.348225
1.670	2.655908	-3.716723	514.602967	6.919080	6.911964	0.265826	-1.343165	1.344547
1.680	2.549176	-3.682804	514.279607	6.888259	6.903196	0.265863	-1.342304	1.339400
1.690	2.447936	-3.669296	513.812880	6.850334	6.886757	0.268716	-1.340324	1.333235
1.700	2.366897	-3.680847	513.285038	6.808868	6.863397	0.273950	-1.337151	1.326528
1.710	2.318452	-3.717781	512.799107	6.767639	6.834803	0.281123	-1.332842	1.319745
1.720	2.309996	-3.775373	512.450205	6.730264	6.803156	0.289739	-1.327574	1.313350
1.730	2.341549	-3.844735	512.299745	6.699621	6.770722	0.299182	-1.321633	1.307754
1.740	2.404816	-3.915219	512.360534	6.677111	6.739467	0.308750	-1.315376	1.303205
1.750	2.484458	-3.977455	512.597130	6.662198	6.710747	0.317771	-1.309166	1.299695
1.760	2.561659	-4.025961	512.940741	6.652593	6.685090	0.325706	-1.303287	1.296952
1.770	2.619324	-4.060384	513.312388	6.645013	6.662087	0.332171	-1.297862	1.294536
1.780	2.647442	-4.084835	513.644974	6.636143	6.640345	0.336897	-1.292789	1.291971
1.790	2.646611	-4.105595	513.896447	6.623467	6.617584	0.339714	-1.287727	1.288872
1.800	2.627943	-4.128324	514.051287	6.605747	6.590948	0.340597	-1.282158	1.285037
1.810	2.608924	-4.156058	514.113048	6.583064	6.557595	0.339759	-1.275516	1.280470
1.820	2.606729	-4.188636	514.094097	6.556422	6.515527	0.337706	-1.267380	1.275335
1.830	2.631763	-4.223333	514.008760	6.527122	6.464420	0.335180	-1.257648	1.269846
1.840	2.684111	-4.256071	513.872644	6.496243	6.406048	0.332952	-1.246622	1.264174
1.850	2.754258	-4.282751	513.706062	6.464431	6.344025	0.331555	-1.234952	1.258391
1.860	2.827534	-4.300480	513.536704	6.431958	6.282865	0.331123	-1.223450	1.252483
1.870	2.890163	-4.308528	513.398009	6.398939	6.226721	0.331453	-1.212845	1.246389
1.880	2.934231	-4.308856	513.323063	6.365605	6.178236	0.332243	-1.203576	1.240078
1.890	2.959521	-4.306051	513.336531	6.332582	6.137949	0.333338	-1.195697	1.233612
1.900	2.971694	-4.306418	513.447705	6.301087	6.104415	0.334823	-1.188907	1.227211
1.910	2.978042	-4.316062	513.647096	6.272886	6.074902	0.336933	-1.182700	1.221244
1.920	2.983167	-4.338367	513.907834	6.249906	6.046238	0.339862	-1.176522	1.216153
1.930	2.986933	-4.371957	514.191344	6.233604	6.015436	0.343554	-1.169883	1.212312
1.940	2.985682	-4.410312	514.454828	6.224353	5.979956	0.347574	-1.162387	1.209893
1.950	2.975899	-4.443431	514.657790	6.221215	5.937761	0.351136	-1.153730	1.208806
1.960	2.958115	-4.461026	514.766703	6.222277	5.887443	0.353324	-1.143711	1.208757
1.970	2.938686	-4.456102	514.758884	6.225446	5.828522	0.353457	-1.132282	1.209391
1.980	2.928356	-4.427677	514.626263	6.229261	5.761791	0.351436	-1.119607	1.210444
1.990	2.938409	-4.381553	514.377584	6.233280	5.689422	0.347883	-1.106079	1.211810
2.000	2.976339	-4.328643	514.036630	6.237905	5.614665	0.343991	-1.092270	1.213514
2.010	3.042887	-4.281276	513.636355	6.243884	5.541282	0.341166	-1.078834	1.215623
2.020	3.131316	-4.248905	513.212410	6.251882	5.472970	0.340608	-1.066414	1.218186
2.030	3.228954	-4.235057	512.800365	6.262357	5.412994	0.342916	-1.055575	1.221208
2.040	3.320492	-4.236838	512.437311	6.275711	5.364080	0.347819	-1.046778	1.224679
2.050	3.392050	-4.247038	512.163727	6.292471	5.328482	0.354151	-1.040386	1.228605
2.060	3.434664	-4.257633	512.020249	6.313246	5.308049	0.360152	-1.036687	1.233007
2.070	3.445941	-4.262937	512.037612	6.338309	5.304001	0.364024	-1.035862	1.237860
2.080	3.429431	-4.261096	512.223765	6.366999	5.316333	0.364535	-1.037893	1.243011
2.090	3.392350	-4.253595	512.555634	6.397332	5.343144	0.361429	-1.042451	1.248124
2.100	3.342901	-4.243480	512.981429	6.426263	5.380544	0.355482	-1.048877	1.252728
2.110	3.288151	-4.233519	513.433656	6.450648	5.423553	0.348212	-1.056330	1.256374
2.120	3.232879	-4.225243	513.847096	6.468518	5.467714	0.341390	-1.064074	1.258841
2.130	3.179449	-4.219174	514.174070	6.479995	5.510573	0.336522	-1.071733	1.260273
2.140	3.128659	-4.215813	514.391885	6.487387	5.552177	0.334482	-1.079367	1.261176
2.150	3.081206	-4.216502	514.501745	6.494434	5.594372	0.335290	-1.087338	1.262276
2.160	3.039024	-4.223321	514.521841	6.505003	5.639352	0.338088	-1.096037	1.264281
2.170	3.005501	-4.237904	514.478505	6.521724	5.688228	0.341352	-1.105630	1.267638
2.180	2.984202	-4.259861	514.398450	6.545068	5.740210	0.343353	-1.115907	1.272373
2.190	2.976720	-4.285875	514.303388	6.573191	5.792660	0.342774	-1.126312	1.278077
2.200	2.981008	-4.310182	514.207059	6.602524	5.842027	0.339263	-1.136123	1.284021
2.210	2.991246	-4.326380	514.114434	6.628789	5.885345	0.333686	-1.144754	1.289361
2.220	2.999299	-4.329760	514.023112	6.648146	5.921724	0.327933	-1.152035	1.293356
2.230	2.997012	-4.319114	513.926850	6.658309	5.953142	0.324294	-1.158364	1.295575
2.240	2.978394	-4.297345	513.820403	6.659466	5.984122	0.324599	-1.164633	1.296069
2.250	2.941219	-4.270602	513.703694	6.654725	6.020344	0.329478	-1.171949	1.295440
2.260	2.887895	-4.245920	513.582992	6.649659	6.066644	0.338061	-1.181239	1.294758
2.270	2.825298	-4.227990	513.468462	6.650783	6.125105	0.348259	-1.192888	1.295266
2.280	2.763169	-4.216679	513.370295	6.663416	6.193993	0.357521	-1.206535	1.297975
2.290	2.711108	-4.207087	513.296444	6.689825	6.268050	0.363727	-1.221136	1.303306
2.300	2.675080	-4.192468	513.252372	6.728500	6.340127	0.365839	-1.235285	1.310954
2.310	2.655064	-4.168268	513.240465	6.774807	6.403438	0.364050	-1.247649	1.320006
2.320	2.645301	-4.134772	513.257651	6.822638	6.453466	0.359464	-1.257354	1.329281
2.330	2.637191	-4.096904	513.293196	6.866361	6.488810	0.353545	-1.264153	1.337707
2.340	2.623223	-4.061485	513.330160	6.902332	6.510896	0.347641	-1.268364	1.344618
2.350	2.599834	-4.033601	513.351483	6.929510	6.523059	0.342733	-1.270681	1.349857
2.360	2.568046	-4.014096	513.347768	6.949191	6.529549	0.339434	-1.271954	1.353700
2.370	2.532183	-3.999680	513.322423	6.964149	6.534747	0.338108	-1.273030	1.356681
2.380	2.497781	-3.985614	513.291681	6.977554	6.542505	0.338942	-1.274617	1.359374
2.390	2.469929	-3.969241	513.279545	6.991947	6.555461	0.341879	-1.277172	1.362210
2.400	2.452679	-3.951923	513.309256	7.008578	6.574425	0.346454	-1.280792	1.365371
2.410	2.449308	-3.938099	513.393629	7.027254	6.598126	0.351717	-1.285198	1.368785
2.420	2.462443	-3.932210	513.527562	7.046663	6.623608	0.356385	-1.289825	1.372207
2.430	2.493265	-3.935618	513.686571	7.064990	6.647282	0.359193	-1.294035	1.375350
