Time[s]	Fx[N]	Fy[N]	Fz[N]	Mx[Nm]	My[Nm]	Mz[Nm]	COPx[cm]	COPy[cm]
0.010	5.957547	-1.758638	609.156906	5.231572	-3.660383	0.080842	0.600893	0.858822
0.020	5.720809	-1.621936	610.295808	5.349630	-3.479970	0.093036	0.570210	0.876564
0.030	5.486187	-1.516225	611.465705	5.467066	-3.304320	0.102142	0.540393	0.894092
0.040	5.255189	-1.461805	612.682878	5.584747	-3.137091	0.105686	0.512025	0.911523
0.050	5.027829	-1.459729	613.944179	5.706537	-2.980042	0.102235	0.485393	0.929488
0.060	4.802032	-1.490818	615.224126	5.839382	-2.832896	0.091642	0.460466	0.949147
0.070	4.574067	-1.520586	616.477318	5.992240	-2.693735	0.074986	0.436956	0.972013
0.080	4.340440	-1.508020	617.645329	6.174122	-2.559780	0.054245	0.414442	0.999623
0.090	4.100577	-1.415730	618.666098	6.391808	-2.428399	0.031814	0.392522	1.033160
0.100	3.858747	-1.219117	619.483607	6.647970	-2.298191	0.009979	0.370985	1.073147
0.110	3.623948	-0.912546	620.056053	6.940197	-2.169855	-0.009532	0.349945	1.119285
0.120	3.407687	-0.511197	620.361563	7.261104	-2.046471	-0.025785	0.329884	1.170463
0.130	3.220849	-0.048191	620.400956	7.599394	-1.932977	-0.038592	0.311569	1.224917
0.140	3.071076	0.432357	620.196997	7.941613	-1.834960	-0.048258	0.295867	1.280499
0.150	2.961414	0.884515	619.789902	8.274334	-1.757230	-0.055322	0.283520	1.335022
0.160	2.890157	1.269272	619.230569	8.586481	-1.702782	-0.060443	0.274984	1.386637
0.170	2.851670	1.560417	618.574660	8.871410	-1.672614	-0.064392	0.270398	1.434170
0.180	2.838117	1.746535	617.879715	9.127990	-1.666386	-0.068064	0.269694	1.477309
0.190	2.842034	1.829695	617.204251	9.359938	-1.683507	-0.072427	0.272763	1.516506
0.200	2.859258	1.822370	616.605706	9.573309	-1.723941	-0.078410	0.279586	1.552582
0.210	2.891117	1.743975	616.135164	9.773117	-1.788191	-0.086736	0.290227	1.586197
0.220	2.944514	1.617770	615.829604	9.960660	-1.876455	-0.097762	0.304704	1.617438
0.230	3.029206	1.468233	615.704292	10.132815	-1.987491	-0.111393	0.322800	1.645728
0.240	3.153050	1.318787	615.747942	10.283506	-2.117955	-0.127139	0.343965	1.670084
0.250	3.317316	1.189908	615.922102	10.406530	-2.262646	-0.144322	0.367359	1.689585
0.260	3.514365	1.097786	616.165536	10.498407	-2.415568	-0.162359	0.392032	1.703829
0.270	3.728846	1.053658	616.404310	10.560131	-2.571301	-0.181013	0.417145	1.713182
0.280	3.941854	1.063789	616.567243	10.597328	-2.726057	-0.200427	0.442135	1.718763
0.290	4.136090	1.129834	616.603153	10.618929	-2.877979	-0.220906	0.466747	1.722166
0.300	4.299937	1.249154	616.492961	10.634799	-3.026713	-0.242567	0.490957	1.725048
0.310	4.429257	1.414709	616.250113	10.652953	-3.172558	-0.265098	0.514817	1.728674
0.320	4.526948	1.614537	615.908066	10.677106	-3.315588	-0.287802	0.538325	1.733555
0.330	4.600793	1.831364	615.500560	10.705373	-3.455036	-0.309815	0.561338	1.739295
0.340	4.660304	2.043161	615.044222	10.730706	-3.589129	-0.330296	0.583556	1.744705
0.350	4.713521	2.225219	614.531776	10.743183	-3.715381	-0.348470	0.604587	1.748190
0.360	4.764955	2.353774	613.938932	10.733471	-3.831105	-0.363606	0.624021	1.748296
0.370	4.815289	2.410578	613.241587	10.696117	-3.933803	-0.375062	0.641477	1.744193
0.380	4.862454	2.387201	612.435227	10.631261	-4.021259	-0.382456	0.656602	1.735900
0.390	4.903227	2.287512	611.547783	10.544120	-4.091461	-0.385947	0.669034	1.724169
0.400	4.934915	2.127025	610.640554	10.442618	-4.142644	-0.386523	0.678410	1.710109
0.410	4.957067	1.928841	609.796891	10.334359	-4.173616	-0.386162	0.684427	1.694722
0.420	4.972805	1.717352	609.103085	10.224153	-4.184159	-0.387614	0.686938	1.678559
0.430	4.988893	1.511959	608.628573	10.112921	-4.175162	-0.393674	0.685995	1.661592
0.440	5.013822	1.323049	608.412120	9.998166	-4.148299	-0.406166	0.681824	1.643321
0.450	5.054150	1.151527	608.457187	9.875643	-4.105349	-0.425123	0.674715	1.623063
0.460	5.110392	0.991705	608.735592	9.741408	-4.047390	-0.448679	0.664885	1.600269
0.470	5.174204	0.836154	609.196290	9.593393	-3.974085	-0.473773	0.652349	1.574762
0.480	5.228417	0.680562	609.776447	9.431975	-3.883295	-0.497266	0.636839	1.546792
0.490	5.250646	0.526758	610.413529	9.259643	-3.771365	-0.516896	0.617838	1.516946
0.500	5.219749	0.382582	611.057527	9.080158	-3.634393	-0.531656	0.594771	1.485974
0.510	5.122894	0.258476	611.680647	8.897645	-3.470281	-0.541586	0.567335	1.454623
0.520	4.960451	0.162245	612.279921	8.715794	-3.280669	-0.547241	0.535812	1.423498
0.530	4.746667	0.094550	612.868820	8.537201	-3.071605	-0.549124	0.501185	1.392990
0.540	4.505499	0.047416	613.458550	8.362853	-2.852350	-0.547293	0.464962	1.363230
0.550	4.262593	0.006234	614.036420	8.191839	-2.632701	-0.541204	0.428753	1.334097
0.560	4.035905	-0.046034	614.553159	8.021452	-2.419983	-0.529766	0.393779	1.305249
0.570	3.828497	-0.124387	614.929282	7.847898	-2.217035	-0.511543	0.360535	1.276228
0.580	3.626647	-0.238584	615.082471	7.667738	-2.022032	-0.485075	0.328742	1.246620
0.590	3.404524	-0.391843	614.967600	7.479792	-1.830158	-0.449318	0.297602	1.216290
0.600	3.134099	-0.581320	614.613589	7.286810	-1.636327	-0.404220	0.266237	1.185592
0.610	2.796980	-0.799649	614.140445	7.096049	-1.437825	-0.351283	0.234120	1.155444
0.620	2.394098	-1.036521	613.746130	6.918293	-1.236035	-0.293848	0.201392	1.127224
0.630	1.949829	-1.279451	613.663526	6.765541	-1.036862	-0.236790	0.168963	1.102484
0.640	1.508815	-1.513603	614.098652	6.648097	-0.849838	-0.185576	0.138388	1.082578
0.650	1.125977	-1.721487	615.169078	6.571947	-0.686056	-0.144854	0.111523	1.068316
0.660	0.852325	-1.883809	616.863192	6.537182	-0.555394	-0.117084	0.090035	1.059746
0.670	0.720697	-1.982302	619.034223	6.537909	-0.463895	-0.101750	0.074938	1.056147
0.680	0.736137	-2.004040	621.430047	6.563707	-0.412274	-0.095587	0.066343	1.056226
0.690	0.874597	-1.945617	623.747164	6.602202	-0.396103	-0.093794	0.063504	1.058474
0.700	1.090871	-1.815526	625.690803	6.641896	-0.407500	-0.091773	0.065128	1.061530
0.710	1.332954	-1.633832	627.024910	6.674242	-0.437602	-0.086677	0.069790	1.064430
0.720	1.557306	-1.429095	627.602857	6.694226	-0.478939	-0.078116	0.076312	1.066634
0.730	1.739466	-1.233092	627.377181	6.699502	-0.527037	-0.067788	0.084006	1.067859
0.740	1.877137	-1.074510	626.391725	6.688941	-0.580942	-0.058363	0.092744	1.067853
0.750	1.986299	-0.973275	624.762135	6.661759	-0.642655	-0.052248	0.102864	1.066287
0.760	2.092931	-0.937132	622.651178	6.617799	-0.715745	-0.050733	0.114951	1.062842
0.770	2.223170	-0.961380	620.243910	6.558561	-0.803510	-0.053770	0.129547	1.057416
0.780	2.394254	-1.031628	617.725965	6.487962	-0.907207	-0.060309	0.146862	1.050298
0.790	2.608441	-1.128374	615.267145	6.412032	-1.024918	-0.068969	0.166581	1.042154
0.800	2.851889	-1.231556	613.011340	6.337370	-1.151465	-0.078693	0.187837	1.033810
0.810	3.099175	-1.323733	611.071931	6.269036	-1.279462	-0.089161	0.209380	1.025908
0.820	3.321813	-1.391828	609.530655	6.208862	-1.401183	-0.100826	0.229879	1.018630
0.830	3.497245	-1.428216	608.438193	6.154978	-1.510573	-0.114644	0.248271	1.011603
0.840	3.614805	-1.431671	607.815718	6.102633	-1.604652	-0.131574	0.264003	1.004027
0.850	3.676790	-1.407781	607.657673	6.045762	-1.683837	-0.152020	0.277103	0.994929
0.860	3.694914	-1.368092	607.936759	5.978540	-1.751201	-0.175416	0.288056	0.983415
0.870	3.684121	-1.327616	608.611285	5.896496	-1.811134	-0.200173	0.297585	0.968844
0.880	3.656632	-1.301234	609.632584	5.797132	-1.867977	-0.224052	0.306410	0.950922
0.890	3.618910	-1.300201	610.948623	5.680136	-1.925149	-0.244826	0.315108	0.929724
0.900	3.572593	-1.329995	612.501603	5.547160	-1.985025	-0.260924	0.324085	0.905656
0.910	3.518268	-1.390191	614.221114	5.401114	-2.049443	-0.271770	0.333665	0.879344
0.920	3.459525	-1.476243	616.017516	5.245148	-2.120412	-0.277713	0.344213	0.851461
0.930	3.404916	-1.582511	617.780828	5.081738	-2.200473	-0.279611	0.356190	0.822579
0.940	3.366890	-1.705412	619.388024	4.912249	-2.292435	-0.278355	0.370113	0.793081
0.950	3.358366	-1.845442	620.717576	4.737092	-2.398620	-0.274542	0.386427	0.763164
0.960	3.388595	-2.007149	621.666599	4.556225	-2.520012	-0.268459	0.405364	0.732905
0.970	3.460041	-2.196885	622.165272	4.369665	-2.655764	-0.260288	0.426858	0.702332
0.980	3.567404	-2.419192	622.185414	4.177747	-2.803345	-0.250403	0.450564	0.671463
0.990	3.699104	-2.673353	621.742976	3.981146	-2.959278	-0.239547	0.475965	0.640320
1.000	3.840716	-2.951486	620.895176	3.780773	-3.120150	-0.228796	0.502524	0.608923
1.010	3.979157	-3.238849	619.732203	3.577748	-3.283429	-0.219322	0.529814	0.577305
1.020	4.106106	-3.516136	618.363627	3.373658	-3.447757	-0.212066	0.557561	0.545578
1.030	4.219414	-3.763098	616.901872	3.171049	-3.612639	-0.207483	0.585610	0.514028
1.040	4.322227	-3.962605	615.446976	2.973836	-3.777642	-0.205448	0.613805	0.483199
1.050	4.420660	-4.104035	614.075990	2.787226	-3.941422	-0.205304	0.641846	0.453889
1.060	4.521333	-4.184930	612.837770	2.616932	-4.100966	-0.206009	0.669176	0.427019
1.070	4.629647	-4.210476	611.752843	2.467870	-4.251422	-0.206386	0.694957	0.403410
1.080	4.748905	-4.191382	610.818899	2.342864	-4.386618	-0.205482	0.718154	0.383561
1.090	4.879851	-4.141346	610.022412	2.241937	-4.500138	-0.202966	0.737700	0.367517
1.100	5.020321	-4.075017	609.353996	2.162601	-4.586615	-0.199433	0.752701	0.354901
1.110	5.165113	-4.006531	608.821448	2.101109	-4.642837	-0.196441	0.762594	0.345111
1.120	5.306599	-3.948231	608.453510	2.054171	-4.668300	-0.196139	0.767240	0.337605
1.130	5.436436	-3.909301	608.291292	2.020354	-4.665005	-0.200516	0.766903	0.332136
1.140	5.548159	-3.894555	608.371126	2.000532	-4.636624	-0.210532	0.762137	0.328834
1.150	5.639593	-3.903884	608.707621	1.997291	-4.587435	-0.225556	0.753635	0.328120
1.160	5.713839	-3.932649	609.284997	2.013653	-4.521424	-0.243437	0.742087	0.330494
1.170	5.778003	-3.972826	610.059165	2.051723	-4.441746	-0.261225	0.728084	0.336315
1.180	5.839786	-4.014416	610.966813	2.111792	-4.350418	-0.276191	0.712055	0.345648
1.190	5.903008	-4.046763	611.935302	2.192252	-4.248152	-0.286662	0.694216	0.358249
1.200	5.963776	-4.059707	612.889165	2.290359	-4.134299	-0.292350	0.674559	0.373699
1.210	6.009125	-4.044599	613.752703	2.403571	-4.007059	-0.294131	0.652878	0.391619
1.220	6.019194	-3.995196	614.451172	2.530944	-3.864005	-0.293463	0.628855	0.411903
1.230	5.972605	-3.908376	614.914565	2.673984	-3.702737	-0.291775	0.602155	0.434855
1.240	5.853127	-3.784474	615.087582	2.836525	-3.521302	-0.290040	0.572488	0.461158
1.250	5.655109	-3.626920	614.945860	3.023648	-3.318262	-0.288672	0.539602	0.491693
1.260	5.385832	-3.441001	614.513146	3.239994	-3.092779	-0.287631	0.503289	0.527246
1.270	5.064488	-3.231893	613.870061	3.488046	-2.845216	-0.286624	0.463488	0.568206
1.280	4.718775	-3.002660	613.146099	3.767009	-2.578241	-0.285247	0.420494	0.614374
1.290	4.380402	-2.753244	612.492979	4.072712	-2.297716	-0.283000	0.375142	0.664940
1.300	4.080247	-2.481218	612.046111	4.398589	-2.012407	-0.279218	0.328800	0.718670
1.310	3.843178	-2.184086	611.887448	4.737298	-1.732001	-0.273062	0.283059	0.774211
1.320	3.682459	-1.861902	612.024606	5.082286	-1.464014	-0.263720	0.239208	0.830405
1.330	3.594626	-1.518697	612.396309	5.428654	-1.211000	-0.250823	0.197748	0.886461
1.340	3.557021	-1.162061	612.903730	5.773140	-0.969605	-0.234871	0.158199	0.941933
1.350	3.530669	-0.801470	613.455614	6.113509	-0.732116	-0.217389	0.119343	0.996569
1.360	3.469801	-0.446747	614.008804	6.447856	-0.490028	-0.200645	0.079808	1.050124
1.370	3.336421	-0.107481	614.588279	6.774105	-0.238229	-0.186966	0.038762	1.102218
1.380	3.115261	0.206967	615.279342	7.089751	0.021818	-0.177886	-0.003546	1.152282
1.390	2.822979	0.487932	616.194137	7.391775	0.281212	-0.173459	-0.045637	1.199585
1.400	2.506678	0.728765	617.422784	7.676575	0.525497	-0.172084	-0.085111	1.243326
1.410	2.230695	0.926056	618.985463	7.939751	0.738704	-0.170997	-0.119341	1.282704
1.420	2.055560	1.079278	620.803628	8.175803	0.908041	-0.167270	-0.146269	1.316971
1.430	2.017062	1.188557	622.702405	8.378177	1.027466	-0.158916	-0.165001	1.345454
1.440	2.113922	1.251963	624.443543	8.540077	1.098873	-0.145610	-0.175976	1.367630
1.450	2.309166	1.264524	625.776556	8.655958	1.130624	-0.128731	-0.180675	1.383235
1.460	2.544354	1.220267	626.491548	8.723120	1.134271	-0.110767	-0.181051	1.392376
1.470	2.760423	1.116812	626.460362	8.742676	1.120892	-0.094458	-0.178925	1.395567
1.480	2.916661	0.960308	625.658548	8.719533	1.098432	-0.082070	-0.175564	1.393657
1.490	3.000882	0.767893	624.165723	8.661523	1.070757	-0.075024	-0.171550	1.387696
1.500	3.028283	0.565867	622.145776	8.578093	1.038373	-0.073827	-0.166902	1.378792
1.510	3.031153	0.383894	619.812010	8.478949	1.000138	-0.078168	-0.161362	1.367987
1.520	3.044552	0.247406	617.386093	8.372865	0.955175	-0.087153	-0.154713	1.356180
1.530	3.093546	0.171099	615.061690	8.266835	0.904293	-0.099638	-0.147025	1.344066
1.540	3.186079	0.155767	612.981708	8.165586	0.850567	-0.114562	-0.138759	1.332109
1.550	3.312945	0.189304	611.232289	8.071395	0.799107	-0.131167	-0.130737	1.320512
1.560	3.453543	0.251041	609.850444	7.984163	0.756281	-0.148997	-0.124011	1.309200
1.570	3.584121	0.317563	608.838693	7.901812	0.728752	-0.167701	-0.119695	1.297850
1.580	3.684950	0.368054	608.180225	7.820990	0.722558	-0.186769	-0.118807	1.285966
1.590	3.744324	0.387942	607.850866	7.737915	0.742277	-0.205378	-0.122115	1.272996
1.600	3.759262	0.370417	607.827397	7.649054	0.790285	-0.222458	-0.130018	1.258425
1.610	3.734182	0.315976	608.092999	7.551506	0.866208	-0.236969	-0.142447	1.241834
1.620	3.678805	0.230450	608.639333	7.443134	0.966765	-0.248212	-0.158840	1.222914
1.630	3.605781	0.122233	609.463434	7.322681	1.086136	-0.256000	-0.178212	1.201496
1.640	3.528115	-0.000545	610.558812	7.190115	1.216796	-0.260599	-0.199292	1.177629
1.650	3.456493	-0.132265	611.903616	7.047065	1.350620	-0.262483	-0.220724	1.151663
1.660	3.397023	-0.271140	613.450855	6.896860	1.480040	-0.262082	-0.241265	1.124273
1.670	3.350163	-0.419342	615.124229	6.743710	1.599123	-0.259660	-0.259968	1.096317
1.680	3.311558	-0.581757	616.820237	6.591253	1.704385	-0.255410	-0.276318	1.068586
1.690	3.274793	-0.763429	618.416200	6.441244	1.795114	-0.249645	-0.290276	1.041571
1.700	3.234922	-0.966351	619.784019	6.293135	1.873014	-0.242978	-0.302204	1.015376
1.710	3.191070	-1.186883	620.808095	6.144664	1.941262	-0.236376	-0.312699	0.989785
1.720	3.146871	-1.415165	621.403013	5.993022	2.003421	-0.231059	-0.322403	0.964434
1.730	3.108564	-1.637043	621.525497	5.836116	2.062685	-0.228213	-0.331875	0.938999
1.740	3.081588	-1.837716	621.177652	5.673556	2.121601	-0.228552	-0.341545	0.913355
1.750	3.067204	-2.005566	620.402797	5.507236	2.182076	-0.231901	-0.351719	0.887687
1.760	3.060721	-2.134874	619.277589	5.341332	2.245424	-0.237011	-0.362588	0.862510
1.770	3.052224	-2.226908	617.903366	5.181699	2.312453	-0.241790	-0.374242	0.838594
1.780	3.029625	-2.289383	616.397250	5.034771	2.383690	-0.243967	-0.386713	0.816806
1.790	2.982822	-2.334388	614.882274	4.906311	2.459775	-0.241969	-0.400040	0.797927
1.800	2.907210	-2.375106	613.476431	4.800336	2.541802	-0.235660	-0.414327	0.782481
1.810	2.805022	-2.422093	612.281977	4.718442	2.631338	-0.226562	-0.429759	0.770632
1.820	2.683892	-2.480287	611.376774	4.659587	2.730000	-0.217401	-0.446533	0.762147
1.830	2.553533	-2.547789	610.808923	4.620217	2.838748	-0.211120	-0.464752	0.756410
1.840	2.422368	-2.616867	610.595192	4.594598	2.957258	-0.209764	-0.484324	0.752479
1.850	2.295817	-2.676884	610.723349	4.575493	3.083722	-0.213677	-0.504929	0.749192
1.860	2.176677	-2.718095	611.158359	4.555487	3.215226	-0.221314	-0.526087	0.745386
1.870	2.066857	-2.735149	611.851564	4.528941	3.348464	-0.229721	-0.547267	0.740203
1.880	1.969093	-2.729390	612.750241	4.493935	3.480323	-0.235545	-0.567984	0.733404
1.890	1.887606	-2.709377	613.803624	4.453218	3.607939	-0.236201	-0.587800	0.725512
1.900	1.827527	-2.689143	614.962471	4.413540	3.728260	-0.230761	-0.606258	0.717693
1.910	1.793686	-2.684225	616.172826	4.383408	3.837608	-0.220248	-0.622814	0.711393
1.920	1.789470	-2.706392	617.368437	4.370108	3.931737	-0.207259	-0.636854	0.707861
1.930	1.815895	-2.758847	618.467817	4.377159	4.006548	-0.195066	-0.647818	0.707742
1.940	1.870761	-2.833815	619.380115	4.403185	4.059256	-0.186477	-0.655374	0.710902
1.950	1.948037	-2.913649	620.019678	4.442549	4.089503	-0.182837	-0.659576	0.716517
1.960	2.038031	-2.975269	620.324595	4.487425	4.099886	-0.183595	-0.660926	0.723400
1.970	2.128878	-2.996424	620.272136	4.530461	4.095508	-0.186645	-0.660276	0.730399
1.980	2.209212	-2.961719	619.884804	4.567047	4.082601	-0.189299	-0.658606	0.736757
1.990	2.271040	-2.866731	619.223806	4.596394	4.066724	-0.189434	-0.656745	0.742283
2.000	2.311446	-2.719265	618.371341	4.621175	4.051378	-0.186290	-0.655169	0.747314
2.010	2.332408	-2.537500	617.408422	4.646179	4.037750	-0.180609	-0.653984	0.752529
2.020	2.339199	-2.345363	616.398165	4.676741	4.025597	-0.174129	-0.653084	0.758721
2.030	2.338443	-2.166223	615.382022	4.717551	4.014519	-0.168738	-0.652362	0.766605
2.040	2.336435	-2.016806	614.388821	4.771987	4.004699	-0.165648	-0.651818	0.776705
2.050	2.337801	-1.903414	613.449063	4.841806	3.996825	-0.164911	-0.651533	0.789276
2.060	2.344690	-1.821779	612.604496	4.927061	3.991626	-0.165403	-0.651583	0.804281
2.070	2.356918	-1.760460	611.906865	5.026249	3.989701	-0.165237	-0.652011	0.821408
2.080	2.373109	-1.706279	611.407073	5.136647	3.991895	-0.162446	-0.652903	0.840135
2.090	2.392064	-1.649451	611.141616	5.254830	3.999895	-0.155667	-0.654496	0.859838
2.100	2.413468	-1.586345	611.123230	5.377412	4.016462	-0.144620	-0.657226	0.879923
2.110	2.437569	-1.519027	611.338385	5.501999	4.044976	-0.130242	-0.661659	0.899992
2.120	2.464073	-1.452274	611.750174	5.628098	4.088524	-0.114468	-0.668332	0.919999
2.130	2.490724	-1.389740	612.304582	5.757484	4.149052	-0.099782	-0.677612	0.940297
2.140	2.511993	-1.331158	612.939255	5.893657	4.226980	-0.088697	-0.689625	0.961540
2.150	2.518448	-1.271915	613.593881	6.040468	4.321290	-0.083241	-0.704259	0.984441
2.160	2.497552	-1.205240	614.220190	6.200395	4.429776	-0.084522	-0.721203	1.009474
2.170	2.436445	-1.125992	614.789103	6.373066	4.549143	-0.092458	-0.739952	1.036626
2.180	2.326457	-1.034132	615.292953	6.554477	4.674851	-0.105825	-0.759776	1.065261
2.190	2.167938	-0.935798	615.741637	6.737235	4.800937	-0.122618	-0.779700	1.094166
2.200	1.973230	-0.840945	616.153551	6.911984	4.920266	-0.140646	-0.798545	1.121796
2.210	1.765883	-0.758580	616.544988	7.069809	5.025447	-0.158154	-0.815098	1.146682
2.220	1.575721	-0.692327	616.923109	7.204763	5.110242	-0.174294	-0.828343	1.167854
2.230	1.431233	-0.638980	617.285613	7.315359	5.170891	-0.189273	-0.837682	1.185085
2.240	1.351945	-0.590706	617.626043	7.404234	5.206663	-0.204083	-0.843012	1.198821
2.250	1.343323	-0.539343	617.940484	7.476095	5.219266	-0.219897	-0.844623	1.209841
2.260	1.395982	-0.480471	618.231013	7.535031	5.211348	-0.237378	-0.842945	1.218805
2.270	1.489723	-0.415637	618.503472	7.582567	5.184887	-0.256236	-0.838296	1.225954
2.280	1.601208	-0.352299	618.760575	7.617414	5.140356	-0.275235	-0.830750	1.231076
2.290	1.712349	-0.301819	618.994023	7.636849	5.077004	-0.292602	-0.820202	1.233752
2.300	1.815876	-0.275975	619.179790	7.638901	4.993956	-0.306633	-0.806544	1.233713
2.310	1.915802	-0.282790	619.279145	7.624186	4.891468	-0.316254	-0.789865	1.231139
2.320	2.023052	-0.323056	619.245396	7.596494	4.771735	-0.321360	-0.770573	1.226734
2.330	2.148816	-0.389128	619.034021	7.561845	4.638932	-0.322854	-0.749382	1.221556
2.340	2.298897	-0.466786	618.613024	7.526489	4.498550	-0.322397	-0.727199	1.216672
2.350	2.471192	-0.539484	617.970843	7.494806	4.356374	-0.321985	-0.704948	1.212809
2.360	2.656402	-0.593165	617.119975	7.467940	4.217543	-0.323461	-0.683424	1.210128
2.370	2.840747	-0.619832	616.095798	7.443618	4.086062	-0.328063	-0.663219	1.208192
2.380	3.009240	-0.619040	614.951872	7.417143	3.964920	-0.336089	-0.644753	1.206134
2.390	3.148716	-0.597432	613.754059	7.383262	3.856609	-0.346727	-0.628364	1.202968
2.400	3.250301	-0.566835	612.575268	7.338278	3.763565	-0.358144	-0.614384	1.197939
