Time[s]	Fx[N]	Fy[N]	Fz[N]	Mx[Nm]	My[Nm]	Mz[Nm]	COPx[cm]	COPy[cm]
0.010	3.400025	3.747762	548.470341	9.337941	9.590928	0.238147	-1.748669	1.702543
0.020	3.386084	3.826727	548.012877	9.379080	9.635920	0.251054	-1.758338	1.711471
0.030	3.374754	3.896185	547.612393	9.415421	9.679660	0.261012	-1.767612	1.719359
0.040	3.368505	3.950190	547.314707	9.443013	9.722241	0.266078	-1.776353	1.725335
0.050	3.369512	3.988546	547.143661	9.459613	9.765145	0.265790	-1.784750	1.728909
0.060	3.379678	4.016509	547.097909	9.465277	9.810561	0.261152	-1.793200	1.730088
0.070	3.400770	4.042126	547.154345	9.462303	9.859951	0.254164	-1.802042	1.729366
0.080	3.434548	4.072341	547.276590	9.454376	9.912667	0.247114	-1.811272	1.727532
0.090	3.482673	4.109527	547.425373	9.445194	9.965480	0.241856	-1.820427	1.725385
0.100	3.546266	4.149906	547.567397	9.437107	10.013416	0.239261	-1.828709	1.723460
0.110	3.625108	4.184520	547.680653	9.430290	10.051512	0.239012	-1.835287	1.721859
0.120	3.716552	4.202413	547.756098	9.422689	10.076645	0.239850	-1.839623	1.720234
0.130	3.814597	4.194739	547.796567	9.410670	10.088776	0.240135	-1.841701	1.717913
0.140	3.909895	4.158149	547.813661	9.390119	10.091303	0.238507	-1.842105	1.714108
0.150	3.991258	4.096053	547.823063	9.357705	10.090546	0.234355	-1.841935	1.708162
0.160	4.048492	4.017370	547.838841	9.312022	10.094419	0.227954	-1.842589	1.699774
0.170	4.075400	3.933588	547.867824	9.254303	10.110431	0.220255	-1.845414	1.689149
0.180	4.071549	3.855612	547.905757	9.188392	10.143498	0.212422	-1.851322	1.677002
0.190	4.041975	3.791709	547.937155	9.119874	10.194355	0.205286	-1.860497	1.664401
0.200	3.995135	3.746986	547.939812	9.054652	10.259406	0.198991	-1.872360	1.652490
0.210	3.940314	3.723892	547.893003	8.997563	10.332290	0.193020	-1.885823	1.642212
0.220	3.885469	3.722721	547.786771	8.951510	10.406528	0.186608	-1.899741	1.634123
0.230	3.835799	3.741504	547.628889	8.917182	10.477986	0.179292	-1.913337	1.628326
0.240	3.792981	3.775563	547.446358	8.893214	10.546009	0.171315	-1.926400	1.624490
0.250	3.755075	3.817460	547.279639	8.876637	10.612859	0.163689	-1.939202	1.621956
0.260	3.717311	3.857861	547.170683	8.863573	10.681917	0.157898	-1.952209	1.619892
0.270	3.673843	3.887216	547.149013	8.849983	10.755610	0.155388	-1.965755	1.617472
0.280	3.620108	3.897765	547.221465	8.832210	10.833978	0.157072	-1.979816	1.614010
0.290	3.554915	3.885207	547.369332	8.807199	10.914360	0.163036	-1.993966	1.609005
0.300	3.481107	3.849326	547.553371	8.772595	10.992147	0.172533	-2.007502	1.602144
0.310	3.404297	3.793332	547.724562	8.726956	11.062228	0.184266	-2.019670	1.593311
0.320	3.330312	3.722188	547.837667	8.670087	11.120655	0.196836	-2.029918	1.582602
0.330	3.262779	3.640689	547.864354	8.603136	11.166127	0.209168	-2.038119	1.570304
0.340	3.202099	3.552075	547.802293	8.528176	11.200863	0.220748	-2.044691	1.556798
0.350	3.146062	3.457700	547.676531	8.447331	11.230410	0.231523	-2.050555	1.542394
0.360	3.091430	3.357768	547.531179	8.361859	11.262241	0.241561	-2.056913	1.527193
0.370	3.035545	3.252619	547.413495	8.271730	11.303453	0.250704	-2.064884	1.511057
0.380	2.977317	3.143778	547.357044	8.176014	11.358394	0.258472	-2.075134	1.493726
0.390	2.917546	3.034226	547.371864	8.073930	11.427160	0.264272	-2.087641	1.475036
0.400	2.858773	2.927869	547.445454	7.966021	11.505612	0.267750	-2.101691	1.455126
0.410	2.804774	2.828543	547.552007	7.854789	11.586994	0.269064	-2.116145	1.434528
0.420	2.759564	2.738932	547.663728	7.744464	11.664538	0.268916	-2.129872	1.414091
0.430	2.725944	2.659912	547.759273	7.639927	11.733996	0.268397	-2.142181	1.394760
0.440	2.704088	2.590829	547.827658	7.545273	11.795051	0.268740	-2.153059	1.377308
0.450	2.690886	2.530784	547.868201	7.462741	11.851025	0.271053	-2.163116	1.362142
0.460	2.680377	2.480138	547.887430	7.392522	11.907082	0.276064	-2.173272	1.349277
0.470	2.665062	2.441107	547.893694	7.333405	11.967711	0.283882	-2.184313	1.338472
0.480	2.637723	2.416841	547.890718	7.283636	12.034620	0.293884	-2.196537	1.329396
0.490	2.593616	2.409432	547.872636	7.241406	12.105909	0.304800	-2.209621	1.321732
0.500	2.532743	2.418130	547.823861	7.204947	12.176820	0.315015	-2.222762	1.315194
0.510	2.461249	2.438836	547.725871	7.172633	12.241614	0.323036	-2.234989	1.309530
0.520	2.390758	2.465203	547.569003	7.143394	12.295650	0.327984	-2.245498	1.304565
0.530	2.335315	2.490791	547.363326	7.117276	12.336702	0.329931	-2.253842	1.300284
0.540	2.307050	2.511350	547.142132	7.095629	12.365010	0.329909	-2.259927	1.296853
0.550	2.312615	2.526270	546.955383	7.080653	12.382155	0.329545	-2.263833	1.294558
0.560	2.352046	2.538639	546.855623	7.074559	12.389448	0.330463	-2.265579	1.293680
0.570	2.420148	2.553895	546.881916	7.078902	12.386821	0.333667	-2.264990	1.294411
0.580	2.508980	2.577651	547.047152	7.094351	12.372875	0.339172	-2.261757	1.296845
0.590	2.609738	2.613571	547.331870	7.120749	12.346025	0.346004	-2.255674	1.300993
0.600	2.713483	2.662239	547.686015	7.157129	12.305984	0.352542	-2.246905	1.306794
0.610	2.811502	2.721425	548.039175	7.201604	12.254749	0.357008	-2.236108	1.314067
0.620	2.896157	2.787349	548.318014	7.251295	12.196684	0.357926	-2.224381	1.322462
0.630	2.962168	2.856043	548.466193	7.302594	12.137707	0.354465	-2.213027	1.331458
0.640	3.007568	2.924084	548.459740	7.351890	12.083863	0.346670	-2.203236	1.340461
0.650	3.033845	2.988617	548.312026	7.396549	12.039661	0.335507	-2.195768	1.348967
0.660	3.045288	3.047140	548.066748	7.435727	12.006692	0.322663	-2.190735	1.356719
0.670	3.047765	3.097533	547.782553	7.470585	11.983090	0.310074	-2.187563	1.363787
0.680	3.047146	3.138454	547.516411	7.503821	11.964197	0.299365	-2.185176	1.370520
0.690	3.047727	3.169796	547.312282	7.538730	11.944328	0.291446	-2.182361	1.377409
0.700	3.051188	3.192821	547.197303	7.578199	11.919097	0.286395	-2.178208	1.384912
0.710	3.056430	3.209780	547.183109	7.623926	11.887335	0.283650	-2.172460	1.393304
0.720	3.060269	3.223169	547.268312	7.676012	11.851745	0.282352	-2.165619	1.402605
0.730	3.058690	3.234993	547.439438	7.732922	11.817924	0.281722	-2.158764	1.412562
0.740	3.048306	3.246372	547.669851	7.791826	11.792166	0.281350	-2.153152	1.422723
0.750	3.027587	3.257660	547.918403	7.849237	11.779016	0.281313	-2.149776	1.432556
0.760	2.997366	3.268796	548.131655	7.901742	11.779623	0.282039	-2.149050	1.441577
0.770	2.960333	3.279490	548.253774	7.946576	11.791553	0.283964	-2.150747	1.449434
0.780	2.919750	3.289056	548.244098	7.981967	11.810008	0.287137	-2.154151	1.455915
0.790	2.878127	3.296218	548.095183	8.007381	11.829784	0.290959	-2.158345	1.460947
0.800	2.836443	3.299376	547.840442	8.023695	11.847055	0.294203	-2.162501	1.464604
0.810	2.794033	3.297361	547.544862	8.033159	11.860331	0.295298	-2.166093	1.467123
0.820	2.749043	3.290199	547.282144	8.038891	11.870417	0.292851	-2.168976	1.468875
0.830	2.699414	3.279319	547.109309	8.044012	11.879578	0.286214	-2.171335	1.470275
0.840	2.644219	3.267091	547.050166	8.050753	11.890358	0.275885	-2.173541	1.471666
0.850	2.584742	3.255971	547.093203	8.059939	11.904425	0.263472	-2.175941	1.473230
0.860	2.524614	3.247732	547.202542	8.071061	11.921751	0.251209	-2.178672	1.474968
0.870	2.468947	3.243328	547.335777	8.082927	11.940273	0.241201	-2.181526	1.476777
0.880	2.423194	3.243660	547.460612	8.094609	11.956031	0.234711	-2.183907	1.478574
0.890	2.392516	3.250919	547.563519	8.106182	11.963729	0.231764	-2.184903	1.480409
0.900	2.381743	3.269441	547.648349	8.118806	11.957540	0.231195	-2.183434	1.482485
0.910	2.395185	3.304973	547.728132	8.134126	11.931979	0.231164	-2.178449	1.485066
0.920	2.435720	3.362301	547.815303	8.153395	11.882725	0.229902	-2.169112	1.488347
0.930	2.503555	3.442404	547.913910	8.176865	11.807340	0.226330	-2.154963	1.492363
0.940	2.595823	3.540787	548.015615	8.203810	11.705768	0.220265	-2.136028	1.497003
0.950	2.707652	3.647992	548.101078	8.233204	11.580387	0.212189	-2.112820	1.502132
0.960	2.834054	3.752253	548.147114	8.264631	11.435484	0.202851	-2.086207	1.507740
0.970	2.971316	3.843263	548.136659	8.298878	11.276237	0.192982	-2.057195	1.514016
0.980	3.117062	3.915564	548.066119	8.337769	11.107653	0.183241	-2.026699	1.521307
0.990	3.269190	3.970112	547.946339	8.383262	10.933899	0.174308	-1.995432	1.529942
1.000	3.424534	4.013257	547.797920	8.436209	10.758276	0.166945	-1.963913	1.540022
1.010	3.578028	4.053604	547.644980	8.495384	10.583719	0.161906	-1.932588	1.551257
1.020	3.722873	4.098239	547.511326	8.557315	10.413432	0.159672	-1.901957	1.562948
1.030	3.851827	4.150025	547.419675	8.617147	10.251222	0.160179	-1.872644	1.574139
1.040	3.959315	4.206819	547.391025	8.670172	10.101226	0.162754	-1.845340	1.583908
1.050	4.043455	4.262373	547.440646	8.713227	9.967017	0.166420	-1.820657	1.591630
1.060	4.107005	4.308262	547.570516	8.745230	9.850388	0.170390	-1.798926	1.597097
1.070	4.156762	4.336288	547.762586	8.766670	9.750332	0.174406	-1.780029	1.600451
1.080	4.201735	4.340911	547.978669	8.778518	9.662804	0.178672	-1.763354	1.601982
1.090	4.250792	4.321042	548.169334	8.781289	9.581597	0.183458	-1.747926	1.601930
1.100	4.310282	4.280476	548.288847	8.774742	9.500103	0.188697	-1.732682	1.600387
1.110	4.382063	4.226657	548.309904	8.758241	9.413321	0.193885	-1.716788	1.597316
1.120	4.462483	4.168183	548.232331	8.731354	9.319289	0.198260	-1.699879	1.592638
1.130	4.542915	4.112086	548.082220	8.694226	9.219419	0.201082	-1.682123	1.586300
1.140	4.612087	4.062086	547.901034	8.647544	9.117674	0.201805	-1.664110	1.578304
1.150	4.659705	4.018577	547.728386	8.592201	9.019069	0.200143	-1.646632	1.568697
1.160	4.680186	3.980076	547.586581	8.528976	8.928143	0.196126	-1.630453	1.557558
1.170	4.674931	3.944869	547.475740	8.458518	8.847933	0.190181	-1.616132	1.545003
1.180	4.651947	3.911502	547.382428	8.381682	8.779666	0.183233	-1.603936	1.531230
1.190	4.622930	3.877936	547.295606	8.299996	8.723070	0.176710	-1.593850	1.516547
1.200	4.599323	3.840531	547.218999	8.215848	8.676963	0.172352	-1.585647	1.501382
1.210	4.589303	3.794177	547.172266	8.132151	8.639669	0.171808	-1.578967	1.486214
1.220	4.596727	3.733892	547.181369	8.051460	8.609028	0.176098	-1.573341	1.471443
1.230	4.621839	3.657072	547.264899	7.974965	8.582207	0.185149	-1.568200	1.457240
1.240	4.662670	3.565158	547.424395	7.901967	8.555874	0.197628	-1.562933	1.443481
1.250	4.716024	3.463781	547.643231	7.830235	8.527068	0.211254	-1.557048	1.429806
1.260	4.777498	3.361115	547.892986	7.757065	8.494473	0.223551	-1.550389	1.415799
1.270	4.840684	3.264991	548.142316	7.680425	8.459269	0.232768	-1.543261	1.401173
1.280	4.896439	3.179972	548.363604	7.599642	8.424817	0.238492	-1.536356	1.385876
1.290	4.933526	3.105745	548.535960	7.515490	8.395179	0.241629	-1.530470	1.370100
1.300	4.941376	3.037716	548.645841	7.429879	8.373238	0.243784	-1.526164	1.354221
1.310	4.914258	2.969559	548.686923	7.345455	8.359481	0.246384	-1.523543	1.338733
1.320	4.854679	2.896500	548.659642	7.265203	8.352060	0.249992	-1.522266	1.324173
1.330	4.773782	2.817788	548.569743	7.192021	8.348033	0.254117	-1.521782	1.311050
1.340	4.688102	2.737259	548.425262	7.128309	8.345060	0.257539	-1.521640	1.299778
1.350	4.614051	2.661758	548.232824	7.075645	8.342625	0.258916	-1.521730	1.290628
1.360	4.562637	2.598147	547.996069	7.034667	8.342147	0.257359	-1.522301	1.283708
1.370	4.536569	2.550455	547.719097	7.005124	8.346006	0.252769	-1.523775	1.278963
1.380	4.530590	2.518713	547.414758	6.985920	8.356191	0.245900	-1.526483	1.276166
1.390	4.534334	2.499962	547.112999	6.975046	8.373429	0.238172	-1.530475	1.274882
1.400	4.536107	2.490441	546.862329	6.969511	8.397120	0.231246	-1.535509	1.274454
1.410	4.526170	2.487317	546.720443	6.965647	8.425781	0.226486	-1.541150	1.274078
1.420	4.498839	2.489066	546.736347	6.960026	8.457503	0.224493	-1.546907	1.273013
1.430	4.453354	2.494871	546.931400	6.950803	8.490126	0.224962	-1.552320	1.270873
1.440	4.393786	2.503969	547.287467	6.938784	8.521234	0.226903	-1.556994	1.267850
1.450	4.328137	2.515462	547.747314	6.927492	8.548198	0.229116	-1.560610	1.264724
1.460	4.266570	2.528517	548.227613	6.921881	8.568487	0.230626	-1.562943	1.262592
1.470	4.219030	2.542668	548.639959	6.926116	8.580296	0.230886	-1.563921	1.262416
1.480	4.192752	2.558071	548.912509	6.941422	8.583388	0.229698	-1.563708	1.264577
1.490	4.190218	2.575747	549.005442	6.965189	8.579795	0.226935	-1.562789	1.268692
1.500	4.207903	2.597790	548.916968	6.991984	8.573957	0.222297	-1.561977	1.273778
1.510	4.236225	2.627304	548.680241	7.016108	8.571997	0.215291	-1.562294	1.278724
1.520	4.260984	2.667652	548.353460	7.034471	8.580271	0.205492	-1.564734	1.282835
1.530	4.266287	2.720832	548.005582	7.048362	8.603729	0.192959	-1.570008	1.286184
1.540	4.238384	2.785495	547.700517	7.063186	8.644728	0.178598	-1.578368	1.289607
1.550	4.169513	2.855813	547.483802	7.086259	8.702659	0.164296	-1.589574	1.294332
1.560	4.060512	2.922278	547.375699	7.123673	8.774418	0.152709	-1.602997	1.301423
1.570	3.921144	2.974590	547.372113	7.177657	8.855471	0.146682	-1.617815	1.311294
1.580	3.767775	3.005689	547.451485	7.245549	8.941140	0.148402	-1.633230	1.323505
1.590	3.619150	3.015353	547.584248	7.320665	9.027746	0.158611	-1.648650	1.336902
1.600	3.491827	3.011664	547.741666	7.394609	9.113235	0.176227	-1.663783	1.350018
1.610	3.396750	3.009201	547.901467	7.460047	9.197046	0.198619	-1.678595	1.361567
1.620	3.337852	3.024177	548.048559	7.512867	9.279223	0.222421	-1.693139	1.370840
1.630	3.312832	3.068285	548.171722	7.552892	9.359174	0.244542	-1.707343	1.377833
1.640	3.315456	3.143965	548.260177	7.583065	9.434783	0.262893	-1.720859	1.383114
1.650	3.338086	3.243288	548.303933	7.607705	9.502469	0.276590	-1.733066	1.387498
1.660	3.373218	3.350844	548.297775	7.630740	9.558215	0.285626	-1.743253	1.391715
1.670	3.413736	3.449179	548.244906	7.654564	9.599030	0.290317	-1.750865	1.396194
1.680	3.452546	3.524441	548.156435	7.679746	9.624125	0.290876	-1.755726	1.401014
1.690	3.482433	3.570219	548.046703	7.705474	9.635384	0.287366	-1.758132	1.405989
1.700	3.496582	3.588447	547.927697	7.730291	9.637040	0.280031	-1.758816	1.410823
1.710	3.489748	3.587418	547.806270	7.752708	9.634743	0.269718	-1.758786	1.415228
1.720	3.459712	3.577958	547.685673	7.771545	9.634264	0.258065	-1.759086	1.418979
1.730	3.408363	3.569341	547.570075	7.786112	9.640181	0.247294	-1.760538	1.421939
1.740	3.341788	3.566409	547.468774	7.796334	9.654865	0.239641	-1.763546	1.424069
1.750	3.269150	3.568675	547.396963	7.802797	9.678055	0.236617	-1.768014	1.425437
1.760	3.200548	3.571429	547.372291	7.806646	9.707089	0.238406	-1.773398	1.426204
1.770	3.144334	3.568264	547.408986	7.809396	9.737720	0.243702	-1.778875	1.426611
1.780	3.104691	3.553995	547.512163	7.812734	9.765242	0.250121	-1.783566	1.426952
1.790	3.080492	3.526735	547.674019	7.818353	9.785605	0.255045	-1.786757	1.427556
1.800	3.066148	3.488291	547.872631	7.827808	9.796160	0.256545	-1.788036	1.428764
1.810	3.054233	3.442988	548.073861	7.842285	9.795850	0.253951	-1.787323	1.430881
1.820	3.038915	3.395895	548.237062	7.862240	9.784879	0.247854	-1.784790	1.434095
1.830	3.018902	3.351470	548.324542	7.887008	9.764010	0.239588	-1.780699	1.438383
1.840	2.998702	3.312978	548.313104	7.914672	9.733693	0.230498	-1.775207	1.443459
1.850	2.987379	3.282341	548.203944	7.942508	9.693346	0.221325	-1.768201	1.448824
1.860	2.995008	3.260049	548.026177	7.967965	9.641236	0.211932	-1.759266	1.453939
1.870	3.028360	3.245184	547.830751	7.989737	9.575226	0.201489	-1.747844	1.458432
1.880	3.087967	3.235879	547.675454	8.008255	9.494124	0.189016	-1.733531	1.462226
1.890	3.168036	3.230142	547.605886	8.025242	9.398967	0.174081	-1.716374	1.465514
1.900	3.259060	3.226679	547.639385	8.042541	9.293494	0.157256	-1.697010	1.468583
1.910	3.351540	3.225343	547.758251	8.060906	9.183519	0.140063	-1.676564	1.471618
1.920	3.438940	3.227144	547.915398	8.079493	9.075450	0.124433	-1.656360	1.474588
1.930	3.518811	3.233793	548.050793	8.096276	8.974609	0.111983	-1.637551	1.477286
1.940	3.592121	3.246700	548.112673	8.109067	8.884044	0.103522	-1.620843	1.479453
1.950	3.661376	3.265621	548.075604	8.116546	8.804253	0.098972	-1.606394	1.480917
1.960	3.728318	3.287699	547.948819	8.118803	8.733809	0.097660	-1.593910	1.481672
1.970	3.792085	3.307798	547.771881	8.117199	8.670591	0.098768	-1.582884	1.481858
1.980	3.848650	3.320402	547.599267	8.113710	8.613187	0.101690	-1.572900	1.481688
1.990	3.891796	3.322199	547.479745	8.110074	8.561987	0.106176	-1.563891	1.481347
2.000	3.915165	3.313872	547.439049	8.107172	8.519521	0.112269	-1.556250	1.480927
2.010	3.914444	3.300094	547.473124	8.104945	8.489782	0.120094	-1.550721	1.480428
2.020	3.888904	3.287906	547.554210	8.102884	8.476738	0.129657	-1.548109	1.479832
2.030	3.841844	3.284589	547.645804	8.100743	8.482592	0.140722	-1.548919	1.479194
2.040	3.779860	3.295841	547.718595	8.098943	8.506518	0.152836	-1.553082	1.478669
2.050	3.711200	3.324364	547.759828	8.098321	8.544332	0.165465	-1.559868	1.478444
2.060	3.643830	3.368722	547.772897	8.099410	8.589300	0.178139	-1.568040	1.478607
2.070	3.583931	3.422918	547.769870	8.101868	8.633883	0.190503	-1.576188	1.479064
2.080	3.535224	3.477442	547.763272	8.104565	8.671820	0.202267	-1.583133	1.479574
2.090	3.499154	3.521974	547.762217	8.106325	8.699702	0.213152	-1.588226	1.479899
2.100	3.475673	3.548912	547.773471	8.106860	8.717351	0.222933	-1.591415	1.479966
2.110	3.464246	3.556218	547.804315	8.107368	8.726949	0.231518	-1.593078	1.479975
2.120	3.464637	3.548298	547.863480	8.110502	8.731458	0.238954	-1.593729	1.480387
2.130	3.477038	3.534435	547.958367	8.119698	8.733113	0.245291	-1.593755	1.481809
2.140	3.501342	3.525297	548.089414	8.138054	8.732545	0.250401	-1.593270	1.484804
2.150	3.535917	3.528916	548.244462	8.167154	8.728651	0.253940	-1.592109	1.489692
2.160	3.576970	3.547868	548.396877	8.206321	8.719010	0.255531	-1.589909	1.496420
2.170	3.619621	3.578899	548.510442	8.252704	8.700609	0.255049	-1.586225	1.504566
2.180	3.660605	3.614920	548.551072	8.302216	8.670628	0.252801	-1.580642	1.513481
2.190	3.700911	3.647969	548.501117	8.350944	8.627051	0.249447	-1.572841	1.522503
2.200	3.746234	3.671525	548.369204	8.396400	8.568971	0.245715	-1.562628	1.531158
2.210	3.804528	3.681583	548.189764	8.438046	8.496647	0.242111	-1.549946	1.539256
2.220	3.881941	3.676938	548.011269	8.476849	8.411444	0.238793	-1.534903	1.546838
2.230	3.979434	3.659326	547.877893	8.514089	8.315748	0.235660	-1.517810	1.554012
2.240	4.091814	3.633438	547.812751	8.550034	8.212812	0.232531	-1.499201	1.560758
2.250	4.209336	3.606372	547.810142	8.583174	8.106420	0.229317	-1.479786	1.566815
2.260	4.320685	3.586089	547.839830	8.610414	8.000351	0.226096	-1.460345	1.571703
2.270	4.415914	3.578863	547.860457	8.628156	7.897780	0.223098	-1.441568	1.574882
2.280	4.488599	3.586577	547.835623	8.633814	7.800863	0.220598	-1.423942	1.575986
2.290	4.536986	3.605434	547.746643	8.627188	7.710756	0.218748	-1.407723	1.575032
2.300	4.563947	3.627392	547.598446	8.611106	7.628085	0.217414	-1.393007	1.572522
2.310	4.575551	3.644043	547.417443	8.591010	7.553551	0.216120	-1.379852	1.569371
2.320	4.578558	3.650839	547.242733	8.573525	7.488246	0.214172	-1.368359	1.566677
2.330	4.577879	3.649172	547.114347	8.564556	7.433378	0.210943	-1.358652	1.565405
2.340	4.575224	3.645118	547.062706	8.567724	7.389587	0.206148	-1.350775	1.566132
2.350	4.569640	3.645863	547.102066	8.583834	7.356249	0.199975	-1.344584	1.568964
2.360	4.559513	3.656117	547.229131	8.611425	7.331212	0.193057	-1.339697	1.573641
2.370	4.544732	3.676542	547.426258	8.647839	7.311054	0.186308	-1.335532	1.579727
2.380	4.527697	3.704578	547.666860	8.690093	7.291772	0.180701	-1.331425	1.586748
2.390	4.512828	3.736549	547.920155	8.735243	7.269666	0.176994	-1.326775	1.594255
2.400	4.505305	3.769514	548.153959	8.780413	7.242107	0.175481	-1.321181	1.601815
2.410	4.510054	3.802024	548.336269	8.822899	7.207893	0.175845	-1.314502	1.609031
2.420	4.531270	3.833804	548.437476	8.860487	7.167087	0.177197	-1.306819	1.615587
2.430	4.571919	3.864766	548.434920	8.891798	7.120544	0.178363	-1.298339	1.621304
2.440	4.632592	3.893810	548.319980	8.916246	7.069527	0.178354	-1.289307	1.626103
