Time[s]	Fx[N]	Fy[N]	Fz[N]	Mx[Nm]	My[Nm]	Mz[Nm]	COPx[cm]	COPy[cm]
0.010	6.359913	0.021679	713.515543	-5.460390	17.837906	0.254204	-2.500002	-0.765280
0.020	5.992115	-0.017614	713.414259	-5.478576	17.978857	0.256928	-2.520115	-0.767938
0.030	5.637536	-0.032556	713.299071	-5.481120	18.119190	0.258871	-2.540195	-0.768418
0.040	5.312190	-0.005452	713.154933	-5.457109	18.256157	0.259604	-2.559915	-0.765207
0.050	5.032524	0.070913	712.976532	-5.403592	18.384226	0.258996	-2.578518	-0.757892
0.060	4.812720	0.191041	712.773184	-5.326886	18.496142	0.257090	-2.594955	-0.747347
0.070	4.660559	0.337324	712.571416	-5.241303	18.585385	0.253892	-2.608214	-0.735548
0.080	4.573578	0.483716	712.412587	-5.165527	18.648802	0.249245	-2.617697	-0.725075
0.090	4.537907	0.602007	712.344236	-5.117770	18.688180	0.242897	-2.623476	-0.718441
0.100	4.531376	0.669143	712.407083	-5.111260	18.709947	0.234720	-2.626300	-0.717463
0.110	4.530364	0.673215	712.622496	-5.151471	18.723120	0.224895	-2.627355	-0.722889
0.120	4.517811	0.615780	712.985564	-5.235820	18.736298	0.213926	-2.627865	-0.734351
0.130	4.489119	0.509461	713.466329	-5.355725	18.754854	0.202476	-2.628695	-0.750663
0.140	4.453663	0.371810	714.017564	-5.500135	18.779333	0.191188	-2.630094	-0.770308
0.150	4.431469	0.218073	714.584309	-5.659186	18.805656	0.180638	-2.631692	-0.791955
0.160	4.446113	0.055877	715.110953	-5.826658	18.827035	0.171422	-2.632743	-0.814791
0.170	4.515676	-0.116023	715.545965	-6.000532	18.836941	0.164230	-2.632527	-0.838595
0.180	4.644145	-0.304556	715.847706	-6.181799	18.832018	0.159758	-2.630730	-0.863563
0.190	4.816316	-0.516264	715.993374	-6.372444	18.813927	0.158476	-2.627668	-0.890014
0.200	4.999227	-0.751401	715.988474	-6.573602	18.789525	0.160393	-2.624278	-0.918116
0.210	5.151197	-1.001257	715.871147	-6.784446	18.769277	0.165018	-2.621879	-0.947719
0.220	5.235875	-1.249925	715.706137	-7.001878	18.764312	0.171560	-2.621790	-0.978317
0.230	5.235601	-1.479308	715.566975	-7.220902	18.782923	0.179293	-2.624901	-1.009116
0.240	5.157967	-1.674744	715.510893	-7.435458	18.827581	0.187933	-2.631348	-1.039182
0.250	5.032590	-1.828820	715.556512	-7.639346	18.893571	0.197858	-2.640402	-1.067609
0.260	4.899860	-1.942146	715.674994	-7.826830	18.969858	0.210059	-2.650625	-1.093629
0.270	4.797006	-2.021208	715.799274	-7.992762	19.042109	0.225849	-2.660258	-1.116621
0.280	4.747280	-2.074506	715.847195	-8.132490	19.096940	0.246410	-2.667740	-1.136065
0.290	4.755550	-2.108768	715.748706	-8.241986	19.125909	0.272354	-2.672154	-1.151520
0.300	4.810181	-2.126797	715.467057	-8.318404	19.127775	0.303383	-2.673467	-1.162654
0.310	4.888688	-2.127711	715.007753	-8.360843	19.108386	0.338130	-2.672473	-1.169336
0.320	4.964161	-2.109248	714.414439	-8.370779	19.078595	0.374242	-2.670522	-1.171698
0.330	5.010555	-2.070830	713.755810	-8.351805	19.051356	0.408768	-2.669170	-1.170121
0.340	5.006354	-2.015667	713.110219	-8.308830	19.039064	0.438804	-2.669863	-1.165154
0.350	4.937161	-1.950686	712.553267	-8.247237	19.051565	0.462231	-2.673704	-1.157420
0.360	4.798271	-1.884321	712.149241	-8.172375	19.094696	0.478291	-2.681277	-1.147565
0.370	4.597767	-1.823310	711.943798	-8.089384	19.169089	0.487759	-2.692500	-1.136239
0.380	4.359163	-1.770003	711.956570	-8.003091	19.269404	0.492666	-2.706542	-1.124098
0.390	4.120717	-1.721351	712.176792	-7.917727	19.384639	0.495670	-2.721886	-1.111764
0.400	3.928472	-1.669965	712.567083	-7.836342	19.500170	0.499305	-2.736608	-1.099734
0.410	3.823051	-1.606739	713.076313	-7.760006	19.601522	0.505336	-2.748867	-1.088243
0.420	3.824717	-1.523955	713.655010	-7.687256	19.678787	0.514365	-2.757465	-1.077167
0.430	3.923942	-1.417775	714.262793	-7.614356	19.729808	0.525716	-2.762262	-1.066044
0.440	4.083203	-1.289559	714.861341	-7.536634	19.760367	0.537605	-2.764224	-1.054279
0.450	4.250521	-1.146054	715.396216	-7.450534	19.780869	0.547594	-2.765023	-1.041456
0.460	4.379126	-0.998741	715.779966	-7.355460	19.800911	0.553328	-2.766341	-1.027615
0.470	4.444045	-0.862342	715.891648	-7.254369	19.824510	0.553421	-2.769205	-1.013333
0.480	4.447803	-0.752008	715.603055	-7.152518	19.848710	0.548098	-2.773704	-0.999509
0.490	4.412993	-0.678991	714.830362	-7.054762	19.866610	0.539232	-2.779206	-0.986914
0.500	4.366185	-0.645697	713.594728	-6.962689	19.873352	0.529623	-2.784963	-0.975720
0.510	4.321660	-0.642213	712.062516	-6.873192	19.871834	0.521814	-2.790743	-0.965251
0.520	4.273205	-0.646541	710.534893	-6.779404	19.874779	0.516971	-2.797157	-0.954127
0.530	4.197896	-0.629648	709.374086	-6.673643	19.901417	0.514330	-2.805490	-0.940779
0.540	4.069617	-0.564303	708.885211	-6.550918	19.969745	0.511492	-2.817063	-0.924115
0.550	3.874926	-0.434703	709.201920	-6.411215	20.087859	0.505442	-2.832460	-0.904004
0.560	3.622609	-0.243111	710.231230	-6.259612	20.248831	0.493858	-2.851020	-0.881349
0.570	3.341642	-0.010601	711.688186	-6.104436	20.432095	0.476132	-2.870934	-0.857740
0.580	3.068984	0.228748	713.205651	-5.954647	20.610898	0.453618	-2.889896	-0.834913
0.590	2.834686	0.438319	714.465941	-5.817675	20.762107	0.429059	-2.905962	-0.814269
0.600	2.653152	0.590425	715.293583	-5.698337	20.873519	0.405519	-2.918175	-0.796643
0.610	2.524659	0.674658	715.674966	-5.598755	20.945563	0.385320	-2.926687	-0.782304
0.620	2.443910	0.700215	715.712083	-5.518854	20.987605	0.369375	-2.932409	-0.771100
0.630	2.407936	0.691634	715.547762	-5.457080	21.011874	0.357064	-2.936474	-0.762644
0.640	2.417212	0.679880	715.303583	-5.411270	21.028667	0.346586	-2.939824	-0.756500
0.650	2.469819	0.692088	715.052982	-5.379579	21.044769	0.335644	-2.943106	-0.752333
0.660	2.554148	0.743300	714.827519	-5.361258	21.064592	0.322232	-2.946808	-0.750007
0.670	2.646896	0.832503	714.638448	-5.356914	21.091897	0.305334	-2.951408	-0.749598
0.680	2.719262	0.943818	714.493949	-5.368121	21.130121	0.285282	-2.957355	-0.751318
0.690	2.748165	1.052046	714.401436	-5.396577	21.180825	0.263658	-2.964835	-0.755398
0.700	2.725557	1.130347	714.357811	-5.443274	21.241598	0.242759	-2.973524	-0.761981
0.710	2.659944	1.157282	714.339999	-5.508160	21.305458	0.224819	-2.982537	-0.771084
0.720	2.569440	1.121148	714.307178	-5.590441	21.362870	0.211281	-2.990712	-0.782638
0.730	2.471158	1.020996	714.216068	-5.689147	21.405548	0.202364	-2.997069	-0.796558
0.740	2.373978	0.865005	714.040370	-5.803338	21.429783	0.197056	-3.001201	-0.812746
0.750	2.279172	0.667401	713.783246	-5.931581	21.437181	0.193476	-3.003318	-0.831006
0.760	2.187776	0.445038	713.477273	-6.070901	21.432384	0.189474	-3.003934	-0.850889
0.770	2.108925	0.214488	713.173755	-6.215812	21.419265	0.183318	-3.003373	-0.871570
0.780	2.062763	-0.009658	712.927186	-6.358116	21.397904	0.174333	-3.001415	-0.891832
0.790	2.075160	-0.214831	712.780339	-6.487812	21.364003	0.163298	-2.997277	-0.910212
0.800	2.166648	-0.389171	712.753636	-6.594991	21.310906	0.152358	-2.989940	-0.925283
0.810	2.341462	-0.520285	712.841343	-6.672175	21.233104	0.144359	-2.978658	-0.935997
0.820	2.582457	-0.595885	713.016280	-6.716328	21.129505	0.141787	-2.963397	-0.941960
0.830	2.854616	-0.607086	713.241829	-6.729855	21.004940	0.145759	-2.944996	-0.943559
0.840	3.115859	-0.553178	713.485607	-6.720244	20.869133	0.155524	-2.924955	-0.941889
0.850	3.330841	-0.445250	713.727363	-6.698512	20.733439	0.168699	-2.904952	-0.938525
0.860	3.482371	-0.306094	713.957417	-6.676868	20.606667	0.182074	-2.886260	-0.935191
0.870	3.576100	-0.165459	714.168471	-6.666105	20.491764	0.192595	-2.869318	-0.933408
0.880	3.636962	-0.051938	714.347574	-6.673238	20.384796	0.198185	-2.853624	-0.934172
0.890	3.699008	0.015525	714.474256	-6.700066	20.276672	0.198217	-2.837985	-0.937762
0.900	3.792533	0.033182	714.526561	-6.743171	20.156868	0.193565	-2.821010	-0.943726
0.910	3.933099	0.012831	714.491608	-6.795435	20.017650	0.186220	-2.801663	-0.951087
0.920	4.116323	-0.023370	714.374507	-6.848625	19.857224	0.178613	-2.779666	-0.958688
0.930	4.320118	-0.051925	714.200892	-6.896214	19.680761	0.172930	-2.755634	-0.965585
0.940	4.513012	-0.057560	714.012550	-6.935549	19.499043	0.170647	-2.730910	-0.971348
0.950	4.664780	-0.039498	713.859263	-6.968654	19.325246	0.172394	-2.707151	-0.976194
0.960	4.755409	-0.011623	713.790097	-7.001398	19.171001	0.178037	-2.685804	-0.980876
0.970	4.780007	0.003821	713.844620	-7.041262	19.043097	0.186889	-2.667681	-0.986386
0.980	4.749166	-0.013551	714.042316	-7.094425	18.941884	0.197961	-2.652768	-0.993558
0.990	4.685301	-0.072650	714.370456	-7.163272	18.861771	0.210211	-2.640335	-1.002739
1.000	4.615914	-0.166243	714.776145	-7.245326	18.793460	0.222773	-2.629279	-1.013650
1.010	4.565442	-0.273242	715.171112	-7.334096	18.727100	0.235088	-2.618548	-1.025502
1.020	4.548307	-0.366707	715.453258	-7.421400	18.655286	0.246899	-2.607478	-1.037300
1.030	4.565918	-0.423866	715.539282	-7.500097	18.574974	0.258140	-2.595941	-1.048174
1.040	4.608809	-0.434041	715.395133	-7.566079	18.487787	0.268798	-2.584276	-1.057608
1.050	4.662549	-0.401743	715.050632	-7.618980	18.398761	0.278847	-2.573071	-1.065516
1.060	4.714230	-0.344468	714.591225	-7.661800	18.314181	0.288237	-2.562889	-1.072193
1.070	4.756497	-0.286612	714.129533	-7.699963	18.239356	0.296876	-2.554068	-1.078231
1.080	4.787985	-0.251905	713.768045	-7.740162	18.177145	0.304532	-2.546646	-1.084409
1.090	4.811168	-0.256837	713.568210	-7.789144	18.127579	0.310692	-2.540413	-1.091577
1.100	4.829637	-0.306885	713.538140	-7.852532	18.088437	0.314557	-2.535034	-1.100506
1.110	4.846418	-0.396342	713.642013	-7.933908	18.056317	0.315331	-2.530165	-1.111749
1.120	4.863810	-0.511334	713.824041	-8.034275	18.027663	0.312755	-2.525505	-1.125526
1.130	4.884292	-0.634727	714.033947	-8.151971	17.999396	0.307594	-2.520804	-1.141678
1.140	4.911615	-0.751148	714.242021	-8.282968	17.969121	0.301737	-2.515831	-1.159686
1.150	4.951088	-0.850575	714.438648	-8.421511	17.935124	0.297717	-2.510380	-1.178759
1.160	5.008252	-0.929607	714.622102	-8.561008	17.896414	0.297844	-2.504319	-1.197977
1.170	5.085863	-0.990409	714.784388	-8.695131	17.852841	0.303360	-2.497654	-1.216469
1.180	5.180413	-1.038216	714.904897	-8.819050	17.805131	0.314069	-2.490559	-1.233598
1.190	5.280467	-1.078899	714.955746	-8.930531	17.754774	0.328565	-2.483339	-1.249103
1.200	5.368792	-1.117707	714.914779	-9.030400	17.703762	0.344877	-2.476346	-1.263144
1.210	5.428389	-1.159080	714.777979	-9.122059	17.654293	0.361154	-2.469899	-1.276209
1.220	5.450074	-1.206427	714.564698	-9.210225	17.608545	0.376106	-2.464234	-1.288928
1.230	5.437706	-1.261231	714.314063	-9.299662	17.568615	0.389093	-2.459508	-1.301901
1.240	5.407699	-1.322213	714.074877	-9.394599	17.536604	0.399970	-2.455849	-1.315632
1.250	5.382455	-1.386002	713.893205	-9.498937	17.514703	0.408876	-2.453407	-1.330582
1.260	5.380810	-1.449771	713.802021	-9.616665	17.505029	0.416101	-2.452365	-1.347245
1.270	5.410362	-1.514465	713.815837	-9.751779	17.509155	0.422050	-2.452895	-1.366148
1.280	5.465312	-1.586289	713.930735	-9.907383	17.527460	0.427194	-2.455065	-1.387723
1.290	5.530349	-1.674877	714.128383	-10.084253	17.558632	0.431967	-2.458750	-1.412106
1.300	5.588116	-1.788660	714.382640	-10.279508	17.599581	0.436673	-2.463607	-1.438936
1.310	5.626442	-1.929653	714.667719	-10.486088	17.645907	0.441498	-2.469106	-1.467268
1.320	5.642133	-2.090316	714.965638	-10.693411	17.692838	0.446667	-2.474642	-1.495654
1.330	5.640256	-2.254015	715.268833	-10.889090	17.736348	0.452622	-2.479676	-1.522377
1.340	5.630296	-2.399006	715.574968	-11.061156	17.774092	0.460095	-2.483890	-1.545772
1.350	5.621605	-2.504552	715.875890	-11.200165	17.805844	0.469935	-2.487281	-1.564540
1.360	5.619858	-2.557187	716.147450	-11.300699	17.833364	0.482681	-2.490180	-1.577985
1.370	5.624794	-2.554962	716.347507	-11.362004	17.859894	0.498062	-2.493189	-1.586102
1.380	5.629180	-2.508053	716.425649	-11.387711	17.889517	0.514715	-2.497051	-1.589518
1.390	5.619344	-2.435337	716.342124	-11.384809	17.926471	0.530328	-2.502501	-1.589298
1.400	5.577774	-2.358146	716.087927	-11.362245	17.974400	0.542173	-2.510083	-1.586711
1.410	5.487614	-2.293553	715.695695	-11.329464	18.035529	0.547808	-2.520000	-1.583000
1.420	5.338027	-2.249744	715.234385	-11.294977	18.109937	0.545692	-2.532028	-1.579199
1.430	5.128859	-2.225168	714.788384	-11.264943	18.195155	0.535567	-2.545530	-1.575983
1.440	4.872927	-2.211400	714.429378	-11.241929	18.286386	0.518520	-2.559579	-1.573554
1.450	4.594629	-2.197922	714.192729	-11.224270	18.377528	0.496735	-2.573189	-1.571602
1.460	4.324432	-2.176324	714.068243	-11.206365	18.462871	0.473026	-2.585589	-1.569369
1.470	4.090440	-2.142153	714.009254	-11.179876	18.538908	0.450285	-2.596452	-1.565789
1.480	3.910107	-2.094208	713.956153	-11.135461	18.605408	0.431012	-2.605959	-1.559684
1.490	3.785829	-2.032274	713.864123	-11.064564	18.665069	0.416966	-2.614653	-1.549954
1.500	3.706692	-1.954649	713.722854	-10.960942	18.721730	0.408919	-2.623109	-1.535742
1.510	3.655642	-1.856560	713.559615	-10.821795	18.777879	0.406454	-2.631578	-1.516593
1.520	3.618663	-1.730138	713.424807	-10.648481	18.832704	0.407899	-2.639760	-1.492586
1.530	3.591508	-1.566372	713.367585	-10.446716	18.881717	0.410542	-2.646843	-1.464423
1.540	3.580686	-1.358981	713.413704	-10.226128	18.918255	0.411223	-2.651793	-1.433408
1.550	3.598190	-1.109325	713.555630	-9.999057	18.936197	0.407211	-2.653780	-1.401300
1.560	3.652744	-0.830506	713.757612	-9.778663	18.932694	0.397063	-2.652538	-1.370026
1.570	3.742286	-0.548222	713.970712	-9.576612	18.909735	0.381092	-2.648531	-1.341317
1.580	3.851822	-0.296517	714.149447	-9.400798	18.874043	0.361207	-2.642870	-1.316363
1.590	3.957818	-0.108616	714.263868	-9.253852	18.835416	0.340143	-2.637039	-1.295579
1.600	4.036810	-0.005817	714.305597	-9.133185	18.804081	0.320451	-2.632498	-1.278610
1.610	4.073863	0.010766	714.289184	-9.032735	18.787850	0.303715	-2.630286	-1.264577
1.620	4.067164	-0.038521	714.249518	-8.945747	18.789966	0.290357	-2.630729	-1.252468
1.630	4.027474	-0.118654	714.234603	-8.867437	18.808327	0.280063	-2.633354	-1.241530
1.640	3.973843	-0.192052	714.293637	-8.796565	18.836224	0.272476	-2.637042	-1.231505
1.650	3.928131	-0.230855	714.462447	-8.735492	18.864098	0.267685	-2.640320	-1.222666
1.660	3.910383	-0.224465	714.749720	-8.688908	18.881606	0.266222	-2.641709	-1.215657
1.670	3.935754	-0.180060	715.127859	-8.661849	18.879599	0.268606	-2.640031	-1.211231
1.680	4.012498	-0.116988	715.532807	-8.657756	18.851957	0.274766	-2.634674	-1.209973
1.690	4.140255	-0.058098	715.876286	-8.677142	18.797182	0.283713	-2.625758	-1.212101
1.700	4.308595	-0.021597	716.069454	-8.717228	18.719365	0.293626	-2.614183	-1.217372
1.710	4.496849	-0.016227	716.050453	-8.772712	18.627981	0.302345	-2.601490	-1.225153
1.720	4.676679	-0.040937	715.804949	-8.837423	18.536170	0.308056	-2.589556	-1.234613
1.730	4.817865	-0.088265	715.371473	-8.906164	18.457761	0.309907	-2.580164	-1.244970
1.740	4.896209	-0.149202	714.830278	-8.975894	18.403878	0.308280	-2.574580	-1.255668
1.750	4.901053	-0.216997	714.281155	-9.045788	18.380321	0.304622	-2.573261	-1.266418
1.760	4.839460	-0.288404	713.818630	-9.116413	18.386591	0.300920	-2.575807	-1.277133
1.770	4.734930	-0.362558	713.511659	-9.188685	18.416760	0.299029	-2.581144	-1.287811
1.780	4.620534	-0.438868	713.391627	-9.263142	18.461697	0.300075	-2.587877	-1.298465
1.790	4.528686	-0.515464	713.449872	-9.339737	18.511734	0.304101	-2.594679	-1.309095
1.800	4.480998	-0.589054	713.644500	-9.417961	18.558974	0.310014	-2.600591	-1.319699
1.810	4.481449	-0.656063	713.914428	-9.497111	18.598717	0.315877	-2.605175	-1.330287
1.820	4.515070	-0.714280	714.196377	-9.576657	18.629839	0.319458	-2.608504	-1.340900
1.830	4.552959	-0.764001	714.439484	-9.656745	18.654160	0.318860	-2.611020	-1.351653
1.840	4.562729	-0.808034	714.613394	-9.738656	18.674996	0.313005	-2.613301	-1.362787
1.850	4.521370	-0.850649	714.708595	-9.824922	18.695310	0.301843	-2.615795	-1.374675
1.860	4.425878	-0.896189	714.731023	-9.918880	18.716215	0.286318	-2.618638	-1.387778
1.870	4.296914	-0.948099	714.694835	-10.023684	18.736505	0.268196	-2.621609	-1.402512
1.880	4.173006	-1.008647	714.616901	-10.140979	18.753517	0.249838	-2.624276	-1.419079
1.890	4.096828	-1.078963	714.514659	-10.269673	18.764870	0.233864	-2.626240	-1.437294
1.900	4.099073	-1.158917	714.406563	-10.405352	18.770227	0.222626	-2.627387	-1.456503
1.910	4.186813	-1.246550	714.312711	-10.540772	18.772173	0.217567	-2.628005	-1.475652
1.920	4.341114	-1.337250	714.253140	-10.667373	18.775691	0.218687	-2.628717	-1.493500
1.930	4.524136	-1.423261	714.243001	-10.777178	18.786386	0.224432	-2.630251	-1.508895
1.940	4.691861	-1.494362	714.286523	-10.864288	18.808271	0.232100	-2.633155	-1.520999
1.950	4.807203	-1.540158	714.373464	-10.925613	18.842200	0.238664	-2.637584	-1.529398
1.960	4.849638	-1.553364	714.480878	-10.960931	18.885626	0.241729	-2.643265	-1.534111
1.970	4.819827	-1.532390	714.580356	-10.972525	18.933615	0.240306	-2.649613	-1.535520
1.980	4.739245	-1.481648	714.648432	-10.964374	18.980456	0.235091	-2.655915	-1.534233
1.990	4.645125	-1.409378	714.676284	-10.941024	19.021148	0.228131	-2.661505	-1.530906
2.000	4.581048	-1.324374	714.674069	-10.906493	19.052373	0.222008	-2.665883	-1.526079
2.010	4.584069	-1.233621	714.666657	-10.863774	19.072932	0.218918	-2.668787	-1.520118
2.020	4.670984	-1.142073	714.681925	-10.815160	19.083885	0.219985	-2.670263	-1.513283
2.030	4.828460	-1.054323	714.737401	-10.763015	19.088574	0.225055	-2.670712	-1.505870
2.040	5.012586	-0.976612	714.831898	-10.710297	19.092406	0.232979	-2.670895	-1.498296
2.050	5.160768	-0.917383	714.945387	-10.660273	19.101983	0.242202	-2.671810	-1.491061
2.060	5.213411	-0.885393	715.045881	-10.615519	19.123367	0.251334	-2.674425	-1.484593
2.070	5.137304	-0.885954	715.099415	-10.576748	19.159877	0.259451	-2.679331	-1.479060
2.080	4.940798	-0.917186	715.079099	-10.542113	19.210351	0.266056	-2.686465	-1.474258
2.090	4.673848	-0.968408	714.971347	-10.507460	19.268882	0.270904	-2.695056	-1.469634
2.100	4.412451	-1.021836	714.779733	-10.467610	19.326443	0.273929	-2.703832	-1.464453
2.110	4.233460	-1.057158	714.527305	-10.418277	19.374002	0.275384	-2.711443	-1.458066
2.120	4.189376	-1.057423	714.256138	-10.357860	19.405894	0.276047	-2.716938	-1.450160
2.130	4.292024	-1.014309	714.021329	-10.288316	19.422033	0.277288	-2.720091	-1.440898
2.140	4.510028	-0.931088	713.877881	-10.214745	19.427992	0.280867	-2.721473	-1.430881
2.150	4.779963	-0.822306	713.863144	-10.143850	19.433001	0.288469	-2.722231	-1.420980
2.160	5.026531	-0.710219	713.981521	-10.081779	19.446936	0.301178	-2.723731	-1.412050
2.170	5.184694	-0.618947	714.199060	-10.031922	19.477611	0.319068	-2.727196	-1.404639
2.180	5.216883	-0.567779	714.451913	-9.993273	19.529240	0.341087	-2.733458	-1.398733
2.190	5.120717	-0.565293	714.666707	-9.960013	19.602179	0.365282	-2.742842	-1.393658
2.200	4.925899	-0.606021	714.785653	-9.922773	19.693644	0.389274	-2.755182	-1.388217
2.210	4.682206	-0.671234	714.787062	-9.871454	19.798996	0.410802	-2.769915	-1.381034
2.220	4.443086	-0.734351	714.693508	-9.798706	19.913160	0.428139	-2.786252	-1.371036
2.230	4.250433	-0.769654	714.564345	-9.702728	20.031741	0.440268	-2.803350	-1.357852
2.240	4.125182	-0.761192	714.474789	-9.588212	20.151549	0.446925	-2.820470	-1.341994
2.250	4.065780	-0.708314	714.488524	-9.464971	20.270602	0.448571	-2.837079	-1.324720
2.260	4.053415	-0.625591	714.633449	-9.344666	20.387865	0.446327	-2.852912	-1.307617
2.270	4.060673	-0.537170	714.889382	-9.236884	20.502963	0.441725	-2.867991	-1.292072
2.280	4.059979	-0.467571	715.192240	-9.146218	20.615991	0.436227	-2.882580	-1.278847
2.290	4.029505	-0.432271	715.453414	-9.071604	20.727449	0.430635	-2.897107	-1.267952
2.300	3.956111	-0.431752	715.587703	-9.008024	20.838265	0.424690	-2.912049	-1.258829
2.310	3.836225	-0.451666	715.539727	-8.949513	20.949761	0.417089	-2.927826	-1.250736
2.320	3.675822	-0.469173	715.299151	-8.891887	21.063305	0.406005	-2.944685	-1.243100
2.330	3.490014	-0.462586	714.900365	-8.834083	21.179619	0.389924	-2.962597	-1.235708
2.340	3.301807	-0.420112	714.409802	-8.777930	21.298039	0.368514	-2.981208	-1.228697
