Time[s]	Fx[N]	Fy[N]	Fz[N]	Mx[Nm]	My[Nm]	Mz[Nm]	COPx[cm]	COPy[cm]
0.010	2.940228	-4.092423	685.959015	-7.871943	9.077167	0.261977	-1.323281	-1.147582
0.020	2.871545	-4.037058	685.888633	-7.719482	9.197087	0.264019	-1.340901	-1.125472
0.030	2.807236	-3.976464	685.835618	-7.559585	9.309551	0.265708	-1.357403	-1.102244
0.040	2.749700	-3.906254	685.803327	-7.386774	9.409944	0.266989	-1.372105	-1.077098
0.050	2.696685	-3.823560	685.782588	-7.198503	9.498478	0.268177	-1.385057	-1.049677
0.060	2.641187	-3.726554	685.756631	-6.995671	9.580123	0.269930	-1.397015	-1.020139
0.070	2.573705	-3.613618	685.709399	-6.781855	9.662782	0.273018	-1.409166	-0.989028
0.080	2.486248	-3.482977	685.631797	-6.561441	9.754450	0.277908	-1.422695	-0.956992
0.090	2.376247	-3.333187	685.523941	-6.337496	9.860309	0.284290	-1.438361	-0.924475
0.100	2.248355	-3.164180	685.395099	-6.110460	9.980666	0.290803	-1.456192	-0.891524
0.110	2.113212	-2.978083	685.263073	-5.878319	10.110358	0.295198	-1.475398	-0.857819
0.120	1.984037	-2.779099	685.152390	-5.638063	10.239760	0.295008	-1.494523	-0.822892
0.130	1.873066	-2.572348	685.089713	-5.387502	10.357020	0.288474	-1.511776	-0.786394
0.140	1.789554	-2.362262	685.096229	-5.126577	10.450746	0.275312	-1.525442	-0.748300
0.150	1.739713	-2.151345	685.178982	-4.857711	10.512208	0.256945	-1.534228	-0.708970
0.160	1.727652	-1.939902	685.324884	-4.585270	10.536422	0.236069	-1.537435	-0.669065
0.170	1.756035	-1.726915	685.501507	-4.314439	10.522147	0.215750	-1.534956	-0.629384
0.180	1.825656	-1.511696	685.665948	-4.049976	10.471328	0.198458	-1.527176	-0.590663
0.190	1.934065	-1.295545	685.778149	-3.795311	10.388612	0.185389	-1.514865	-0.553431
0.200	2.074139	-1.082528	685.812385	-3.552273	10.281107	0.176282	-1.499114	-0.517966
0.210	2.233791	-0.878953	685.762450	-3.321443	10.158112	0.169642	-1.481287	-0.484343
0.220	2.397497	-0.691877	685.640054	-3.102924	10.030399	0.163231	-1.462925	-0.452559
0.230	2.549340	-0.527445	685.468795	-2.897187	9.908957	0.154633	-1.445574	-0.422658
0.240	2.676453	-0.389665	685.276872	-2.705663	9.803436	0.141798	-1.430580	-0.394828
0.250	2.771613	-0.279904	685.090837	-2.530837	9.720791	0.123482	-1.418905	-0.369416
0.260	2.834068	-0.197125	684.931283	-2.375783	9.664583	0.099500	-1.411030	-0.346864
0.270	2.868222	-0.138647	684.810819	-2.243296	9.635165	0.070769	-1.406982	-0.327579
0.280	2.880570	-0.100927	684.734567	-2.134988	9.630522	0.039142	-1.406461	-0.311798
0.290	2.876271	-0.079876	684.702869	-2.050653	9.647233	0.007046	-1.408966	-0.299495
0.300	2.857049	-0.070760	684.714687	-1.988059	9.681147	-0.023054	-1.413895	-0.290349
0.310	2.821379	-0.068314	684.769547	-1.943206	9.727769	-0.049259	-1.420590	-0.283775
0.320	2.766647	-0.067601	684.866734	-1.911013	9.782545	-0.070730	-1.428387	-0.279034
0.330	2.691925	-0.065491	685.002349	-1.886340	9.841212	-0.087856	-1.436668	-0.275377
0.340	2.599813	-0.061884	685.166036	-1.865007	9.900118	-0.102006	-1.444922	-0.272198
0.350	2.496383	-0.059778	685.339174	-1.844506	9.956420	-0.114965	-1.452773	-0.269138
0.360	2.389354	-0.064085	685.495687	-1.824318	10.008087	-0.128295	-1.459978	-0.266131
0.370	2.285633	-0.079861	685.605947	-1.805913	10.053798	-0.142855	-1.466411	-0.263404
0.380	2.189483	-0.110837	685.643355	-1.792465	10.092867	-0.158602	-1.472029	-0.261428
0.390	2.101926	-0.158703	685.592235	-1.788173	10.125232	-0.174666	-1.476859	-0.260822
0.400	2.021305	-0.223185	685.454982	-1.797204	10.151488	-0.189603	-1.480985	-0.262191
0.410	1.944666	-0.302677	685.255827	-1.822511	10.172749	-0.201773	-1.484518	-0.265961
0.420	1.869551	-0.394998	685.038427	-1.864901	10.190219	-0.209744	-1.487540	-0.272233
0.430	1.795641	-0.497825	684.855966	-1.922660	10.204496	-0.212601	-1.490021	-0.280739
0.440	1.725587	-0.608566	684.755917	-1.991888	10.214883	-0.210072	-1.491755	-0.290890
0.450	1.664725	-0.723990	684.765237	-2.067476	10.219021	-0.202481	-1.492339	-0.301925
0.460	1.619890	-0.840214	684.882457	-2.144481	10.213035	-0.190675	-1.491210	-0.313117
0.470	1.597851	-0.953364	685.080012	-2.219574	10.192078	-0.175974	-1.487721	-0.323988
0.480	1.603938	-1.060724	685.315059	-2.292148	10.151024	-0.160108	-1.481220	-0.334466
0.490	1.641333	-1.161776	685.543214	-2.364654	10.085098	-0.144972	-1.471111	-0.344931
0.500	1.711180	-1.258567	685.728993	-2.441779	9.990408	-0.132120	-1.456903	-0.356085
0.510	1.813315	-1.355099	685.849761	-2.528582	9.864434	-0.122145	-1.438279	-0.368679
0.520	1.947066	-1.455910	685.894387	-2.628296	9.706485	-0.114285	-1.415157	-0.383193
0.530	2.111586	-1.564384	685.860437	-2.740728	9.518029	-0.106566	-1.387750	-0.399604
0.540	2.305469	-1.681408	685.752872	-2.861908	9.302847	-0.096478	-1.356589	-0.417338
0.550	2.525781	-1.804749	685.584457	-2.985030	9.066990	-0.081827	-1.322520	-0.435399
0.560	2.766926	-1.929250	685.376389	-3.102255	8.818540	-0.061404	-1.286671	-0.452635
0.570	3.019941	-2.047798	685.157591	-3.206650	8.567065	-0.035214	-1.250379	-0.468016
0.580	3.272899	-2.152911	684.961811	-3.293664	8.322601	-0.004318	-1.215046	-0.480854
0.590	3.512787	-2.238671	684.822525	-3.361726	8.094094	0.029561	-1.181926	-0.490890
0.600	3.728373	-2.302565	684.766574	-3.411899	7.887625	0.064458	-1.151871	-0.498257
0.610	3.912777	-2.346613	684.807756	-3.446839	7.705190	0.098476	-1.125161	-0.503329
0.620	4.064476	-2.377067	684.941169	-3.469523	7.544901	0.129970	-1.101540	-0.506543
0.630	4.186379	-2.402338	685.139583	-3.482338	7.402771	0.157636	-1.080476	-0.508267
0.640	4.283600	-2.429847	685.354623	-3.486858	7.275348	0.180531	-1.061545	-0.508767
0.650	4.361062	-2.463267	685.525753	-3.484244	7.161822	0.198062	-1.044720	-0.508259
0.660	4.421862	-2.501458	685.597087	-3.475767	7.064526	0.210016	-1.030419	-0.506969
0.670	4.466839	-2.539267	685.536998	-3.462998	6.987700	0.216663	-1.019303	-0.505151
0.680	4.495257	-2.569530	685.351951	-3.447566	6.935408	0.218888	-1.011948	-0.503036
0.690	4.506090	-2.585467	685.087258	-3.430684	6.909848	0.218139	-1.008608	-0.500766
0.700	4.499072	-2.582847	684.813540	-3.412763	6.910848	0.216065	-1.009158	-0.498349
0.710	4.474851	-2.561403	684.604871	-3.393338	6.936492	0.213950	-1.013211	-0.495664
0.720	4.434201	-2.525051	684.518201	-3.371328	6.984104	0.212251	-1.020295	-0.492511
0.730	4.376939	-2.480727	684.581147	-3.345541	7.050821	0.210496	-1.029947	-0.488699
0.740	4.301599	-2.436168	684.788990	-3.315259	7.133413	0.207624	-1.041695	-0.484129
0.750	4.206596	-2.397368	685.107561	-3.280700	7.227693	0.202616	-1.054972	-0.478859
0.760	4.092593	-2.366652	685.479724	-3.243133	7.328108	0.195123	-1.069048	-0.473119
0.770	3.964622	-2.342049	685.836150	-3.204529	7.427934	0.185804	-1.083048	-0.467244
0.780	3.832424	-2.318196	686.110715	-3.166813	7.520105	0.176180	-1.096048	-0.461560
0.790	3.708688	-2.288438	686.257005	-3.131064	7.598441	0.168074	-1.107230	-0.456252
0.800	3.606255	-2.247402	686.259622	-3.097067	7.658856	0.162901	-1.116029	-0.451297
0.810	3.535591	-2.193058	686.135702	-3.063523	7.700128	0.161127	-1.122246	-0.446489
0.820	3.502994	-2.127503	685.926720	-3.028813	7.723972	0.162081	-1.126064	-0.441565
0.830	3.509255	-2.056252	685.684599	-2.991927	7.734522	0.164142	-1.128000	-0.436342
0.840	3.548626	-1.986462	685.457308	-2.953065	7.737460	0.165238	-1.128803	-0.430817
0.850	3.608603	-1.924811	685.278047	-2.913663	7.738971	0.163510	-1.129318	-0.425180
0.860	3.671411	-1.875658	685.160316	-2.875885	7.744665	0.157943	-1.130344	-0.419739
0.870	3.717429	-1.840006	685.099602	-2.841871	7.758672	0.148669	-1.132488	-0.414811
0.880	3.729742	-1.815651	685.080675	-2.813075	7.783197	0.136780	-1.136099	-0.410620
0.890	3.698264	-1.798457	685.087276	-2.789932	7.818704	0.123729	-1.141271	-0.407238
0.900	3.622062	-1.784206	685.109746	-2.771863	7.864634	0.110693	-1.147938	-0.404587
0.910	3.509219	-1.770212	685.147270	-2.757491	7.920345	0.098293	-1.156006	-0.402467
0.920	3.374245	-1.756034	685.204076	-2.744948	7.985801	0.086766	-1.165463	-0.400603
0.930	3.233811	-1.742898	685.281731	-2.732201	8.061608	0.076375	-1.176393	-0.398697
0.940	3.102323	-1.731923	685.371746	-2.717338	8.148318	0.067684	-1.188890	-0.396477
0.950	2.988915	-1.722048	685.453468	-2.698722	8.245345	0.061491	-1.202904	-0.393713
0.960	2.896543	-1.709165	685.500206	-2.674985	8.350165	0.058509	-1.218113	-0.390224
0.970	2.822747	-1.687532	685.491514	-2.645031	8.458372	0.058995	-1.233914	-0.385859
0.980	2.761181	-1.652922	685.424485	-2.608128	8.564772	0.062545	-1.249557	-0.380513
0.990	2.703322	-1.605533	685.316513	-2.564085	8.665099	0.068149	-1.264394	-0.374146
1.000	2.640283	-1.550651	685.197699	-2.513331	8.757593	0.074454	-1.278112	-0.366804
1.010	2.564870	-1.496492	685.098037	-2.456768	8.843578	0.080111	-1.290849	-0.358601
1.020	2.473677	-1.450366	685.037211	-2.395351	8.926671	0.083977	-1.303093	-0.349667
1.030	2.368522	-1.415119	685.021784	-2.329693	9.010871	0.085173	-1.315414	-0.340090
1.040	2.256364	-1.387501	685.049096	-2.260124	9.098376	0.083077	-1.328135	-0.329921
1.050	2.147411	-1.359212	685.112850	-2.187410	9.188068	0.077431	-1.341103	-0.319277
1.060	2.052024	-1.320347	685.205483	-2.113720	9.275268	0.068512	-1.353648	-0.308480
1.070	1.977625	-1.263995	685.316607	-2.043045	9.352801	0.057209	-1.364742	-0.298117
1.080	1.926946	-1.189991	685.431230	-1.980571	9.412948	0.044864	-1.373288	-0.288953
1.090	1.898280	-1.105959	685.531291	-1.931134	9.449630	0.032937	-1.378439	-0.281699
1.100	1.887340	-1.024871	685.600197	-1.897465	9.460133	0.022642	-1.379832	-0.276760
1.110	1.889586	-0.959996	685.627272	-1.879099	9.445778	0.014701	-1.377684	-0.274070
1.120	1.901928	-0.919444	685.610000	-1.872475	9.411335	0.009283	-1.372695	-0.273111
1.130	1.923406	-0.902759	685.554254	-1.872072	9.363302	0.006074	-1.365800	-0.273074
1.140	1.955049	-0.900974	685.473363	-1.871890	9.307567	0.004459	-1.357831	-0.273080
1.150	1.999261	-0.899850	685.386137	-1.866562	9.247203	0.003744	-1.349196	-0.272337
1.160	2.059110	-0.884731	685.313772	-1.851835	9.181239	0.003351	-1.339713	-0.270217
1.170	2.137806	-0.844965	685.276065	-1.824628	9.104892	0.002974	-1.328646	-0.266262
1.180	2.238493	-0.776357	685.287461	-1.783037	9.011150	0.002641	-1.314945	-0.260188
1.190	2.364170	-0.681100	685.353339	-1.726470	8.893079	0.002645	-1.297590	-0.251909
1.200	2.517352	-0.565663	685.467395	-1.655920	8.746046	0.003294	-1.275924	-0.241575
1.210	2.699154	-0.437906	685.611586	-1.574213	8.569295	0.004550	-1.249876	-0.229607
1.220	2.907924	-0.304922	685.759975	-1.486026	8.366602	0.005799	-1.220048	-0.216698
1.230	3.137896	-0.172546	685.886016	-1.397525	8.145944	0.005978	-1.187653	-0.203755
1.240	3.378512	-0.046220	685.970266	-1.315618	7.918286	0.004073	-1.154319	-0.191789
1.250	3.615051	0.068051	686.004660	-1.247045	7.695716	-0.000307	-1.121817	-0.181784
1.260	3.830846	0.163915	685.991802	-1.197516	7.489359	-0.006656	-1.091756	-0.174567
1.270	4.010791	0.236167	685.941315	-1.171018	7.307553	-0.013765	-1.065332	-0.170717
1.280	4.145181	0.282404	685.866440	-1.169418	7.154718	-0.020240	-1.043165	-0.170502
1.290	4.232482	0.303677	685.782151	-1.192516	7.031098	-0.024971	-1.025267	-0.173891
1.300	4.279808	0.303851	685.703759	-1.238620	6.933180	-0.027322	-1.011104	-0.180635
1.310	4.300747	0.288147	685.644646	-1.305511	6.854467	-0.027094	-0.999711	-0.190406
1.320	4.311406	0.261398	685.613165	-1.391420	6.786403	-0.024436	-0.989830	-0.202945
1.330	4.326303	0.226500	685.610224	-1.495609	6.719542	-0.019864	-0.980082	-0.218143
1.340	4.355512	0.183476	685.629165	-1.618369	6.645050	-0.014290	-0.969190	-0.236041
1.350	4.403571	0.129330	685.658029	-1.760554	6.556405	-0.008891	-0.956221	-0.256769
1.360	4.469896	0.058567	685.682862	-1.922995	6.450843	-0.004759	-0.940791	-0.280450
1.370	4.550083	-0.035780	685.690846	-2.106159	6.330027	-0.002483	-0.923161	-0.307159
1.380	4.637696	-0.160618	685.672927	-2.310241	6.199609	-0.001912	-0.904164	-0.336930
1.390	4.726149	-0.320908	685.626062	-2.535501	6.067720	-0.002243	-0.884990	-0.369808
1.400	4.810334	-0.518005	685.555144	-2.782453	5.942820	-0.002423	-0.866862	-0.405869
1.410	4.887627	-0.748957	685.474038	-3.051506	5.831583	-0.001642	-0.850737	-0.445167
1.420	4.958146	-1.007090	685.404354	-3.342138	5.737545	0.000296	-0.837104	-0.487615
1.430	5.024203	-1.283578	685.370406	-3.652070	5.660985	0.002934	-0.825974	-0.532861
1.440	5.088967	-1.569299	685.390493	-3.976912	5.599927	0.005450	-0.817042	-0.580240
1.450	5.154509	-1.856264	685.467412	-4.310457	5.551695	0.007136	-0.809914	-0.628835
1.460	5.220028	-2.138141	685.582923	-4.645534	5.514184	0.007783	-0.804306	-0.677603
1.470	5.281386	-2.409794	685.700332	-4.975147	5.486313	0.007736	-0.800104	-0.725557
1.480	5.332398	-2.666253	685.776127	-5.293487	5.467652	0.007668	-0.797294	-0.771897
1.490	5.367008	-2.901799	685.776777	-5.596413	5.457700	0.008288	-0.795842	-0.816069
1.500	5.380937	-3.109890	685.692896	-5.881262	5.455344	0.010238	-0.795596	-0.857711
1.510	5.372061	-3.284154	685.543542	-6.146234	5.458896	0.014198	-0.796287	-0.896549
1.520	5.339877	-3.420111	685.368815	-6.389766	5.466796	0.020985	-0.797643	-0.932311
1.530	5.285000	-3.516913	685.215019	-6.610277	5.478627	0.031436	-0.799549	-0.964701
1.540	5.209351	-3.578337	685.119215	-6.806445	5.495901	0.046075	-0.802182	-0.993469
1.550	5.116833	-3.612481	685.098549	-6.977940	5.522070	0.064803	-0.806026	-1.018531
1.560	5.013622	-3.630079	685.146660	-7.126199	5.561690	0.086835	-0.811752	-1.040098
1.570	4.907457	-3.641968	685.237134	-7.254773	5.619074	0.110904	-0.820019	-1.058724
1.580	4.806330	-3.656597	685.332732	-7.368887	5.697013	0.135617	-0.831277	-1.075228
1.590	4.717306	-3.678587	685.398242	-7.474325	5.796033	0.159759	-0.845645	-1.090508
1.600	4.645581	-3.709031	685.413168	-7.576159	5.914338	0.182415	-0.862886	-1.105342
1.610	4.593384	-3.747364	685.379395	-7.677939	6.048344	0.202884	-0.882481	-1.120247
1.620	4.558747	-3.793683	685.320282	-7.781685	6.193593	0.220520	-0.903752	-1.135481
1.630	4.534962	-3.849979	685.271019	-7.888481	6.345800	0.234668	-0.926028	-1.151148
1.640	4.511498	-3.919395	685.263727	-7.999238	6.501784	0.244815	-0.948800	-1.167323
1.650	4.476427	-4.003918	685.313203	-8.115164	6.660051	0.250886	-0.971826	-1.184154
1.660	4.419515	-4.101926	685.409494	-8.237707	6.820909	0.253491	-0.995158	-1.201866
1.670	4.334788	-4.207177	685.520868	-8.367984	6.986118	0.253956	-1.019096	-1.220675
1.680	4.221658	-4.310142	685.605913	-8.505968	7.158261	0.254033	-1.044078	-1.240650
1.690	4.084257	-4.401368	685.629001	-8.649857	7.340153	0.255395	-1.070572	-1.261594
1.700	3.929295	-4.475332	685.572290	-8.796064	7.534580	0.259115	-1.099020	-1.283025
1.710	3.763240	-4.532833	685.440120	-8.939932	7.744375	0.265370	-1.129840	-1.304262
1.720	3.589794	-4.580670	685.255793	-9.076950	7.972472	0.273496	-1.163430	-1.324608
1.730	3.408566	-4.628870	685.053648	-9.203910	8.221419	0.282361	-1.200113	-1.343531
1.740	3.215596	-4.686938	684.870021	-9.319547	8.492209	0.290838	-1.239974	-1.360776
1.750	3.005835	-4.760749	684.735550	-9.424404	8.782865	0.298182	-1.282665	-1.376357
1.760	2.776867	-4.850938	684.669846	-9.519970	9.087627	0.304137	-1.327301	-1.390447
1.770	2.532265	-4.952748	684.678754	-9.607399	9.397392	0.308732	-1.372526	-1.403198
1.780	2.282886	-5.056781	684.754732	-9.686276	9.701324	0.311902	-1.416759	-1.414561
1.790	2.045268	-5.150199	684.881230	-9.753968	9.988863	0.313170	-1.458481	-1.424184
1.800	1.837671	-5.218381	685.040936	-9.805765	10.251361	0.311629	-1.496460	-1.431413
1.810	1.675403	-5.247426	685.224703	-9.835727	10.482931	0.306221	-1.529853	-1.435402
1.820	1.567236	-5.227472	685.435386	-9.837861	10.680584	0.296132	-1.558219	-1.435272
1.830	1.514019	-5.155858	685.682437	-9.807256	10.843918	0.281097	-1.581478	-1.430291
1.840	1.509486	-5.038535	685.969018	-9.740990	10.974698	0.261562	-1.599883	-1.420034
1.850	1.542457	-4.888606	686.278943	-9.638759	11.076483	0.238735	-1.613991	-1.404496
1.860	1.599466	-4.722160	686.571590	-9.503089	11.154227	0.214510	-1.624627	-1.384137
1.870	1.667123	-4.552908	686.788837	-9.339012	11.213722	0.191187	-1.632776	-1.359808
1.880	1.733880	-4.387878	686.872145	-9.153202	11.260885	0.171013	-1.639444	-1.332592
1.890	1.791096	-4.226072	686.783522	-8.952878	11.301102	0.155615	-1.645512	-1.303595
1.900	1.833522	-4.060546	686.522593	-8.744844	11.338857	0.145516	-1.651636	-1.273788
1.910	1.859353	-3.882730	686.132956	-8.534850	11.377719	0.139914	-1.658238	-1.243906
1.920	1.869829	-3.686979	685.694013	-8.327256	11.420596	0.136821	-1.665553	-1.214427
1.930	1.868267	-3.473630	685.299551	-8.124835	11.470037	0.133556	-1.673726	-1.185589
1.940	1.858603	-3.249703	685.030181	-7.928688	11.528288	0.127481	-1.682888	-1.157422
1.950	1.843836	-3.027294	684.929886	-7.738366	11.596949	0.116811	-1.693159	-1.129804
1.960	1.824943	-2.820374	684.995333	-7.552343	11.676297	0.101159	-1.704580	-1.102539
1.970	1.800767	-2.640922	685.181389	-7.368924	11.764598	0.081620	-1.717005	-1.075471
1.980	1.769175	-2.495442	685.420138	-7.187387	11.857753	0.060319	-1.729998	-1.048610
1.990	1.729213	-2.382896	685.645255	-7.008774	11.949506	0.039642	-1.742812	-1.022216
2.000	1.683409	-2.294775	685.811625	-6.835723	12.032230	0.021485	-1.754451	-0.996735
2.010	1.639066	-2.217412	685.903434	-6.671237	12.098123	0.006791	-1.763823	-0.972621
2.020	1.607670	-2.135783	685.930482	-6.517107	12.140581	-0.004497	-1.769943	-0.950112
2.030	1.602327	-2.037572	685.917221	-6.372952	12.155444	-0.013152	-1.772144	-0.929114
2.040	1.633899	-1.916252	685.889805	-6.236474	12.141823	-0.020251	-1.770229	-0.909253
2.050	1.707095	-1.772468	685.865269	-6.104742	12.102235	-0.026779	-1.764521	-0.890079
2.060	1.817875	-1.613631	685.846055	-5.975760	12.041947	-0.033382	-1.755780	-0.871298
2.070	1.953309	-1.452051	685.822040	-5.849662	11.967688	-0.040250	-1.745014	-0.852942
2.080	2.094343	-1.302051	685.779342	-5.729160	11.886203	-0.047137	-1.733240	-0.835423
2.090	2.220827	-1.176724	685.710841	-5.619226	11.803161	-0.053504	-1.721303	-0.819475
2.100	2.317298	-1.085137	685.621519	-5.526109	11.722740	-0.058789	-1.709798	-0.806000
2.110	2.377447	-1.030740	685.525175	-5.455978	11.647876	-0.062701	-1.699117	-0.795883
2.120	2.405388	-1.011358	685.435780	-5.413643	11.580828	-0.065402	-1.689557	-0.789810
2.130	2.412922	-1.020675	685.360423	-5.401751	11.523602	-0.067450	-1.681393	-0.788162
2.140	2.413772	-1.050621	685.298454	-5.420565	11.477927	-0.069535	-1.674880	-0.790979
2.150	2.417497	-1.093779	685.246517	-5.468114	11.444827	-0.072229	-1.670177	-0.797978
2.160	2.426006	-1.145072	685.205814	-5.540532	11.424061	-0.075870	-1.667245	-0.808594
2.170	2.434150	-1.202428	685.186708	-5.632619	11.413780	-0.080571	-1.665791	-0.822056
2.180	2.433719	-1.266363	685.206364	-5.738664	11.410619	-0.086209	-1.665282	-0.837509
2.190	2.418633	-1.338674	685.278897	-5.853390	11.410279	-0.092348	-1.665056	-0.854162
2.200	2.388934	-1.420749	685.403722	-5.972629	11.408433	-0.098166	-1.664484	-0.871403
2.210	2.351907	-1.512280	685.560651	-6.093484	11.401619	-0.102542	-1.663109	-0.888832
2.220	2.319856	-1.610945	685.715922	-6.213963	11.387795	-0.104326	-1.660716	-0.906201
2.230	2.305298	-1.713050	685.835501	-6.332355	11.366431	-0.102687	-1.657312	-0.923305
2.240	2.315418	-1.814610	685.897712	-6.446659	11.338291	-0.097389	-1.653059	-0.939886
2.250	2.348164	-1.912273	685.899037	-6.554343	11.305140	-0.088841	-1.648222	-0.955584
2.260	2.391935	-2.003638	685.851654	-6.652519	11.269553	-0.077904	-1.643147	-0.969965
2.270	2.429385	-2.086947	685.775437	-6.738440	11.234846	-0.065509	-1.638269	-0.982602
2.280	2.443769	-2.160484	685.689255	-6.810080	11.204965	-0.052306	-1.634117	-0.993173
2.290	2.424865	-2.222296	685.605960	-6.866616	11.184027	-0.038582	-1.631262	-1.001540
2.300	2.371802	-2.270669	685.532318	-6.908742	11.175491	-0.024507	-1.630192	-1.007792
2.310	2.291884	-2.305143	685.471687	-6.938763	11.181399	-0.010485	-1.631198	-1.012261
2.320	2.196506	-2.327264	685.426160	-6.960305	11.202231	0.002706	-1.634345	-1.015471
2.330	2.096519	-2.340319	685.396686	-6.977606	11.237440	0.014188	-1.639553	-1.018039
2.340	1.999170	-2.348022	685.381736	-6.994566	11.286119	0.023483	-1.646691	-1.020536
2.350	1.907538	-2.353036	685.375860	-7.013926	11.347162	0.030881	-1.655612	-1.023369
