Time[s]	Fx[N]	Fy[N]	Fz[N]	Mx[Nm]	My[Nm]	Mz[Nm]	COPx[cm]	COPy[cm]
0.010	3.829419	2.869598	622.933290	0.257053	-7.126675	0.344831	1.144051	0.041265
0.020	3.821698	2.854117	622.838696	0.220129	-7.104910	0.356225	1.140730	0.035343
0.030	3.829264	2.835521	622.717243	0.183526	-7.086814	0.368530	1.138047	0.029472
0.040	3.862100	2.811258	622.553316	0.148117	-7.074014	0.381874	1.136290	0.023792
0.050	3.923763	2.780546	622.352977	0.116081	-7.064734	0.395132	1.135165	0.018652
0.060	4.010368	2.745021	622.141916	0.090032	-7.053936	0.405992	1.133815	0.014471
0.070	4.111415	2.708657	621.953992	0.071512	-7.034674	0.411619	1.131060	0.011498
0.080	4.212202	2.676632	621.816102	0.059858	-7.000024	0.409687	1.125739	0.009626
0.090	4.297229	2.653392	621.737350	0.052149	-6.944741	0.399356	1.116989	0.008388
0.100	4.353924	2.640790	621.707791	0.044310	-6.866091	0.381790	1.104392	0.007127
0.110	4.375827	2.637224	621.705861	0.032693	-6.763772	0.360043	1.087938	0.005259
0.120	4.364042	2.638101	621.709118	0.015301	-6.639214	0.338303	1.067897	0.002461
0.130	4.325794	2.637283	621.702798	-0.007977	-6.494806	0.320667	1.044680	-0.001283
0.140	4.269948	2.628882	621.683542	-0.036101	-6.333375	0.309856	1.018746	-0.005807
0.150	4.201023	2.608907	621.658281	-0.068059	-6.157978	0.306311	0.990573	-0.010948
0.160	4.114550	2.576416	621.640177	-0.103704	-5.971786	0.308052	0.960650	-0.016682
0.170	3.996450	2.534012	621.644613	-0.143578	-5.777952	0.311343	0.929462	-0.023097
0.180	3.827498	2.487505	621.687196	-0.187685	-5.579628	0.311914	0.897498	-0.030190
0.190	3.591666	2.444625	621.782571	-0.233938	-5.380300	0.306311	0.865302	-0.037624
0.200	3.285167	2.412982	621.941153	-0.277388	-5.184487	0.292957	0.833598	-0.044600
0.210	2.922316	2.398072	622.162997	-0.310839	-4.998493	0.272609	0.803406	-0.049961
0.220	2.535482	2.402447	622.431927	-0.326610	-4.830721	0.248059	0.776104	-0.052473
0.230	2.168735	2.426627	622.714496	-0.318642	-4.691099	0.223189	0.753331	-0.051170
0.240	1.867294	2.471070	622.966214	-0.284255	-4.589562	0.201682	0.736727	-0.045629
0.250	1.666493	2.537484	623.143348	-0.225077	-4.533997	0.185850	0.727601	-0.036120
0.260	1.584010	2.628132	623.215865	-0.146970	-4.528375	0.175972	0.726614	-0.023582
0.270	1.617382	2.743317	623.176868	-0.058904	-4.571768	0.170365	0.733623	-0.009452
0.280	1.746574	2.878656	623.045260	0.029000	-4.658505	0.166158	0.747699	0.004655
0.290	1.939878	3.023910	622.860382	0.107828	-4.779281	0.160494	0.767312	0.017312
0.300	2.161303	3.164149	622.670376	0.171995	-4.922722	0.151723	0.790582	0.027622
0.310	2.378004	3.282927	622.518876	0.220349	-5.077024	0.140125	0.815561	0.035396
0.320	2.566476	3.366313	622.434664	0.255722	-5.231517	0.127877	0.840492	0.041084
0.330	2.716253	3.406257	622.426195	0.282948	-5.378188	0.118260	0.864068	0.045459
0.340	2.830292	3.401937	622.480604	0.306177	-5.513006	0.114409	0.885651	0.049187
0.350	2.921904	3.358722	622.566593	0.326725	-5.636519	0.118087	0.905368	0.052480
0.360	3.008921	3.285634	622.641244	0.342409	-5.753174	0.129015	0.923995	0.054993
0.370	3.106683	3.192865	622.660381	0.348524	-5.869243	0.145035	0.942607	0.055973
0.380	3.222249	3.090450	622.590300	0.339892	-5.990001	0.162996	0.962110	0.054593
0.390	3.352137	2.987993	622.416951	0.313038	-6.117350	0.179912	0.982838	0.050294
0.400	3.484579	2.894513	622.149312	0.267526	-6.248861	0.193831	1.004399	0.043000
0.410	3.605161	2.817684	621.816711	0.205931	-6.378572	0.204105	1.025796	0.033118
0.420	3.703183	2.762534	621.462405	0.132575	-6.499064	0.211082	1.045769	0.021333
0.430	3.775783	2.730249	621.135560	0.051796	-6.603917	0.215504	1.063201	0.008339
0.440	3.828061	2.717651	620.882304	-0.033322	-6.689577	0.217950	1.077431	-0.005367
0.450	3.869533	2.717644	620.736641	-0.121165	-6.755901	0.218611	1.088368	-0.019520
0.460	3.909034	2.720728	620.713351	-0.210942	-6.805226	0.217476	1.096356	-0.033984
0.470	3.950800	2.717389	620.805429	-0.301841	-6.840385	0.214772	1.101857	-0.048621
0.480	3.993537	2.700739	620.987173	-0.392641	-6.862648	0.211368	1.105119	-0.063228
0.490	4.032572	2.668285	621.222187	-0.481902	-6.870618	0.208868	1.105984	-0.077573
0.500	4.063644	2.621889	621.474169	-0.568471	-6.860794	0.209272	1.103955	-0.091471
0.510	4.086141	2.565890	621.717055	-0.651940	-6.829632	0.214355	1.098511	-0.104861
0.520	4.104071	2.504375	621.940267	-0.732864	-6.776118	0.225048	1.089513	-0.117835
0.530	4.124373	2.438936	622.146202	-0.812745	-6.703505	0.241122	1.077481	-0.130636
0.540	4.153680	2.367793	622.340960	-0.893845	-6.619238	0.261252	1.063603	-0.143626
0.550	4.195317	2.286589	622.523235	-0.978842	-6.533007	0.283394	1.049440	-0.157238
0.560	4.247880	2.190614	622.677718	-1.070357	-6.453696	0.305284	1.036442	-0.171896
0.570	4.305690	2.077715	622.777426	-1.170407	-6.386422	0.324942	1.025474	-0.187933
0.580	4.360563	1.950821	622.794963	-1.279983	-6.330767	0.341023	1.016509	-0.205522
0.590	4.403946	1.818976	622.717255	-1.398877	-6.280815	0.352966	1.008614	-0.224641
0.600	4.428386	1.696095	622.554957	-1.525750	-6.226990	0.360929	1.000231	-0.245079
0.610	4.427633	1.597485	622.339811	-1.658305	-6.158965	0.365573	0.989647	-0.266463
0.620	4.395762	1.535201	622.110688	-1.793454	-6.068472	0.367814	0.975465	-0.288285
0.630	4.326536	1.513810	621.896974	-1.927498	-5.950894	0.368676	0.956894	-0.309938
0.640	4.214146	1.528070	621.710269	-2.056478	-5.805232	0.369298	0.933752	-0.330777
0.650	4.055371	1.563413	621.549726	-2.176804	-5.632950	0.370949	0.906275	-0.350222
0.660	3.852097	1.599212	621.416617	-2.286054	-5.436718	0.374874	0.874891	-0.367878
0.670	3.612667	1.613809	621.326841	-2.383541	-5.219835	0.381932	0.840111	-0.383621
0.680	3.350954	1.589853	621.311154	-2.470269	-4.986517	0.392224	0.802580	-0.397590
0.690	3.083092	1.518671	621.401090	-2.548222	-4.742596	0.404969	0.763210	-0.410077
0.700	2.823002	1.402642	621.608024	-2.619364	-4.495849	0.418725	0.723261	-0.421385
0.710	2.578414	1.254919	621.907583	-2.684812	-4.255425	0.431847	0.684254	-0.431706
0.720	2.348856	1.096542	622.239087	-2.744475	-4.030382	0.442973	0.647722	-0.441064
0.730	2.126430	0.951746	622.522369	-2.797156	-3.827843	0.451336	0.614892	-0.449326
0.740	1.899372	0.842615	622.685942	-2.841051	-3.651577	0.456804	0.586424	-0.456257
0.750	1.657335	0.784199	622.694425	-2.874523	-3.501602	0.459705	0.562331	-0.461627
0.760	1.396371	0.780987	622.562446	-2.897049	-3.375010	0.460624	0.542116	-0.465343
0.770	1.121672	0.825503	622.348137	-2.910032	-3.267629	0.460304	0.525048	-0.467589
0.780	0.847206	0.899550	622.129213	-2.917081	-3.175823	0.459644	0.510476	-0.468887
0.790	0.592624	0.978168	621.972998	-2.923536	-3.097766	0.459637	0.498055	-0.470042
0.800	0.378705	1.035581	621.913960	-2.935418	-3.033871	0.461133	0.487828	-0.471997
0.810	0.222786	1.051623	621.947556	-2.958223	-2.986462	0.464455	0.480179	-0.475639
0.820	0.135347	1.016786	622.040736	-2.995876	-2.959057	0.469060	0.475702	-0.481621
0.830	0.118281	0.934360	622.151580	-3.049995	-2.955608	0.473495	0.475062	-0.490233
0.840	0.164909	0.818951	622.247079	-3.119489	-2.979803	0.475772	0.478878	-0.501326
0.850	0.261612	0.691883	622.310654	-3.200492	-3.034383	0.474029	0.487599	-0.514292
0.860	0.390885	0.575200	622.338194	-3.286716	-3.120379	0.467163	0.501396	-0.528124
0.870	0.535422	0.486474	622.328409	-3.370348	-3.236352	0.455142	0.520039	-0.541571
0.880	0.682353	0.435939	622.275591	-3.443592	-3.378014	0.438838	0.542848	-0.553387
0.890	0.826284	0.426152	622.169825	-3.500487	-3.538655	0.419500	0.568760	-0.562626
0.900	0.969867	0.453293	622.004099	-3.538301	-3.710418	0.398155	0.596526	-0.568855
0.910	1.121474	0.508996	621.783483	-3.557815	-3.885889	0.375305	0.624959	-0.572195
0.920	1.290869	0.582161	621.530575	-3.562359	-4.059312	0.351119	0.653115	-0.573159
0.930	1.484699	0.660815	621.283919	-3.556079	-4.227082	0.325925	0.680378	-0.572376
0.940	1.703649	0.734256	621.090095	-3.542174	-4.387629	0.300603	0.706440	-0.570316
0.950	1.942134	0.795344	620.992999	-3.521684	-4.541036	0.276534	0.731254	-0.567105
0.960	2.190138	0.842353	621.023760	-3.493165	-4.688752	0.255130	0.755004	-0.562485
0.970	2.436091	0.879633	621.192861	-3.453297	-4.833537	0.237282	0.778106	-0.555914
0.980	2.669739	0.916582	621.485152	-3.398207	-4.979443	0.223057	0.801217	-0.546788
0.990	2.884311	0.964947	621.859272	-3.325043	-5.131425	0.211827	0.825175	-0.534694
1.000	3.077686	1.035045	622.253542	-3.233331	-5.294363	0.202696	0.850837	-0.519616
1.010	3.252500	1.131955	622.598550	-3.125607	-5.471712	0.194989	0.878851	-0.502026
1.020	3.415171	1.253113	622.833175	-3.006934	-5.664319	0.188543	0.909444	-0.482783
1.030	3.573884	1.388606	622.918418	-2.883309	-5.869866	0.183676	0.942317	-0.462871
1.040	3.735888	1.524470	622.844384	-2.759660	-6.083071	0.180880	0.976660	-0.443074
1.050	3.904883	1.647727	622.629352	-2.638447	-6.296426	0.180425	1.011264	-0.423759
1.060	4.079435	1.750877	622.313117	-2.519652	-6.501223	0.182074	1.044687	-0.404885
1.070	4.253161	1.833842	621.947952	-2.402049	-6.688763	0.185024	1.075454	-0.386214
1.080	4.416791	1.902672	621.590013	-2.284867	-6.851660	0.188079	1.102280	-0.367584
1.090	4.561387	1.965853	621.292454	-2.168734	-6.985063	0.189999	1.124279	-0.349068
1.100	4.681335	2.030180	621.099806	-2.055387	-7.087500	0.189916	1.141121	-0.330927
1.110	4.775569	2.098269	621.042756	-1.946517	-7.161018	0.187704	1.153064	-0.313427
1.120	4.846351	2.168631	621.134065	-1.842611	-7.210424	0.184150	1.160848	-0.296653
1.130	4.896269	2.237648	621.367806	-1.742423	-7.241688	0.180816	1.165443	-0.280417
1.140	4.925165	2.301947	621.722659	-1.643271	-7.260009	0.179586	1.167725	-0.264309
1.150	4.928737	2.360004	622.166472	-1.541989	-7.268348	0.182047	1.168232	-0.247842
1.160	4.899856	2.412729	622.658132	-1.436243	-7.267204	0.188982	1.167126	-0.230663
1.170	4.832473	2.463255	623.146273	-1.325725	-7.255775	0.200213	1.164378	-0.212747
1.180	4.726575	2.516132	623.569189	-1.212707	-7.233953	0.214852	1.160088	-0.194478
1.190	4.591642	2.575948	623.861257	-1.101694	-7.204045	0.231751	1.154751	-0.176593
1.200	4.446154	2.645512	623.966981	-0.998342	-7.171279	0.249829	1.149304	-0.159999
1.210	4.312423	2.724106	623.857772	-0.908152	-7.142714	0.268114	1.144927	-0.145570
1.220	4.208510	2.806639	623.543198	-0.835422	-7.125010	0.285630	1.142665	-0.133980
1.230	4.141092	2.884328	623.069944	-0.782652	-7.122180	0.301376	1.143079	-0.125612
1.240	4.103207	2.946847	622.507426	-0.750386	-7.134476	0.314568	1.146087	-0.120543
1.250	4.078392	2.985133	621.926385	-0.737355	-7.158957	0.325034	1.151094	-0.118560
1.260	4.049161	2.993849	621.381560	-0.740897	-7.191270	0.333457	1.157303	-0.119234
1.270	4.005370	2.972769	620.907558	-0.757552	-7.227576	0.341261	1.164034	-0.122007
1.280	3.948373	2.926830	620.528095	-0.783645	-7.265544	0.350115	1.170865	-0.126287
1.290	3.889413	2.864896	620.269194	-0.815610	-7.304102	0.361293	1.177570	-0.131493
1.300	3.843656	2.797488	620.164280	-0.850015	-7.342400	0.375195	1.183944	-0.137063
1.310	3.823281	2.733887	620.245519	-0.883435	-7.378849	0.391219	1.189666	-0.142433
1.320	3.833028	2.679586	620.525985	-0.912482	-7.410850	0.407997	1.194285	-0.147050
1.330	3.869976	2.635346	620.984128	-0.934184	-7.435387	0.423816	1.197355	-0.150436
1.340	3.926968	2.598485	621.560832	-0.946668	-7.450189	0.437065	1.198626	-0.152305
1.350	3.997296	2.565537	622.171023	-0.949806	-7.454891	0.446606	1.198206	-0.152660
1.360	4.077590	2.534459	622.723005	-0.945471	-7.451540	0.452021	1.196606	-0.151829
1.370	4.167135	2.505044	623.136427	-0.937222	-7.444118	0.453693	1.194621	-0.150404
1.380	4.264337	2.477765	623.354314	-0.929425	-7.437224	0.452674	1.193097	-0.149101
1.390	4.363165	2.452383	623.350145	-0.925975	-7.434435	0.450361	1.192658	-0.148548
1.400	4.452440	2.427497	623.132434	-0.928988	-7.436867	0.448094	1.193465	-0.149084
1.410	4.518948	2.401298	622.746865	-0.937976	-7.442362	0.446830	1.195086	-0.150619
1.420	4.552832	2.372912	622.272913	-0.949881	-7.445648	0.446956	1.196524	-0.152647
1.430	4.552274	2.343450	621.811282	-0.959979	-7.439656	0.448225	1.196449	-0.154384
1.440	4.524708	2.316154	621.461654	-0.963363	-7.417824	0.449756	1.193609	-0.155016
1.450	4.483686	2.295517	621.296079	-0.956602	-7.376626	0.450177	1.187296	-0.153969
1.460	4.442886	2.285781	621.337945	-0.939091	-7.317316	0.447975	1.177671	-0.151140
1.470	4.410323	2.289353	621.555716	-0.913503	-7.246106	0.442041	1.165801	-0.146970
1.480	4.385594	2.305670	621.874585	-0.884957	-7.172578	0.432188	1.153380	-0.142305
1.490	4.361242	2.330895	622.201365	-0.858983	-7.106802	0.419372	1.142203	-0.138056
1.500	4.327037	2.358739	622.452844	-0.839131	-7.056114	0.405473	1.133598	-0.134810
1.510	4.274702	2.382297	622.577625	-0.825359	-7.022706	0.392723	1.128005	-0.132571
1.520	4.200866	2.396402	622.565735	-0.814072	-7.002923	0.383031	1.124849	-0.130761
1.530	4.107377	2.399671	622.445616	-0.799812	-6.988533	0.377411	1.122754	-0.128495
1.540	3.999668	2.395415	622.271748	-0.777772	-6.969510	0.375669	1.120011	-0.124989
1.550	3.884732	2.390868	622.107240	-0.745878	-6.937319	0.376399	1.115132	-0.119895
1.560	3.770041	2.394700	622.005729	-0.705413	-6.887603	0.377346	1.107321	-0.113409
1.570	3.663558	2.413595	621.996482	-0.659949	-6.821389	0.376115	1.096693	-0.106102
1.580	3.573701	2.449483	622.075980	-0.613350	-6.744499	0.371017	1.084192	-0.098597
1.590	3.507934	2.498933	622.208587	-0.568019	-6.665425	0.361672	1.071252	-0.091291
1.600	3.469824	2.554977	622.337574	-0.524289	-6.592404	0.349032	1.059297	-0.084245
1.610	3.456034	2.610156	622.404491	-0.480972	-6.530664	0.334828	1.049264	-0.077276
1.620	3.455449	2.659059	622.370477	-0.436518	-6.480798	0.320781	1.041309	-0.070138
1.630	3.451730	2.699241	622.230607	-0.390176	-6.438816	0.308021	1.034796	-0.062706
1.640	3.428487	2.730488	622.014530	-0.342786	-6.397729	0.296947	1.028550	-0.055109
1.650	3.374636	2.753350	621.773217	-0.297009	-6.349886	0.287475	1.021254	-0.047768
1.660	3.287604	2.768074	621.559068	-0.256881	-6.289093	0.279419	1.011826	-0.041328
1.670	3.173632	2.774479	621.410185	-0.226775	-6.211941	0.272755	0.999652	-0.036494
1.680	3.045788	2.772416	621.346079	-0.210140	-6.118219	0.267615	0.984672	-0.033820
1.690	2.920750	2.762026	621.373430	-0.208542	-6.010711	0.264064	0.967327	-0.033561
1.700	2.815187	2.743519	621.493492	-0.221466	-5.894692	0.261839	0.948472	-0.035634
1.710	2.742470	2.716822	621.703290	-0.246997	-5.777335	0.260238	0.929275	-0.039729
1.720	2.710454	2.681571	621.989876	-0.282984	-5.666977	0.258307	0.911104	-0.045497
1.730	2.720706	2.637501	622.323650	-0.327861	-5.572031	0.255239	0.895359	-0.052683
1.740	2.768984	2.585057	622.657568	-0.380520	-5.499467	0.250765	0.883225	-0.061112
1.750	2.846339	2.526103	622.934557	-0.439342	-5.453119	0.245245	0.875392	-0.070528
1.760	2.940388	2.464545	623.100437	-0.501308	-5.432354	0.239424	0.871826	-0.080454
1.770	3.036886	2.406466	623.117907	-0.562094	-5.431675	0.234058	0.871693	-0.090207
1.780	3.122052	2.359294	622.978072	-0.617290	-5.441599	0.229677	0.873482	-0.099087
1.790	3.185723	2.329794	622.706518	-0.664002	-5.450783	0.226597	0.875337	-0.106632
1.800	3.224311	2.321389	622.360679	-0.701847	-5.448917	0.225098	0.875524	-0.112772
1.810	3.241815	2.331947	622.016862	-0.732832	-5.429540	0.225602	0.872893	-0.117815
1.820	3.247730	2.353283	621.749680	-0.760373	-5.391711	0.228692	0.867184	-0.122296
1.830	3.252399	2.373096	621.610828	-0.788065	-5.339840	0.234910	0.859033	-0.126778
1.840	3.261880	2.378870	621.614952	-0.818676	-5.281673	0.244423	0.849670	-0.131701
1.850	3.274746	2.362157	621.737828	-0.853500	-5.225188	0.256815	0.840417	-0.137276
1.860	3.282354	2.321386	621.927717	-0.892114	-5.175627	0.271219	0.832191	-0.143443
1.870	3.272592	2.262163	622.125887	-0.932605	-5.133802	0.286717	0.825203	-0.149906
1.880	3.235622	2.195252	622.288023	-0.972265	-5.096344	0.302729	0.818969	-0.156240
1.890	3.169132	2.133104	622.397115	-1.008528	-5.057743	0.319072	0.812623	-0.162039
1.900	3.080632	2.085972	622.462378	-1.039830	-5.013313	0.335608	0.805400	-0.167051
1.910	2.985682	2.058693	622.506229	-1.066120	-4.961845	0.351757	0.797076	-0.171263
1.920	2.902920	2.049224	622.547357	-1.088878	-4.906798	0.366246	0.788181	-0.174907
1.930	2.848136	2.049539	622.588916	-1.110578	-4.855408	0.377332	0.779874	-0.178381
1.940	2.829460	2.048711	622.617386	-1.133729	-4.815986	0.383429	0.773507	-0.182091
1.950	2.844598	2.037110	622.611987	-1.159844	-4.794495	0.383857	0.770061	-0.186287
1.960	2.880346	2.010260	622.559090	-1.188814	-4.791890	0.379314	0.769709	-0.190956
1.970	2.914740	1.970875	622.463439	-1.219041	-4.803410	0.371795	0.771678	-0.195841
1.980	2.922270	1.928103	622.349628	-1.248296	-4.820172	0.363881	0.774512	-0.200578
1.990	2.881708	1.893979	622.252276	-1.274850	-4.832376	0.357699	0.776594	-0.204877
2.000	2.784419	1.878466	622.199202	-1.298326	-4.832718	0.354049	0.776716	-0.208667
2.010	2.639679	1.885289	622.195923	-1.319788	-4.818642	0.352137	0.774457	-0.212118
2.020	2.473852	1.910461	622.219984	-1.341055	-4.792701	0.350006	0.770258	-0.215528
2.030	2.322669	1.943988	622.229258	-1.363663	-4.761175	0.345411	0.765180	-0.219158
2.040	2.219143	1.973836	622.180955	-1.388112	-4.731613	0.336764	0.760488	-0.223104
2.050	2.182068	1.990393	622.051635	-1.413821	-4.710249	0.323807	0.757212	-0.227284
2.060	2.210025	1.989685	621.847624	-1.439753	-4.700197	0.307802	0.755844	-0.231528
2.070	2.283336	1.974177	621.601071	-1.465280	-4.700965	0.291154	0.756267	-0.235727
2.080	2.372756	1.950995	621.355761	-1.490693	-4.709233	0.276611	0.757896	-0.239910
2.090	2.450659	1.928477	621.152219	-1.516920	-4.720317	0.266351	0.759929	-0.244211
2.100	2.499792	1.912615	621.019660	-1.544521	-4.729645	0.261329	0.761593	-0.248707
2.110	2.516444	1.904874	620.975339	-1.572580	-4.733782	0.261141	0.762314	-0.253243
2.120	2.507937	1.902189	621.026824	-1.598260	-4.730870	0.264406	0.761782	-0.257358
2.130	2.486858	1.899048	621.173472	-1.617406	-4.720574	0.269428	0.759945	-0.260379
2.140	2.465273	1.890638	621.407048	-1.626010	-4.703787	0.274813	0.756958	-0.261666
2.150	2.451400	1.875520	621.712800	-1.621883	-4.682414	0.279822	0.753147	-0.260873
2.160	2.449398	1.856403	622.070415	-1.605722	-4.659363	0.284430	0.749009	-0.258125
2.170	2.461234	1.838574	622.453134	-1.581051	-4.638611	0.289140	0.745214	-0.254003
2.180	2.488594	1.826843	622.825189	-1.553047	-4.624930	0.294638	0.742573	-0.249355
2.190	2.533172	1.822661	623.140673	-1.526777	-4.622965	0.301398	0.741881	-0.245013
2.200	2.594990	1.822792	623.347875	-1.505546	-4.635744	0.309369	0.743685	-0.241526
2.210	2.670173	1.820035	623.400925	-1.489963	-4.663239	0.317883	0.748032	-0.239006
2.220	2.750308	1.805683	623.275944	-1.478134	-4.701790	0.325784	0.754367	-0.237156
2.230	2.824503	1.772943	622.984598	-1.466962	-4.744957	0.331710	0.761649	-0.235473
2.240	2.883138	1.720169	622.577909	-1.453982	-4.785643	0.334401	0.768682	-0.233542
2.250	2.920860	1.652625	622.137426	-1.438703	-4.818491	0.332985	0.774506	-0.231252
2.260	2.936890	1.581795	621.755993	-1.422690	-4.841344	0.327197	0.778657	-0.228818
2.270	2.932845	1.522269	621.513627	-1.408445	-4.855163	0.317514	0.781184	-0.226615
2.280	2.910086	1.487247	621.455568	-1.397827	-4.862856	0.305175	0.782495	-0.224928
2.290	2.868801	1.484354	621.579733	-1.390931	-4.868009	0.292071	0.783167	-0.223774
2.300	2.809386	1.513416	621.838277	-1.385916	-4.874191	0.280476	0.783836	-0.222874
2.310	2.734755	1.567028	622.152886	-1.379789	-4.884763	0.272624	0.785139	-0.221777
2.320	2.651363	1.633435	622.438417	-1.369736	-4.902696	0.270225	0.787660	-0.220060
2.330	2.567654	1.700214	622.627018	-1.354348	-4.930002	0.274045	0.791807	-0.217521
2.340	2.490616	1.757285	622.685250	-1.334212	-4.966919	0.283685	0.797661	-0.214267
2.350	2.422727	1.798497	622.619176	-1.311662	-5.011417	0.297618	0.804893	-0.210668
2.360	2.361681	1.821864	622.466734	-1.289907	-5.059540	0.313496	0.812821	-0.207225
2.370	2.303658	1.828885	622.281506	-1.271931	-5.106640	0.328691	0.820632	-0.204398
2.380	2.248514	1.823430	622.114855	-1.259537	-5.149017	0.340983	0.827663	-0.202461
2.390	2.203617	1.810516	622.003080	-1.252743	-5.185232	0.349113	0.833635	-0.201405
2.400	2.183542	1.795331	621.963137	-1.249561	-5.216540	0.352956	0.838722	-0.200906
