Time[s]	Fx[N]	Fy[N]	Fz[N]	Mx[Nm]	My[Nm]	Mz[Nm]	COPx[cm]	COPy[cm]
0.010	3.536132	1.546426	620.313839	-0.427281	-7.602011	0.262057	1.225511	-0.068881
0.020	3.632894	1.647330	620.810000	-0.438785	-7.716999	0.278892	1.243053	-0.070679
0.030	3.721334	1.741091	621.230088	-0.449587	-7.831820	0.295878	1.260696	-0.072370
0.040	3.795753	1.820931	621.523045	-0.458309	-7.946048	0.312706	1.278480	-0.073740
0.050	3.854605	1.881500	621.675882	-0.462272	-8.058972	0.328533	1.296330	-0.074359
0.060	3.901468	1.920686	621.712624	-0.457705	-8.169996	0.342319	1.314111	-0.073620
0.070	3.944677	1.941390	621.680258	-0.440775	-8.279191	0.353307	1.331744	-0.070901
0.080	3.995263	1.952134	621.629133	-0.409290	-8.387540	0.361337	1.349284	-0.065841
0.090	4.063319	1.965551	621.595963	-0.364426	-8.496566	0.366868	1.366895	-0.058627
0.100	4.153777	1.994661	621.594318	-0.311583	-8.607500	0.370760	1.384746	-0.050126
0.110	4.263487	2.047990	621.613937	-0.259600	-8.720423	0.373962	1.402868	-0.041762
0.120	4.381427	2.125479	621.628285	-0.218350	-8.833899	0.377256	1.421090	-0.035126
0.130	4.492497	2.217237	621.608048	-0.195645	-8.945345	0.381165	1.439065	-0.031474
0.140	4.583378	2.306180	621.535756	-0.194853	-9.052039	0.385995	1.456399	-0.031350
0.150	4.647832	2.373645	621.415234	-0.214301	-9.152354	0.391890	1.472824	-0.034486
0.160	4.689075	2.405401	621.271241	-0.248540	-9.246624	0.398789	1.488339	-0.040005
0.170	4.718231	2.395421	621.139305	-0.290595	-9.337156	0.406302	1.503231	-0.046784
0.180	4.749599	2.346334	621.050902	-0.334073	-9.427342	0.413640	1.517966	-0.053792
0.190	4.794796	2.267285	621.021363	-0.374408	-9.520247	0.419705	1.532998	-0.060289
0.200	4.858259	2.170839	621.046148	-0.409249	-9.617363	0.423380	1.548575	-0.065897
0.210	4.935882	2.070276	621.106582	-0.438362	-9.718087	0.423932	1.564641	-0.070578
0.220	5.017020	1.977890	621.181468	-0.463313	-9.820014	0.421382	1.580861	-0.074586
0.230	5.088537	1.903997	621.258067	-0.486889	-9.919626	0.416662	1.596700	-0.078371
0.240	5.139025	1.856099	621.336611	-0.512143	-10.012846	0.411424	1.611501	-0.082426
0.250	5.161660	1.837896	621.426547	-0.541175	-10.095234	0.407527	1.624526	-0.087086
0.260	5.155047	1.848322	621.537723	-0.574116	-10.162172	0.406387	1.635005	-0.092370
0.270	5.122291	1.880968	621.672070	-0.608916	-10.209425	0.408433	1.642252	-0.097948
0.280	5.069224	1.924380	621.819815	-0.642293	-10.234191	0.412858	1.645845	-0.103292
0.290	5.002756	1.963783	621.960560	-0.671592	-10.236231	0.417739	1.645801	-0.107980
0.300	4.929872	1.984443	622.067238	-0.696714	-10.218462	0.420514	1.642662	-0.112000
0.310	4.857284	1.975936	622.110995	-0.721139	-10.186602	0.418727	1.637425	-0.115918
0.320	4.791488	1.935527	622.066519	-0.751432	-10.147934	0.410848	1.631326	-0.120796
0.330	4.738926	1.868908	621.918136	-0.795303	-10.109671	0.396877	1.625563	-0.127879
0.340	4.705777	1.787805	621.666408	-0.858843	-10.077398	0.378534	1.621030	-0.138152
0.350	4.696960	1.705645	621.333613	-0.943956	-10.053958	0.358940	1.618126	-0.151924
0.360	4.714271	1.633141	620.965215	-1.047029	-10.038914	0.341919	1.616663	-0.168613
0.370	4.754405	1.575266	620.624487	-1.159469	-10.028640	0.331043	1.615895	-0.186823
0.380	4.808110	1.530332	620.379620	-1.269965	-10.017099	0.328629	1.614673	-0.204708
0.390	4.861474	1.491324	620.286614	-1.367615	-9.997371	0.334984	1.611734	-0.220481
0.400	4.899324	1.449351	620.374095	-1.444639	-9.963707	0.348256	1.606081	-0.232866
0.410	4.909487	1.398349	620.635479	-1.497719	-9.913508	0.365030	1.597316	-0.241320
0.420	4.886013	1.339171	621.030250	-1.527745	-9.848412	0.381426	1.585818	-0.246002
0.430	4.829912	1.280772	621.492746	-1.538533	-9.774045	0.394225	1.572672	-0.247555
0.440	4.747255	1.237357	621.945675	-1.535345	-9.698504	0.401597	1.559381	-0.246862
0.450	4.645772	1.222535	622.315545	-1.523661	-9.630168	0.403284	1.547473	-0.244837
0.460	4.531777	1.243337	622.546508	-1.508217	-9.575557	0.400372	1.538127	-0.242266
0.470	4.409020	1.297030	622.608834	-1.492149	-9.537881	0.394811	1.531922	-0.239661
0.480	4.280035	1.371917	622.499855	-1.476349	-9.516670	0.388805	1.528783	-0.237165
0.490	4.148890	1.451381	622.238597	-1.459331	-9.508484	0.384179	1.528109	-0.234529
0.500	4.023145	1.519287	621.857913	-1.437824	-9.508292	0.381859	1.529014	-0.231214
0.510	3.913164	1.564850	621.398264	-1.408005	-9.510936	0.381689	1.530570	-0.226587
0.520	3.828833	1.585600	620.905229	-1.366999	-9.512218	0.382587	1.531992	-0.220162
0.530	3.775484	1.587763	620.429771	-1.314098	-9.509420	0.382928	1.532715	-0.211804
0.540	3.751288	1.584042	620.028023	-1.251267	-9.501342	0.380956	1.532405	-0.201808
0.550	3.747452	1.589499	619.757063	-1.182775	-9.488074	0.375209	1.530934	-0.190845
0.560	3.751207	1.616906	619.665272	-1.114127	-9.470778	0.364968	1.528370	-0.179795
0.570	3.750512	1.673008	619.779574	-1.050663	-9.451501	0.350667	1.524978	-0.169522
0.580	3.738642	1.756663	620.094790	-0.996218	-9.432887	0.334103	1.521201	-0.160656
0.590	3.716590	1.859055	620.570240	-0.952127	-9.417683	0.318245	1.517585	-0.153428
0.600	3.691934	1.965692	621.135853	-0.916816	-9.408124	0.306558	1.514665	-0.147603
0.610	3.674539	2.059681	621.705924	-0.886211	-9.405444	0.301954	1.512844	-0.142545
0.620	3.671378	2.125804	622.195823	-0.855116	-9.409710	0.305733	1.512339	-0.137435
0.630	3.683410	2.154676	622.536639	-0.819274	-9.420072	0.317017	1.513176	-0.131603
0.640	3.706224	2.145789	622.684968	-0.777282	-9.435278	0.333014	1.515257	-0.124827
0.650	3.733707	2.108091	622.627535	-0.731349	-9.454169	0.349991	1.518431	-0.117462
0.660	3.762255	2.057388	622.381278	-0.686377	-9.475911	0.364510	1.522525	-0.110282
0.670	3.792799	2.011180	621.988680	-0.647787	-9.499950	0.374397	1.527351	-0.104148
0.680	3.829430	1.982782	621.508026	-0.619168	-9.525897	0.379149	1.532707	-0.099624
0.690	3.875611	1.977035	621.000494	-0.600781	-9.553549	0.379694	1.538412	-0.096744
0.700	3.930556	1.989331	620.518432	-0.589355	-9.582988	0.377724	1.544352	-0.094978
0.710	3.988282	2.008402	620.099072	-0.579057	-9.614576	0.374949	1.550490	-0.093381
0.720	4.040085	2.021752	619.765199	-0.563253	-9.648643	0.372588	1.556822	-0.090882
0.730	4.078948	2.021365	619.531153	-0.536558	-9.684881	0.371208	1.563260	-0.086607
0.740	4.103196	2.007072	619.410530	-0.496616	-9.721746	0.370848	1.569516	-0.080176
0.750	4.117081	1.986067	619.421376	-0.444939	-9.756386	0.371266	1.575081	-0.071831
0.760	4.127912	1.968999	619.585462	-0.386345	-9.785400	0.372179	1.579346	-0.062355
0.770	4.141580	1.964716	619.920281	-0.327030	-9.806330	0.373391	1.581870	-0.052754
0.780	4.159359	1.976315	620.425322	-0.272071	-9.819282	0.374795	1.582669	-0.043852
0.790	4.177822	2.000270	621.067676	-0.223547	-9.827870	0.376320	1.582415	-0.035994
0.800	4.191468	2.028759	621.774528	-0.180131	-9.838840	0.377919	1.582381	-0.028970
0.810	4.196030	2.053731	622.439379	-0.138074	-9.860186	0.379567	1.584120	-0.022183
0.820	4.190398	2.070564	622.943882	-0.092870	-9.898278	0.381195	1.588952	-0.014908
0.830	4.176530	2.079698	623.189482	-0.040821	-9.955132	0.382542	1.597449	-0.006550
0.840	4.158184	2.085849	623.126818	0.019886	-10.027116	0.383038	1.609161	0.003191
0.850	4.139959	2.095539	622.770745	0.088698	-10.105909	0.381861	1.622733	0.014242
0.860	4.127511	2.114224	622.195268	0.162881	-10.181489	0.378175	1.636382	0.026178
0.870	4.128400	2.144128	621.511675	0.238365	-10.245826	0.371467	1.648533	0.038352
0.880	4.152091	2.183423	620.839038	0.311023	-10.295547	0.361773	1.658328	0.050097
0.890	4.207993	2.227031	620.277016	0.377894	-10.332409	0.349678	1.665773	0.060923
0.900	4.301892	2.268903	619.887629	0.437936	-10.361654	0.336054	1.671537	0.070648
0.910	4.432512	2.304974	619.688877	0.492152	-10.389315	0.321688	1.676537	0.079419
0.920	4.590218	2.335338	619.660308	0.543290	-10.419801	0.307023	1.681534	0.087676
0.930	4.758928	2.364332	619.758109	0.595319	-10.454682	0.292204	1.686897	0.096057
0.940	4.920657	2.398365	619.933873	0.652725	-10.492889	0.277404	1.692582	0.105289
0.950	5.060734	2.442702	620.149130	0.719663	-10.531856	0.263214	1.698278	0.116047
0.960	5.171393	2.498941	620.380103	0.799089	-10.568808	0.250807	1.703602	0.128806
0.970	5.252372	2.564349	620.613317	0.892145	-10.601469	0.241734	1.708225	0.143752
0.980	5.308750	2.633017	620.837954	0.997973	-10.627957	0.237397	1.711873	0.160746
0.990	5.347513	2.697968	621.041532	1.114009	-10.646208	0.238461	1.714251	0.179377
1.000	5.374439	2.753307	621.211950	1.236635	-10.653562	0.244501	1.714964	0.199068
1.010	5.392276	2.795793	621.344151	1.361813	-10.646948	0.254082	1.713535	0.219172
1.020	5.400373	2.825351	621.446147	1.485217	-10.623624	0.265263	1.709500	0.238994
1.030	5.395558	2.844254	621.538709	1.601750	-10.582042	0.276293	1.702556	0.257707
1.040	5.373855	2.855375	621.646591	1.704961	-10.522396	0.286192	1.692665	0.274265
1.050	5.332616	2.860572	621.784977	1.787299	-10.446667	0.294947	1.680109	0.287446
1.060	5.272455	2.860237	621.948957	1.841723	-10.358249	0.303221	1.665450	0.296121
1.070	5.198301	2.854313	622.112617	1.864193	-10.261344	0.311732	1.649435	0.299655
1.080	5.119001	2.844276	622.238294	1.855781	-10.160263	0.320617	1.632857	0.298243
1.090	5.045311	2.834909	622.290096	1.823150	-10.058644	0.329096	1.616391	0.292974
1.100	4.986662	2.834520	622.244160	1.776910	-9.958675	0.335562	1.600445	0.285565
1.110	4.947563	2.852840	622.092048	1.728402	-9.860562	0.338064	1.585065	0.277837
1.120	4.924884	2.897117	621.839043	1.686203	-9.762444	0.334997	1.569931	0.271164
1.130	4.907291	2.968122	621.501418	1.653819	-9.660822	0.325809	1.554433	0.266101
1.140	4.877701	3.058143	621.105758	1.629432	-9.551317	0.311437	1.537792	0.262344
1.150	4.818559	3.152185	620.690676	1.607668	-9.429504	0.294212	1.519195	0.259013
1.160	4.718176	3.232038	620.308163	1.582555	-9.291617	0.277192	1.497903	0.255124
1.170	4.575116	3.281591	620.020071	1.550432	-9.135132	0.263172	1.473361	0.250062
1.180	4.398168	3.291362	619.886877	1.511659	-8.959367	0.253858	1.445323	0.243860
1.190	4.201791	3.260858	619.950782	1.470494	-8.766036	0.249536	1.413989	0.237195
1.200	3.999694	3.198308	620.219811	1.433324	-8.559484	0.249328	1.380073	0.231099
1.210	3.800103	3.118132	620.660619	1.406135	-8.346204	0.251812	1.344729	0.226555
1.220	3.604990	3.036992	621.204323	1.392336	-8.133543	0.255714	1.309318	0.224135
1.230	3.412921	2.969478	621.763895	1.391668	-7.927965	0.260393	1.275077	0.223826
1.240	3.223194	2.924560	622.256413	1.400293	-7.733624	0.265951	1.242836	0.225035
1.250	3.038579	2.903889	622.621333	1.411747	-7.551890	0.272964	1.212919	0.226743
1.260	2.865269	2.902417	622.828269	1.418530	-7.381997	0.281942	1.185238	0.227756
1.270	2.710498	2.910856	622.873695	1.414137	-7.222393	0.292775	1.159528	0.227034
1.280	2.579342	2.918877	622.771972	1.395155	-7.072089	0.304449	1.135582	0.224023
1.290	2.472176	2.917989	622.547785	1.362640	-6.931403	0.315271	1.113393	0.218881
1.300	2.383825	2.903667	622.233392	1.322054	-6.801831	0.323557	1.093132	0.212469
1.310	2.304971	2.876599	621.868938	1.281649	-6.685261	0.328404	1.075027	0.206096
1.320	2.225764	2.842706	621.501828	1.249909	-6.583075	0.330049	1.059221	0.201111
1.330	2.140381	2.811544	621.182214	1.233017	-6.495660	0.329574	1.045693	0.198495
1.340	2.050310	2.793280	620.954028	1.233217	-6.422506	0.328212	1.034296	0.198600
1.350	1.964466	2.795303	620.843437	1.248639	-6.362653	0.326738	1.024840	0.201120
1.360	1.895875	2.819877	620.848935	1.274607	-6.315095	0.325305	1.017171	0.205301
1.370	1.856478	2.863885	620.938579	1.305867	-6.278807	0.323675	1.011180	0.210305
1.380	1.852547	2.920846	621.058584	1.338768	-6.252383	0.321592	1.006730	0.215562
1.390	1.882804	2.984249	621.153013	1.372483	-6.233525	0.319034	1.003541	0.220957
1.400	1.939793	3.050204	621.188011	1.408921	-6.218737	0.316299	1.001104	0.226811
1.410	2.013368	3.117655	621.169470	1.451538	-6.203486	0.313989	0.998679	0.233678
1.420	2.094395	3.186027	621.144340	1.503700	-6.182903	0.312953	0.995405	0.242085
1.430	2.177289	3.252029	621.183172	1.567211	-6.152861	0.314157	0.990507	0.252294
1.440	2.260791	3.307923	621.350368	1.641379	-6.111219	0.318414	0.983538	0.264163
1.450	2.347025	3.342647	621.673767	1.722827	-6.058947	0.326011	0.974618	0.277127
1.460	2.439446	3.345605	622.125052	1.806056	-6.000725	0.336360	0.964553	0.290304
1.470	2.540635	3.311652	622.618793	1.884637	-5.944576	0.347906	0.954770	0.302695
1.480	2.650691	3.245099	623.032053	1.952653	-5.900335	0.358399	0.947036	0.313411
1.490	2.766369	3.160640	623.239311	2.005875	-5.877317	0.365516	0.943027	0.321847
1.500	2.880679	3.080168	623.150997	2.042327	-5.881883	0.367607	0.943894	0.327742
1.510	2.982977	3.026210	622.742018	2.062217	-5.915631	0.364237	0.949933	0.331151
1.520	3.060065	3.014577	622.060797	2.067537	-5.974749	0.356246	0.960477	0.332369
1.530	3.098780	3.049491	621.217286	2.061560	-6.050717	0.345307	0.974010	0.331858
1.540	3.089833	3.123303	620.355887	2.048335	-6.132256	0.333220	0.988506	0.330187
1.550	3.031649	3.220558	619.622924	2.032139	-6.208120	0.321357	1.001919	0.327964
1.560	2.932611	3.324009	619.137502	2.016892	-6.270084	0.310485	1.012713	0.325758
1.570	2.810438	3.419615	618.970913	2.005593	-6.315232	0.300937	1.020279	0.324021
1.580	2.688369	3.498686	619.136358	1.999847	-6.346653	0.292915	1.025082	0.323006
1.590	2.589227	3.557257	619.589109	1.999641	-6.372154	0.286712	1.028448	0.322737
1.600	2.529335	3.594174	620.236562	2.003427	-6.401466	0.282796	1.032101	0.323010
1.610	2.514413	3.609660	620.957114	2.008432	-6.443013	0.281727	1.037594	0.323441
1.620	2.538873	3.605094	621.625415	2.011015	-6.501455	0.283863	1.045880	0.323509
1.630	2.588859	3.583367	622.139229	2.006961	-6.576851	0.288963	1.057135	0.322590
1.640	2.648146	3.548611	622.440689	1.991789	-6.665557	0.295907	1.070874	0.319997
1.650	2.704888	3.504781	622.524289	1.961232	-6.762292	0.302827	1.086270	0.315045
1.660	2.756413	3.453854	622.427565	1.911923	-6.862424	0.307668	1.102526	0.307172
1.670	2.809763	3.394789	622.207932	1.842070	-6.963572	0.308925	1.119171	0.296054
1.680	2.877619	3.323966	621.916727	1.751712	-7.066020	0.306153	1.136168	0.281663
1.690	2.971762	3.236909	621.583294	1.642385	-7.171838	0.300016	1.153802	0.264226
1.700	3.097322	3.130703	621.215573	1.516416	-7.283039	0.291942	1.172385	0.244105
1.710	3.250137	3.006195	620.813734	1.376437	-7.399536	0.283630	1.191909	0.221715
1.720	3.417680	2.868943	620.387251	1.225530	-7.517780	0.276623	1.211788	0.197543
1.730	3.582620	2.728253	619.966235	1.067870	-7.630731	0.271997	1.230830	0.172247
1.740	3.727619	2.594831	619.602337	0.909226	-7.729259	0.270085	1.247455	0.146743
1.750	3.840021	2.478383	619.359359	0.756579	-7.804575	0.270268	1.260105	0.122155
1.760	3.915145	2.386092	619.297273	0.616704	-7.850956	0.270958	1.267720	0.099581
1.770	3.957172	2.321839	619.454902	0.494273	-7.867955	0.270007	1.270142	0.079792
1.780	3.977339	2.285617	619.836389	0.390474	-7.861334	0.265520	1.268292	0.062996
1.790	3.990239	2.273109	620.405559	0.302882	-7.842226	0.256718	1.264048	0.048820
1.800	4.009687	2.275907	621.090331	0.226563	-7.824560	0.244397	1.259810	0.036478
1.810	4.045511	2.282676	621.796318	0.155729	-7.821418	0.230761	1.257875	0.025045
1.820	4.101845	2.280873	622.425813	0.085212	-7.841485	0.218763	1.259826	0.013690
1.830	4.176792	2.258628	622.896854	0.011395	-7.886748	0.211234	1.266140	0.001829
1.840	4.263183	2.206906	623.157687	-0.067301	-7.952171	0.210061	1.276109	-0.010800
1.850	4.350284	2.122093	623.194174	-0.150209	-8.027366	0.215627	1.288100	-0.024103
1.860	4.426267	2.008388	623.030176	-0.234578	-8.099631	0.226687	1.300038	-0.037651
1.870	4.481050	1.878613	622.721621	-0.316383	-8.157357	0.240741	1.309952	-0.050807
1.880	4.508870	1.752310	622.344465	-0.391862	-8.192802	0.254774	1.316442	-0.062966
1.890	4.509865	1.651025	621.977680	-0.459238	-8.203497	0.266111	1.318937	-0.073835
1.900	4.490024	1.592036	621.685360	-0.519642	-8.192037	0.273090	1.317714	-0.083586
1.910	4.459444	1.582745	621.503831	-0.576440	-8.164550	0.275415	1.313677	-0.092749
1.920	4.429507	1.618092	621.437536	-0.633094	-8.128478	0.274186	1.308012	-0.101876
1.930	4.409824	1.682316	621.462952	-0.690823	-8.090333	0.271623	1.301821	-0.111161
1.940	4.405497	1.754491	621.537206	-0.747547	-8.053985	0.270503	1.295817	-0.120274
1.950	4.415136	1.815555	621.608868	-0.798723	-8.019839	0.273385	1.290175	-0.128493
1.960	4.430277	1.853904	621.630420	-0.839333	-7.985124	0.281843	1.284545	-0.135021
1.970	4.437004	1.867578	621.571546	-0.865731	-7.945079	0.296040	1.278224	-0.139281
1.980	4.419875	1.862735	621.429841	-0.876393	-7.894552	0.314809	1.270385	-0.141029
1.990	4.367179	1.849736	621.233904	-0.871515	-7.829436	0.336193	1.260304	-0.140288
2.000	4.275683	1.838747	621.035993	-0.852161	-7.747712	0.358174	1.247546	-0.137216
2.010	4.152878	1.836528	620.896106	-0.819907	-7.650058	0.379331	1.232099	-0.132052
2.020	4.015399	1.845240	620.863125	-0.777298	-7.539986	0.399180	1.214436	-0.125196
2.030	3.883623	1.863194	620.959531	-0.728580	-7.423430	0.418078	1.195477	-0.117331
2.040	3.774311	1.886728	621.174779	-0.679619	-7.307729	0.436679	1.176437	-0.109409
2.050	3.694421	1.912232	621.469396	-0.636397	-7.200151	0.455203	1.158569	-0.102402
2.060	3.639054	1.937581	621.787903	-0.602541	-7.106244	0.472891	1.142873	-0.096905
2.070	3.594499	1.962798	622.075263	-0.577326	-7.028500	0.487984	1.129847	-0.092806
2.080	3.544795	1.990208	622.290535	-0.555568	-6.965823	0.498289	1.119384	-0.089278
2.090	3.478655	2.024347	622.413071	-0.529764	-6.914023	0.502024	1.110841	-0.085114
2.100	3.393773	2.071306	622.439768	-0.493446	-6.867204	0.498506	1.103272	-0.079276
2.110	3.297106	2.137048	622.375975	-0.444047	-6.819520	0.488351	1.095724	-0.071347
2.120	3.201681	2.224927	622.226542	-0.383977	-6.766611	0.473207	1.087484	-0.061710
2.130	3.121890	2.333478	621.994389	-0.319715	-6.706268	0.455269	1.078188	-0.051402
2.140	3.069354	2.455444	621.689363	-0.259673	-6.638328	0.436883	1.067789	-0.041769
2.150	3.050381	2.578304	621.341741	-0.211813	-6.564221	0.420290	1.056459	-0.034090
2.160	3.064867	2.686362	621.009007	-0.181801	-6.486575	0.407392	1.044522	-0.029275
2.170	3.106102	2.764384	620.766883	-0.172076	-6.409034	0.399398	1.032438	-0.027720
2.180	3.161351	2.802131	620.685055	-0.181938	-6.336148	0.396404	1.020831	-0.029312
2.190	3.213577	2.798006	620.797941	-0.208423	-6.273056	0.397146	1.010483	-0.033573
2.200	3.244571	2.759707	621.084915	-0.247523	-6.224724	0.399228	1.002234	-0.039853
2.210	3.239162	2.701071	621.470842	-0.295294	-6.194701	0.399897	0.996781	-0.047515
2.220	3.189385	2.636422	621.848974	-0.348583	-6.183686	0.397069	0.994403	-0.056056
2.230	3.097205	2.575342	622.118427	-0.405249	-6.188434	0.390078	0.994736	-0.065140
2.240	2.974764	2.520439	622.221490	-0.463859	-6.201613	0.379777	0.996689	-0.074549
2.250	2.842004	2.468872	622.165559	-0.523087	-6.213046	0.368028	0.998616	-0.084075
2.260	2.722299	2.416228	622.020743	-0.581278	-6.212264	0.356962	0.998723	-0.093450
2.270	2.637033	2.360314	621.893542	-0.636610	-6.191649	0.348354	0.995612	-0.102366
2.280	2.600302	2.302940	621.885407	-0.687905	-6.149085	0.343199	0.988781	-0.110616
2.290	2.615344	2.249291	622.050661	-0.735590	-6.089079	0.341447	0.978872	-0.118252
2.300	2.674162	2.205692	622.369957	-0.782049	-6.021824	0.341939	0.967563	-0.125657
2.310	2.760694	2.176957	622.751368	-0.830929	-5.960417	0.342663	0.957110	-0.133429
2.320	2.856212	2.164201	623.060799	-0.885655	-5.917166	0.341366	0.949693	-0.142146
2.330	2.944666	2.163671	623.170140	-0.947954	-5.900258	0.336301	0.946813	-0.152118
2.340	3.016054	2.166937	623.002505	-1.017180	-5.911879	0.326844	0.948933	-0.163271
2.350	3.067180	2.162623	622.555496	-1.090658	-5.948206	0.313733	0.955450	-0.175191
2.360	3.100312	2.139352	621.895548	-1.164826	-6.000991	0.298805	0.964952	-0.187302
2.370	3.120620	2.089048	621.131078	-1.236662	-6.060048	0.284260	0.975647	-0.199098
2.380	3.133248	2.009517	620.379949	-1.304958	-6.115852	0.271674	0.985824	-0.210348
2.390	3.140893	1.905539	619.744303	-1.371016	-6.161582	0.261200	0.994214	-0.221223
2.400	3.142828	1.788086	619.297706	-1.438506	-6.194173	0.251409	1.000193	-0.232280
2.410	3.135804	1.671766	619.082523	-1.512386	-6.214307	0.239961	1.003793	-0.244295
2.420	3.116398	1.570915	619.112330	-1.597199	-6.225548	0.224827	1.005560	-0.257982
