Time[s]	Fx[N]	Fy[N]	Fz[N]	Mx[Nm]	My[Nm]	Mz[Nm]	COPx[cm]	COPy[cm]
0.010	10.153851	-1.243615	684.817053	3.004260	-18.208881	-0.118777	2.658941	0.438695
0.020	10.017195	-0.759169	682.688133	3.203999	-17.345071	-0.095315	2.540702	0.469321
0.030	9.733166	-0.302961	680.637421	3.410106	-16.423127	-0.071177	2.412904	0.501017
0.040	9.206737	0.096033	678.818178	3.629229	-15.408004	-0.046954	2.269828	0.534639
0.050	8.422406	0.411637	677.492831	3.868076	-14.300618	-0.025151	2.110815	0.570940
0.060	7.444852	0.624452	676.992358	4.132392	-13.137611	-0.009710	1.940585	0.610405
0.070	6.388548	0.727225	677.615316	4.425201	-11.978090	-0.004586	1.767683	0.653055
0.080	5.368278	0.729670	679.509903	4.744953	-10.883543	-0.011946	1.601675	0.698290
0.090	4.452074	0.659888	682.592249	5.084449	-9.899214	-0.030811	1.450238	0.744874
0.100	3.637967	0.560152	686.538128	5.431122	-9.043625	-0.056830	1.317279	0.791088
0.110	2.864923	0.477243	690.852809	5.768663	-8.308815	-0.083402	1.202690	0.835006
0.120	2.051683	0.450235	694.990955	6.079603	-7.669311	-0.103690	1.103512	0.874774
0.130	1.144155	0.499946	698.480149	6.348293	-7.094812	-0.112623	1.015750	0.908872
0.140	0.149257	0.623677	701.005424	6.563724	-6.561115	-0.108062	0.935958	0.936330
0.150	-0.858977	0.796895	702.434453	6.721642	-6.055750	-0.090809	0.862109	0.956907
0.160	-1.761685	0.981098	702.790576	6.825492	-5.577746	-0.063789	0.793657	0.971198
0.170	-2.434432	1.135240	702.198548	6.885796	-5.133335	-0.030986	0.731037	0.980605
0.180	-2.786685	1.227174	700.829326	6.917840	-4.730483	0.003384	0.674984	0.987093
0.190	-2.787376	1.241888	698.859956	6.938069	-4.374644	0.035359	0.625969	0.992770
0.200	-2.470439	1.184281	696.452507	6.960265	-4.066770	0.061495	0.583926	0.999388
0.210	-1.922792	1.075825	693.748673	6.992776	-3.803213	0.079002	0.548212	1.007970
0.220	-1.262341	0.946265	690.874900	7.037679	-3.576559	0.085807	0.517685	1.018662
0.230	-0.613958	0.823310	687.953693	7.091952	-3.376758	0.080600	0.490841	1.030876
0.240	-0.088510	0.724094	685.116666	7.149987	-3.192494	0.063008	0.465978	1.043616
0.250	0.233161	0.651457	682.513289	7.206391	-3.012895	0.033979	0.441441	1.055861
0.260	0.310958	0.596080	680.308496	7.258090	-2.829408	-0.003799	0.415901	1.066882
0.270	0.150210	0.543255	678.665303	7.305096	-2.637253	-0.045797	0.388594	1.076392
0.280	-0.201253	0.481471	677.715034	7.349912	-2.435857	-0.086216	0.359422	1.084514
0.290	-0.664707	0.409411	677.524118	7.396134	-2.227885	-0.119242	0.328827	1.091641
0.300	-1.149422	0.338658	678.069117	7.447043	-2.017069	-0.140591	0.297473	1.098272
0.310	-1.574320	0.291129	679.229903	7.504766	-1.805652	-0.148709	0.265838	1.104893
0.320	-1.886355	0.292157	680.805493	7.570037	-1.592505	-0.145101	0.233915	1.111924
0.330	-2.070471	0.361679	682.550018	7.642229	-1.372771	-0.133658	0.201124	1.119658
0.340	-2.148649	0.506596	684.220607	7.719323	-1.139236	-0.119289	0.166501	1.128192
0.350	-2.168502	0.716905	685.625992	7.797778	-0.885058	-0.106456	0.129088	1.137322
0.360	-2.184606	0.966772	686.664001	7.872732	-0.607047	-0.098175	0.088405	1.146519
0.370	-2.238164	1.219941	687.337327	7.938862	-0.308408	-0.095769	0.044870	1.155017
0.380	-2.342094	1.437564	687.741306	7.991791	0.000114	-0.099241	-0.000017	1.162034
0.390	-2.477592	1.586195	688.025657	8.029368	0.301384	-0.107907	-0.043804	1.167016
0.400	-2.603980	1.644141	688.342259	8.052224	0.575219	-0.120968	-0.083566	1.169800
0.410	-2.677728	1.605067	688.797287	8.063523	0.802895	-0.137820	-0.116565	1.170667
0.420	-2.671949	1.478324	689.423770	8.068356	0.971223	-0.158120	-0.140875	1.170304
0.430	-2.587165	1.286309	690.180990	8.073288	1.074663	-0.181725	-0.155707	1.169735
0.440	-2.448264	1.060187	690.975792	8.086173	1.114845	-0.208613	-0.161344	1.170254
0.450	-2.289513	0.835623	691.693774	8.115955	1.098094	-0.238830	-0.158754	1.173345
0.460	-2.135707	0.649362	692.228100	8.172063	1.032418	-0.272405	-0.149144	1.180545
0.470	-1.989377	0.536190	692.498924	8.263178	0.925389	-0.309173	-0.133630	1.193240
0.480	-1.830328	0.525296	692.462967	8.395528	0.783477	-0.348538	-0.113144	1.212415
0.490	-1.627198	0.635609	692.116459	8.571250	0.612421	-0.389293	-0.088485	1.238412
0.500	-1.354846	0.870932	691.494563	8.787510	0.417582	-0.429592	-0.060388	1.270800
0.510	-1.008929	1.216827	690.668586	9.036925	0.203513	-0.467153	-0.029466	1.308431
0.520	-0.610621	1.641363	689.740741	9.309395	-0.027286	-0.499631	0.003956	1.349695
0.530	-0.199082	2.100551	688.834738	9.594831	-0.275657	-0.525091	0.040018	1.392907
0.540	0.184970	2.547265	688.079060	9.885745	-0.546021	-0.542481	0.079354	1.436716
0.550	0.516896	2.940963	687.580768	10.178538	-0.844809	-0.551960	0.122867	1.480341
0.560	0.798269	3.255551	687.393711	10.472841	-1.177264	-0.554924	0.171265	1.523558
0.570	1.053980	3.483667	687.493322	10.769265	-1.543791	-0.553626	0.224554	1.566454
0.580	1.317190	3.636758	687.773750	11.066631	-1.937512	-0.550493	0.281708	1.609051
0.590	1.609520	3.740987	688.076676	11.359829	-2.344398	-0.547344	0.340718	1.650954
0.600	1.926987	3.829590	688.246752	11.638976	-2.746518	-0.544782	0.399060	1.691105
0.610	2.239853	3.933212	688.193621	11.890057	-3.127754	-0.541935	0.454488	1.727720
0.620	2.507660	4.070730	687.933637	12.096786	-3.480148	-0.536592	0.505884	1.758423
0.630	2.702628	4.243341	687.590954	12.243023	-3.808346	-0.525677	0.553868	1.780568
0.640	2.829747	4.433780	687.354964	12.314961	-4.129976	-0.505951	0.600851	1.791645
0.650	2.933188	4.610795	687.409712	12.302650	-4.471268	-0.474835	0.650452	1.789711
0.660	3.085169	4.737333	687.861321	12.200937	-4.859151	-0.431229	0.706414	1.773750
0.670	3.361319	4.779997	688.688483	12.010113	-5.312464	-0.376138	0.771389	1.743911
0.680	3.811862	4.717431	689.732110	11.736337	-5.835185	-0.312865	0.846007	1.701579
0.690	4.439120	4.545802	690.728080	11.391551	-6.413851	-0.246645	0.928564	1.649209
0.700	5.189448	4.280076	691.374924	10.992389	-7.019963	-0.183690	1.015363	1.589932
0.710	5.963514	3.950343	691.418259	10.557780	-7.616705	-0.129808	1.101606	1.526974
0.720	6.643502	3.593572	690.727864	10.105417	-8.168110	-0.088901	1.182537	1.463010
0.730	7.129526	3.242890	689.343479	9.648169	-8.648103	-0.061816	1.254542	1.399617
0.740	7.372284	2.917984	687.472941	9.192065	-9.046691	-0.046034	1.315934	1.337080
0.750	7.388476	2.620432	685.440516	8.737031	-9.371311	-0.036557	1.367195	1.274659
0.760	7.252154	2.336237	683.600384	8.280135	-9.642877	-0.027792	1.410601	1.211254
0.770	7.066075	2.044947	682.243262	7.819834	-9.888151	-0.015688	1.449359	1.146194
0.780	6.926400	1.731784	681.526495	7.359361	-10.131361	0.000887	1.486569	1.079835
0.790	6.896176	1.397607	681.447934	6.907947	-10.387947	0.020168	1.524393	1.013716
0.800	6.996806	1.062216	681.866648	6.479449	-10.661949	0.038836	1.563641	0.950252
0.810	7.216165	0.759398	682.557481	6.088932	-10.946788	0.053953	1.603790	0.892076
0.820	7.523949	0.525753	683.277551	5.748487	-11.228078	0.064487	1.643267	0.841311
0.830	7.884063	0.387986	683.822973	5.463880	-11.486876	0.071723	1.679803	0.799020
0.840	8.259303	0.353875	684.061777	5.233233	-11.702402	0.078495	1.710723	0.765023
0.850	8.610209	0.410274	683.940642	5.048024	-11.854042	0.087808	1.733197	0.738079
0.860	8.893487	0.528342	683.473347	4.895903	-11.923049	0.101618	1.744479	0.716327
0.870	9.064683	0.673177	682.722963	4.764287	-11.894430	0.120258	1.742205	0.697836
0.880	9.086057	0.813636	681.786671	4.643493	-11.759114	0.142591	1.724750	0.681077
0.890	8.936327	0.928828	680.784994	4.528206	-11.515912	0.166688	1.691564	0.665145
0.900	8.616679	1.009767	679.851831	4.416606	-11.172464	0.190695	1.643368	0.649642
0.910	8.149133	1.056651	679.121805	4.307544	-10.744452	0.213564	1.582110	0.634281
0.920	7.568143	1.073471	678.715342	4.197223	-10.253016	0.235448	1.510650	0.618407
0.930	6.910576	1.062044	678.724767	4.077198	-9.721117	0.257641	1.432262	0.600714
0.940	6.209749	1.017551	679.203885	3.934817	-9.170162	0.281971	1.350134	0.579328
0.950	5.495708	0.927305	680.161125	3.755952	-8.618026	0.309783	1.267057	0.552215
0.960	4.799192	0.773573	681.555394	3.528836	-8.078629	0.340900	1.185322	0.517762
0.970	4.153977	0.539807	683.295359	3.247577	-7.562303	0.373053	1.106740	0.475282
0.980	3.593444	0.218082	685.245321	2.914245	-7.075997	0.402058	1.032622	0.425285
0.990	3.141507	-0.185180	687.241084	2.538956	-6.622940	0.422690	0.963700	0.369442
1.000	2.802791	-0.647597	689.115510	2.137910	-6.202189	0.429876	0.900022	0.310240
1.010	2.558536	-1.134061	690.727482	1.729933	-5.808821	0.419817	0.840971	0.250451
1.020	2.371724	-1.603608	691.984352	1.332687	-5.435273	0.390786	0.785462	0.192589
1.030	2.199327	-2.017371	692.850136	0.959909	-5.073816	0.343533	0.732311	0.138545
1.040	2.005854	-2.344998	693.338675	0.620656	-4.719455	0.281326	0.680685	0.089517
1.050	1.772796	-2.567944	693.497897	0.320531	-4.372285	0.209589	0.630468	0.046219
1.060	1.502136	-2.679554	693.393748	0.063941	-4.038423	0.135080	0.582414	0.009221
1.070	1.215185	-2.683045	693.099312	-0.144059	-3.729307	0.064652	0.538062	-0.020785
1.080	0.948699	-2.588961	692.689501	-0.297465	-3.459800	0.003872	0.499473	-0.042943
1.090	0.748669	-2.413384	692.238304	-0.390798	-3.245759	-0.044108	0.468879	-0.056454
1.100	0.660727	-2.177466	691.815414	-0.421534	-3.101582	-0.078956	0.448325	-0.060932
1.110	0.717041	-1.907827	691.480486	-0.392170	-3.037956	-0.102682	0.439341	-0.056715
1.120	0.922900	-1.636373	691.275106	-0.310899	-3.060096	-0.118472	0.442674	-0.044975
1.130	1.249133	-1.397787	691.214234	-0.190779	-3.166832	-0.129422	0.458155	-0.027601
1.140	1.635919	-1.223829	691.279781	-0.047948	-3.350822	-0.137707	0.484727	-0.006936
1.150	2.008905	-1.135632	691.419063	0.100406	-3.599801	-0.144363	0.520640	0.014522
1.160	2.302491	-1.136971	691.550534	0.237903	-3.898392	-0.149452	0.563718	0.034401
1.170	2.481189	-1.211932	691.577854	0.350540	-4.229933	-0.152281	0.611635	0.050687
1.180	2.550611	-1.328706	691.410076	0.427901	-4.577974	-0.151599	0.662121	0.061888
1.190	2.553955	-1.448625	690.981718	0.463806	-4.927241	-0.145981	0.713078	0.067123
1.200	2.555574	-1.537296	690.264803	0.456264	-5.263926	-0.134547	0.762595	0.066100
1.210	2.617672	-1.574100	689.268420	0.406820	-5.575346	-0.117902	0.808879	0.059022
1.220	2.778282	-1.557193	688.028757	0.319531	-5.849397	-0.098849	0.850168	0.046442
1.230	3.037879	-1.502684	686.598730	0.199843	-6.074481	-0.082400	0.884721	0.029106
1.240	3.358557	-1.438239	685.045409	0.053591	-6.240443	-0.074847	0.910953	0.007823
1.250	3.675043	-1.392987	683.455861	-0.113631	-6.340518	-0.082130	0.927714	-0.016626
1.260	3.913086	-1.387044	681.944656	-0.296659	-6.373719	-0.108029	0.934639	-0.043502
1.270	4.009480	-1.424429	680.654647	-0.490760	-6.346808	-0.152815	0.932456	-0.072101
1.280	3.928811	-1.492134	679.746512	-0.691818	-6.275058	-0.212782	0.923147	-0.101776
1.290	3.673515	-1.565814	679.377335	-0.896848	-6.181259	-0.280791	0.909842	-0.132010
1.300	3.285068	-1.619850	679.671633	-1.104585	-6.092752	-0.347698	0.896426	-0.162517
1.310	2.835457	-1.637650	680.689771	-1.315636	-6.036840	-0.404300	0.886871	-0.193280
1.320	2.410198	-1.618133	682.400368	-1.531891	-6.035601	-0.443315	0.884466	-0.224486
1.330	2.086943	-1.576256	684.665094	-1.755366	-6.101504	-0.460885	0.891166	-0.256383
1.340	1.916132	-1.537943	687.244152	-1.986939	-6.235101	-0.457155	0.907261	-0.289117
1.350	1.910499	-1.531524	689.826459	-2.225374	-6.425399	-0.435813	0.931452	-0.322599
1.360	2.047381	-1.578418	692.080786	-2.466776	-6.652717	-0.402744	0.961263	-0.356429
1.370	2.282421	-1.685766	693.716345	-2.704587	-6.893180	-0.364313	0.993660	-0.389869
1.380	2.568080	-1.843158	694.536870	-2.930251	-7.123671	-0.325791	1.025672	-0.421900
1.390	2.868623	-2.024572	694.473257	-3.134528	-7.325989	-0.290379	1.054899	-0.451353
1.400	3.165708	-2.195109	693.586696	-3.309152	-7.489290	-0.259009	1.079792	-0.477107
1.410	3.453936	-2.320568	692.044733	-3.448493	-7.610399	-0.230875	1.099697	-0.498305
1.420	3.730644	-2.377010	690.081167	-3.550861	-7.692215	-0.204429	1.114683	-0.514557
1.430	3.986326	-2.357663	687.952830	-3.619132	-7.741089	-0.178441	1.125235	-0.526073
1.440	4.200727	-2.275496	685.902399	-3.660462	-7.764250	-0.152710	1.131976	-0.533671
1.450	4.346379	-2.160807	684.131276	-3.685165	-7.768263	-0.128130	1.135493	-0.538663
1.460	4.397879	-2.054150	682.783703	-3.705128	-7.758840	-0.106119	1.136354	-0.542650
1.470	4.342786	-1.996066	681.941983	-3.732200	-7.741586	-0.087686	1.135227	-0.547290
1.480	4.189118	-2.016354	681.630585	-3.776775	-7.722729	-0.072607	1.132979	-0.554079
1.490	3.965581	-2.126184	681.824976	-3.846637	-7.708972	-0.059164	1.130638	-0.564168
1.500	3.713571	-2.315751	682.461438	-3.946071	-7.706201	-0.044716	1.129178	-0.578212
1.510	3.473643	-2.558004	683.446743	-4.075298	-7.717514	-0.027001	1.129205	-0.596286
1.520	3.271928	-2.816535	684.668611	-4.230358	-7.741491	-0.005654	1.130692	-0.617869
1.530	3.112181	-3.054161	686.007765	-4.403674	-7.771787	0.016878	1.132901	-0.641928
1.540	2.976727	-3.239399	687.350639	-4.585487	-7.798601	0.035658	1.134589	-0.667125
1.550	2.835651	-3.350187	688.600304	-4.766197	-7.811710	0.044906	1.134433	-0.692157
1.560	2.660350	-3.376043	689.683128	-4.939120	-7.803877	0.040333	1.131516	-0.716143
1.570	2.436162	-3.319814	690.549856	-5.102680	-7.773257	0.021173	1.125662	-0.738930
1.580	2.169551	-3.198673	691.171435	-5.260946	-7.723855	-0.008918	1.117502	-0.761164
1.590	1.887267	-3.042851	691.531099	-5.422095	-7.663972	-0.042452	1.108261	-0.784071
1.600	1.627575	-2.890977	691.615421	-5.595339	-7.603384	-0.070026	1.099366	-0.809025
1.610	1.426312	-2.782391	691.408888	-5.787499	-7.550464	-0.083019	1.092040	-0.837059
1.620	1.302760	-2.748389	690.897714	-6.000358	-7.510412	-0.076291	1.087051	-0.868487
1.630	1.251189	-2.805065	690.085950	-6.229498	-7.485245	-0.049946	1.084683	-0.902713
1.640	1.242630	-2.950061	689.019836	-6.464834	-7.475468	-0.009492	1.084942	-0.938265
1.650	1.237515	-3.164231	687.808881	-6.692606	-7.482725	0.035736	1.087908	-0.973033
1.660	1.204533	-3.417368	686.629717	-6.898183	-7.512327	0.075298	1.094087	-1.004644
1.670	1.137120	-3.675520	685.703476	-7.068854	-7.574555	0.100516	1.104640	-1.030891
1.680	1.059081	-3.907067	685.247104	-7.195851	-7.683843	0.106603	1.121324	-1.050110
1.690	1.015654	-4.085915	685.410335	-7.275242	-7.855639	0.093521	1.146122	-1.061443
1.700	1.053603	-4.192098	686.219313	-7.307796	-8.101687	0.065524	1.180627	-1.064936
1.710	1.199685	-4.211576	687.550534	-7.298238	-8.425457	0.029740	1.225431	-1.061484
1.720	1.447723	-4.137183	689.150311	-7.254319	-8.819643	-0.005666	1.279785	-1.052647
1.730	1.760020	-3.971551	690.697045	-7.185835	-9.266951	-0.033198	1.341681	-1.040374
1.740	2.082086	-3.730879	691.885584	-7.103478	-9.744047	-0.047290	1.408332	-1.026684
1.750	2.364005	-3.446975	692.504867	-7.017367	-10.227358	-0.045052	1.476864	-1.013331
1.760	2.579465	-3.164946	692.484383	-6.935474	-10.698787	-0.026579	1.544986	-1.001535
1.770	2.734686	-2.935362	691.897779	-6.862431	-11.149584	0.005113	1.611450	-0.991827
1.780	2.863713	-2.802258	690.927071	-6.799085	-11.581364	0.044559	1.676206	-0.984053
1.790	3.012465	-2.790613	689.803058	-6.742781	-12.004269	0.084826	1.740246	-0.977494
1.800	3.219071	-2.897963	688.742707	-6.688143	-12.433117	0.118958	1.805190	-0.971065
1.810	3.499427	-3.093641	687.901645	-6.628179	-12.882829	0.141566	1.872772	-0.963536
1.820	3.843777	-3.326257	687.351994	-6.555583	-13.364465	0.150076	1.944341	-0.953745
1.830	4.224433	-3.536753	687.086617	-6.464028	-13.882804	0.145238	2.020532	-0.940788
1.840	4.609792	-3.672539	687.043051	-6.349308	-14.435928	0.130779	2.101168	-0.924150
1.850	4.977911	-3.698647	687.135895	-6.210189	-15.016688	0.112314	2.185403	-0.903779
1.860	5.324222	-3.603665	687.286590	-6.048861	-15.615448	0.095799	2.272043	-0.880107
1.870	5.661363	-3.399989	687.443340	-5.870760	-16.223092	0.085935	2.359917	-0.853999
1.880	6.012889	-3.118931	687.587861	-5.683550	-16.833173	0.084957	2.448149	-0.826593
1.890	6.404545	-2.801930	687.728241	-5.495347	-17.442421	0.092170	2.536237	-0.799058
1.900	6.856349	-2.490086	687.880323	-5.312748	-18.049524	0.104348	2.623934	-0.772336
1.910	7.376835	-2.215038	688.044656	-5.139510	-18.652843	0.116863	2.710993	-0.746973
1.920	7.959698	-1.994002	688.189439	-4.976416	-19.248161	0.125202	2.796928	-0.723117
1.930	8.583246	-1.830091	688.248394	-4.822275	-19.827563	0.126378	2.880873	-0.700659
1.940	9.213707	-1.716748	688.136025	-4.675429	-20.380006	0.119782	2.961625	-0.679434
1.950	9.812870	-1.643683	687.774878	-4.535032	-20.893394	0.107220	3.037825	-0.659377
1.960	10.348427	-1.601826	687.124228	-4.401628	-21.357298	0.092146	3.108215	-0.640587
1.970	10.803084	-1.585914	686.199227	-4.276931	-21.765141	0.078380	3.171840	-0.623278
1.980	11.178092	-1.594544	685.073681	-4.163082	-22.114944	0.068786	3.228112	-0.607684
1.990	11.489029	-1.628304	683.865741	-4.061815	-22.408486	0.064439	3.276738	-0.593949
2.000	11.755477	-1.687119	682.711208	-3.973865	-22.649601	0.064576	3.317596	-0.582071
2.010	11.989354	-1.768135	681.733117	-3.898685	-22.842633	0.067269	3.350671	-0.571878
2.020	12.187594	-1.865012	681.017821	-3.834324	-22.991720	0.070376	3.376082	-0.563028
2.030	12.332942	-1.968369	680.605235	-3.777415	-23.100862	0.072285	3.394165	-0.555008
2.040	12.402831	-2.066397	680.494596	-3.723376	-23.174247	0.072162	3.405501	-0.547157
2.050	12.382296	-2.145121	680.660263	-3.666932	-23.216335	0.069766	3.410855	-0.538732
2.060	12.274747	-2.188906	681.068354	-3.602899	-23.231583	0.065131	3.411050	-0.529007
2.070	12.105320	-2.182205	681.685743	-3.527020	-23.223902	0.058411	3.406834	-0.517397
2.080	11.915038	-2.112652	682.477506	-3.436655	-23.195939	0.050000	3.398784	-0.503556
2.090	11.748215	-1.974326	683.395496	-3.331066	-23.148169	0.040715	3.387229	-0.487429
2.100	11.638236	-1.769764	684.366055	-3.210969	-23.077870	0.031803	3.372153	-0.469189
2.110	11.596716	-1.509972	685.285702	-3.077267	-22.978326	0.024626	3.353102	-0.449049
2.120	11.609004	-1.212773	686.030058	-2.929477	-22.838786	0.020150	3.329123	-0.427019
2.130	11.636526	-0.900379	686.475923	-2.764898	-22.645649	0.018444	3.298826	-0.402767
2.140	11.624913	-0.596855	686.531893	-2.579385	-22.385046	0.018496	3.260598	-0.375712
2.150	11.516144	-0.325393	686.169570	-2.369639	-22.046496	0.018543	3.212981	-0.345343
2.160	11.262434	-0.104945	685.445747	-2.135839	-21.626850	0.016878	3.155151	-0.311598
2.170	10.838906	0.053489	684.506589	-1.883150	-21.133274	0.012794	3.087373	-0.275111
2.180	10.251587	0.149356	683.568096	-1.621241	-20.583937	0.007166	3.011249	-0.237173
2.190	9.537805	0.191984	682.873289	-1.362104	-20.005581	0.002319	2.929618	-0.199467
2.200	8.757826	0.196481	682.634663	-1.117338	-19.428216	0.001161	2.846064	-0.163680
2.210	7.979385	0.177882	682.978055	-0.896109	-18.878412	0.005876	2.764132	-0.131206
2.220	7.259692	0.146544	683.906934	-0.704314	-18.373377	0.016745	2.686532	-0.102984
2.230	6.630905	0.106939	685.300800	-0.544713	-17.917783	0.031649	2.614587	-0.079485
2.240	6.094067	0.059746	686.948576	-0.417432	-17.504298	0.046541	2.548123	-0.060766
2.250	5.623427	0.005347	688.603734	-0.320448	-17.117398	0.056665	2.485813	-0.046536
2.260	5.179315	-0.053238	690.040271	-0.249939	-16.738932	0.057996	2.425791	-0.036221
2.270	4.724760	-0.108951	691.091746	-0.200483	-16.353434	0.048395	2.366319	-0.029010
2.280	4.240010	-0.150901	691.666699	-0.165193	-15.951650	0.028104	2.306263	-0.023883
2.290	3.730154	-0.165979	691.745312	-0.136054	-15.531651	-0.000510	2.245285	-0.019668
2.300	3.223498	-0.141760	691.367604	-0.104833	-15.097920	-0.033757	2.183776	-0.015163
2.310	2.761387	-0.070206	690.621369	-0.064582	-14.659374	-0.067589	2.122635	-0.009351
2.320	2.383238	0.048813	689.632340	-0.011233	-14.227292	-0.098392	2.063026	-0.001629
2.330	2.112646	0.205569	688.553812	0.055534	-13.813739	-0.123448	2.006196	0.008065
2.340	1.950115	0.381049	687.550809	0.132634	-13.430561	-0.141122	1.953392	0.019291
2.350	1.875009	0.550277	686.776239	0.215013	-13.088673	-0.150821	1.905813	0.031308
2.360	1.855027	0.687631	686.342298	0.297575	-12.797222	-0.152763	1.864554	0.043357
2.370	1.858052	0.772755	686.295866	0.376931	-12.562279	-0.147592	1.830446	0.054923
