Time[s]	Fx[N]	Fy[N]	Fz[N]	Mx[Nm]	My[Nm]	Mz[Nm]	COPx[cm]	COPy[cm]
0.010	4.353638	-1.243685	625.391174	2.209251	0.077826	-0.716478	-0.012444	0.353259
0.020	4.133143	-1.203384	626.252595	2.111164	0.367204	-0.750361	-0.058635	0.337111
0.030	3.899156	-1.183165	627.123658	2.018100	0.661977	-0.778946	-0.105558	0.321803
0.040	3.641148	-1.197261	627.995199	1.933206	0.965718	-0.798071	-0.153778	0.307838
0.050	3.356300	-1.252566	628.831313	1.855963	1.279270	-0.805511	-0.203436	0.295145
0.060	3.049280	-1.347023	629.567166	1.781533	1.601397	-0.800882	-0.254365	0.282977
0.070	2.728418	-1.470676	630.121420	1.701700	1.930295	-0.785004	-0.306337	0.270059
0.080	2.399971	-1.609770	630.422101	1.607462	2.264764	-0.759265	-0.359246	0.254982
0.090	2.064189	-1.752952	630.437468	1.492731	2.604055	-0.725361	-0.413055	0.236777
0.100	1.716872	-1.897187	630.199911	1.357985	2.946287	-0.685524	-0.467516	0.215485
0.110	1.357119	-2.050057	629.812048	1.212439	3.286381	-0.642976	-0.521803	0.192508
0.120	0.997265	-2.225639	629.428912	1.073474	3.614892	-0.602164	-0.574313	0.170547
0.130	0.668128	-2.434171	629.217768	0.962987	3.918809	-0.568353	-0.622806	0.153045
0.140	0.414078	-2.670146	629.306329	0.901613	4.184421	-0.546515	-0.664926	0.143271
0.150	0.278143	-2.905806	629.737043	0.902900	4.401292	-0.539870	-0.698909	0.143377
0.160	0.283663	-3.094908	630.445507	0.969638	4.565728	-0.548760	-0.724207	0.153802
0.170	0.421867	-3.186176	631.273069	1.093656	4.682211	-0.570392	-0.741709	0.173246
0.180	0.651928	-3.140779	632.010069	1.258859	4.762115	-0.599561	-0.753487	0.199183
0.190	0.913436	-2.946538	632.454239	1.446125	4.820207	-0.629995	-0.762143	0.228653
0.200	1.145094	-2.623480	632.464998	1.638304	4.870267	-0.655757	-0.770045	0.259035
0.210	1.301636	-2.219323	631.998627	1.823865	4.921362	-0.672294	-0.778698	0.288587
0.220	1.363689	-1.797178	631.116458	1.998350	4.975946	-0.677039	-0.788435	0.316637
0.230	1.339348	-1.420044	629.965249	2.163576	5.030294	-0.669700	-0.798503	0.343444
0.240	1.258862	-1.136792	628.735843	2.325186	5.076945	-0.652242	-0.807485	0.369819
0.250	1.164763	-0.972864	627.612801	2.489552	5.108100	-0.628501	-0.813894	0.396670
0.260	1.100074	-0.926955	626.730971	2.661098	5.118744	-0.603339	-0.816737	0.424600
0.270	1.097571	-0.973558	626.151837	2.840846	5.108512	-0.581489	-0.815858	0.453699
0.280	1.172709	-1.070408	625.863905	3.026426	5.081918	-0.566389	-0.811985	0.483560
0.290	1.321708	-1.169213	625.802340	3.213219	5.047129	-0.559404	-0.806505	0.513456
0.300	1.524722	-1.227302	625.878023	3.396072	5.013910	-0.559678	-0.801100	0.542609
0.310	1.752469	-1.217437	626.006137	3.571044	4.991504	-0.564655	-0.797357	0.570449
0.320	1.973787	-1.133330	626.127407	3.736843	4.986973	-0.571065	-0.796479	0.596818
0.330	2.161731	-0.989704	626.218849	3.895602	5.004208	-0.576002	-0.799115	0.622083
0.340	2.297051	-0.817280	626.293681	4.052643	5.043653	-0.577762	-0.805318	0.647083
0.350	2.369316	-0.654195	626.391480	4.214999	5.102650	-0.576243	-0.814610	0.672902
0.360	2.376561	-0.535639	626.561302	4.388959	5.176281	-0.572897	-0.826141	0.700484
0.370	2.324287	-0.483782	626.842819	4.577480	5.258496	-0.570300	-0.838886	0.730244
0.380	2.224358	-0.500635	627.251726	4.778555	5.343253	-0.571468	-0.851852	0.761824
0.390	2.094073	-0.566543	627.773442	4.985298	5.425391	-0.579052	-0.864228	0.794124
0.400	1.955260	-0.645557	628.365099	5.187670	5.501093	-0.594640	-0.875461	0.825582
0.410	1.832745	-0.696237	628.963232	5.375001	5.568007	-0.618331	-0.885267	0.854581
0.420	1.751333	-0.684223	629.494393	5.538259	5.625222	-0.648625	-0.893610	0.879795
0.430	1.730890	-0.592533	629.886820	5.671402	5.673275	-0.682594	-0.900682	0.900384
0.440	1.780527	-0.426758	630.082103	5.771826	5.714102	-0.716293	-0.906882	0.916043
0.450	1.894425	-0.213918	630.045437	5.840320	5.750680	-0.745437	-0.912740	0.926968
0.460	2.052193	0.004856	629.772088	5.880930	5.786280	-0.766283	-0.918790	0.933819
0.470	2.224820	0.186103	629.287708	5.900808	5.823642	-0.776603	-0.925434	0.937696
0.480	2.384138	0.296903	628.642855	5.909794	5.864530	-0.776442	-0.932887	0.940088
0.490	2.511352	0.324681	627.904951	5.919376	5.909869	-0.768345	-0.941204	0.942718
0.500	2.600824	0.280662	627.150572	5.940997	5.960217	-0.756804	-0.950365	0.947300
0.510	2.658389	0.195905	626.457847	5.984149	6.016218	-0.747025	-0.960355	0.955236
0.520	2.696471	0.111340	625.896873	6.054934	6.078894	-0.743434	-0.971229	0.967401
0.530	2.728700	0.064877	625.517628	6.155606	6.149940	-0.748481	-0.983176	0.984082
0.540	2.765106	0.079584	625.337810	6.285229	6.232148	-0.762154	-0.996605	1.005093
0.550	2.807718	0.156982	625.334591	6.441189	6.329888	-0.782218	-1.012240	1.030039
0.560	2.846977	0.278418	625.444161	6.620976	6.449324	-0.805021	-1.031159	1.058604
0.570	2.860557	0.414516	625.572326	6.823530	6.597916	-0.826589	-1.054701	1.090766
0.580	2.816439	0.538849	625.617605	7.049594	6.782993	-0.843781	-1.084207	1.126822
0.590	2.680855	0.639769	625.504066	7.300932	7.009560	-0.855185	-1.120626	1.167208
0.600	2.429726	0.725459	625.215303	7.578734	7.277962	-0.861487	-1.164073	1.212180
0.610	2.060271	0.820999	624.816679	7.881805	7.582225	-0.865106	-1.213512	1.261459
0.620	1.598318	0.959531	624.453738	8.205153	7.909811	-0.869147	-1.266677	1.313973
0.630	1.097222	1.170869	624.321436	8.539553	8.243112	-0.876077	-1.320331	1.367814
0.640	0.626469	1.470568	624.609648	8.872431	8.562465	-0.886646	-1.370851	1.420476
0.650	0.252140	1.852123	625.440771	9.190047	8.849944	-0.899601	-1.414993	1.469371
0.660	0.015767	2.284749	626.820843	9.480377	9.092864	-0.912289	-1.450632	1.512454
0.670	-0.079523	2.718270	628.623162	9.735565	9.285929	-0.921843	-1.477185	1.548712
0.680	-0.068611	3.094632	630.612880	9.952923	9.431344	-0.926295	-1.495584	1.578294
0.690	-0.008989	3.363082	632.505486	10.134196	9.536909	-0.925092	-1.507799	1.602231
0.700	0.042770	3.494280	634.037890	10.283683	9.612920	-0.918861	-1.516143	1.621935
0.710	0.051394	3.488516	635.025881	10.406230	9.669099	-0.908760	-1.522631	1.638710
0.720	0.010911	3.375024	635.389948	10.505875	9.712504	-0.895844	-1.528589	1.653453
0.730	-0.061573	3.202731	635.147906	10.585371	9.746729	-0.880735	-1.534561	1.666599
0.740	-0.140267	3.025968	634.386713	10.646391	9.772152	-0.863620	-1.540409	1.678218
0.750	-0.203875	2.889992	633.229946	10.689942	9.786757	-0.844479	-1.545530	1.688161
0.760	-0.241039	2.820405	631.812676	10.716631	9.787203	-0.823435	-1.549067	1.696172
0.770	-0.247857	2.818788	630.267369	10.726652	9.769998	-0.801107	-1.550135	1.701921
0.780	-0.222374	2.865047	628.717308	10.719616	9.732730	-0.778801	-1.548030	1.704998
0.790	-0.161548	2.925266	627.271458	10.694529	9.675282	-0.758400	-1.542439	1.704928
0.800	-0.062667	2.962601	626.017827	10.650118	9.600711	-0.741901	-1.533616	1.701248
0.810	0.072894	2.948184	625.017746	10.585525	9.515248	-0.730761	-1.522396	1.693636
0.820	0.237193	2.869089	624.305266	10.501066	9.427051	-0.725304	-1.510007	1.682040
0.830	0.416541	2.731084	623.892754	10.398616	9.343937	-0.724460	-1.497683	1.666731
0.840	0.595099	2.555366	623.779214	10.281234	9.270935	-0.725973	-1.486253	1.648217
0.850	0.759147	2.370562	623.956121	10.152148	9.208746	-0.727046	-1.475864	1.627061
0.860	0.900165	2.203090	624.407385	10.013623	9.153826	-0.725220	-1.466002	1.603700
0.870	1.015952	2.069322	625.103922	9.866413	9.100066	-0.719179	-1.455768	1.578364
0.880	1.109598	1.971890	625.997041	9.710005	9.041315	-0.709173	-1.444306	1.551126
0.890	1.186380	1.900750	627.016756	9.543349	8.973611	-0.696887	-1.431160	1.522025
0.900	1.249517	1.837874	628.079550	9.365643	8.896155	-0.684757	-1.416406	1.491155
0.910	1.297258	1.763407	629.104952	9.176904	8.810674	-0.674952	-1.400509	1.458724
0.920	1.324121	1.661067	630.034144	8.978257	8.719519	-0.668462	-1.383976	1.425043
0.930	1.326934	1.521358	630.840981	8.771830	8.623340	-0.664755	-1.366959	1.390498
0.940	1.312945	1.342365	631.528648	8.560347	8.519335	-0.662264	-1.349002	1.355496
0.950	1.304917	1.128801	632.112200	8.346801	8.400915	-0.659440	-1.329023	1.320462
0.960	1.338814	0.890379	632.594017	8.134603	8.259194	-0.655780	-1.305607	1.285912
0.970	1.453219	0.640359	632.942363	7.928147	8.086017	-0.652266	-1.277528	1.252586
0.980	1.674300	0.394473	633.082641	7.733266	7.877489	-0.651033	-1.244307	1.221526
0.990	2.003116	0.170053	632.907452	7.556962	7.636646	-0.654499	-1.206598	1.194007
1.000	2.411572	-0.014936	632.305144	7.406196	7.374152	-0.664388	-1.166233	1.171301
1.010	2.849384	-0.143265	631.198385	7.286016	7.106619	-0.681055	-1.125893	1.154315
1.020	3.259323	-0.200766	629.579020	7.197678	6.852984	-0.703352	-1.088503	1.143252
1.030	3.594467	-0.179994	627.526851	7.137631	6.630183	-0.728975	-1.056558	1.137422
1.040	3.830727	-0.084554	625.206482	7.098073	6.449647	-0.755106	-1.031603	1.135317
1.050	3.970290	0.067918	622.843283	7.069042	6.315908	-0.779035	-1.014044	1.134963
1.060	4.035517	0.246610	620.684884	7.041224	6.227608	-0.798566	-1.003345	1.134428
1.070	4.056666	0.413246	618.958251	7.008247	6.180127	-0.812159	-0.998472	1.132265
1.080	4.059125	0.531195	617.833601	6.967626	6.168336	-0.818919	-0.998381	1.127751
1.090	4.055483	0.574760	617.403793	6.920169	6.188192	-0.818596	-1.002293	1.120850
1.100	4.045048	0.535511	617.681608	6.868318	6.236794	-0.811672	-1.009710	1.111951
1.110	4.019599	0.423984	618.610643	6.814311	6.311447	-0.799468	-1.020262	1.101551
1.120	3.971369	0.266610	620.082527	6.759131	6.408716	-0.784152	-1.033526	1.090037
1.130	3.898854	0.098877	621.954777	6.702672	6.524169	-0.768520	-1.048978	1.077678
1.140	3.807839	-0.043344	624.066930	6.644723	6.652927	-0.755539	-1.066060	1.064745
1.150	3.707790	-0.131991	626.254427	6.585803	6.790601	-0.747752	-1.084320	1.051618
1.160	3.606047	-0.152558	628.360094	6.527107	6.934045	-0.746754	-1.103515	1.038753
1.170	3.503464	-0.106330	630.243357	6.469675	7.081593	-0.752923	-1.123628	1.026536
1.180	3.394326	-0.008896	631.787773	6.413483	7.232779	-0.765439	-1.144811	1.015133
1.190	3.270646	0.114629	632.907572	6.357121	7.387731	-0.782492	-1.167268	1.004431
1.200	3.127977	0.236558	633.552812	6.298173	7.546485	-0.801573	-1.191137	0.994104
1.210	2.968990	0.334003	633.711133	6.233945	7.708489	-0.819801	-1.216404	0.983720
1.220	2.802769	0.394513	633.403922	6.161968	7.872558	-0.834315	-1.242897	0.972834
1.230	2.640510	0.418215	632.677103	6.079905	8.037375	-0.842662	-1.270376	0.960981
1.240	2.490139	0.415882	631.590070	5.984967	8.202337	-0.843086	-1.298681	0.947603
1.250	2.352615	0.403804	630.207440	5.873359	8.368293	-0.834582	-1.327863	0.931972
1.260	2.221444	0.397182	628.596548	5.740422	8.537753	-0.816728	-1.358225	0.913212
1.270	2.085199	0.403766	626.830918	5.581743	8.714433	-0.789406	-1.390237	0.890470
1.280	1.931556	0.418984	624.998104	5.395039	8.902354	-0.752643	-1.424381	0.863209
1.290	1.751215	0.423924	623.208867	5.182061	9.104888	-0.706746	-1.460969	0.831513
1.300	1.540608	0.387769	621.602797	4.949657	9.324033	-0.652740	-1.499999	0.796273
1.310	1.302729	0.275658	620.344162	4.709415	9.559978	-0.592833	-1.541076	0.759162
1.320	1.045960	0.060734	619.603201	4.475862	9.810982	-0.530563	-1.583430	0.722375
1.330	0.781576	-0.263504	619.523152	4.263638	10.073616	-0.470468	-1.626027	0.688213
1.340	0.521200	-0.675644	620.180811	4.084334	10.343356	-0.417464	-1.667797	0.658572
1.350	0.275283	-1.127570	621.554715	3.943819	10.615327	-0.376159	-1.707867	0.634509
1.360	0.052534	-1.555180	623.515538	3.840835	10.884894	-0.350225	-1.745729	0.615997
1.370	-0.140563	-1.895505	625.845776	3.767272	11.147892	-0.341810	-1.781252	0.601949
1.380	-0.300754	-2.104538	628.283914	3.710044	11.400501	-0.351010	-1.814546	0.590504
1.390	-0.429166	-2.169910	630.578739	3.654065	11.638942	-0.375542	-1.845756	0.579478
1.400	-0.531509	-2.114607	632.536629	3.585554	11.859186	-0.410858	-1.874861	0.566853
1.410	-0.616497	-1.990927	634.048317	3.494822	12.056892	-0.450838	-1.901573	0.551192
1.420	-0.692807	-1.866591	635.089125	3.377810	12.227701	-0.488922	-1.925352	0.531864
1.430	-0.766134	-1.806770	635.695440	3.236097	12.367877	-0.519365	-1.945566	0.509064
1.440	-0.838194	-1.856689	635.927966	3.075715	12.475070	-0.538232	-1.961711	0.483658
1.450	-0.908034	-2.029516	635.836938	2.905522	12.548823	-0.543967	-1.973591	0.456960
1.460	-0.973935	-2.303002	635.443640	2.735816	12.590546	-0.537536	-1.981379	0.430536
1.470	-1.033536	-2.625914	634.745142	2.577422	12.602976	-0.522241	-1.985517	0.406056
1.480	-1.081548	-2.932313	633.737286	2.440878	12.589427	-0.503188	-1.986537	0.385156
1.490	-1.107060	-3.159424	632.441194	2.335239	12.553277	-0.486338	-1.984892	0.369242
1.500	-1.093738	-3.264049	630.917997	2.266343	12.498027	-0.477144	-1.980927	0.359213
1.510	-1.024864	-3.233196	629.265543	2.234974	12.427904	-0.479017	-1.974986	0.355172
1.520	-0.891968	-3.086319	627.601841	2.235862	12.348597	-0.492143	-1.967585	0.356255
1.530	-0.702869	-2.868967	626.045176	2.258423	12.267501	-0.513215	-1.959523	0.360744
1.540	-0.484282	-2.640026	624.698935	2.289531	12.193028	-0.536381	-1.951825	0.366501
1.550	-0.276669	-2.456422	623.644134	2.317486	12.133071	-0.555176	-1.945512	0.371604
1.560	-0.122867	-2.359542	622.938024	2.335495	12.093158	-0.564711	-1.941310	0.374916
1.570	-0.054825	-2.366657	622.615288	2.343062	12.075056	-0.563296	-1.939409	0.376326
1.580	-0.083344	-2.469010	622.689311	2.344727	12.076358	-0.552885	-1.939387	0.376548
1.590	-0.194551	-2.636193	623.152910	2.347025	12.091233	-0.538213	-1.940332	0.376637
1.600	-0.354726	-2.824947	623.978631	2.355365	12.112085	-0.525028	-1.941106	0.377475
1.610	-0.522180	-2.989730	625.118436	2.372375	12.131542	-0.518103	-1.940679	0.379508
1.620	-0.661846	-3.092547	626.503005	2.398295	12.144023	-0.519756	-1.938382	0.382807
1.630	-0.756522	-3.110232	628.042154	2.432861	12.146272	-0.529322	-1.933990	0.387372
1.640	-0.809788	-3.038254	629.628978	2.477428	12.136637	-0.543701	-1.927586	0.393474
1.650	-0.839425	-2.890878	631.149506	2.536136	12.113487	-0.558773	-1.919274	0.401828
1.660	-0.864853	-2.697556	632.496821	2.615445	12.073582	-0.571121	-1.908876	0.413511
1.670	-0.895152	-2.495470	633.585493	2.722226	12.011350	-0.579328	-1.895774	0.429654
1.680	-0.923787	-2.319153	634.360929	2.861181	11.919630	-0.584275	-1.878998	0.451034
1.690	-0.932292	-2.190030	634.800350	3.032603	11.791687	-0.588377	-1.857543	0.477726
1.700	-0.900003	-2.109786	634.906453	3.231218	11.623516	-0.594259	-1.830745	0.508928
1.710	-0.813694	-2.060619	634.698397	3.446520	11.415216	-0.603573	-1.798526	0.543017
1.720	-0.671768	-2.012870	634.205126	3.664682	11.170774	-0.616481	-1.761382	0.577839
1.730	-0.481693	-1.937425	633.463334	3.871697	10.896646	-0.631881	-1.720170	0.611195
1.740	-0.253788	-1.818076	632.519001	4.056930	10.600042	-0.648092	-1.675846	0.641393
1.750	0.003736	-1.658738	631.429426	4.215998	10.287728	-0.663605	-1.629276	0.667691
1.760	0.285302	-1.482323	630.262077	4.351985	9.965543	-0.677645	-1.581174	0.690504
1.770	0.584646	-1.321388	629.087673	4.474560	9.638474	-0.690429	-1.532135	0.711278
1.780	0.890941	-1.203935	627.968170	4.597253	9.311065	-0.703038	-1.482729	0.732084
1.790	1.187558	-1.139810	626.944398	4.733776	8.988019	-0.716851	-1.433623	0.755055
1.800	1.454425	-1.113469	626.029580	4.894458	8.674706	-0.732705	-1.385670	0.781825
1.810	1.672701	-1.086855	625.211938	5.083696	8.377248	-0.750206	-1.339905	0.813116
1.820	1.829532	-1.012212	624.465098	5.298942	8.102062	-0.767607	-1.297440	0.848557
1.830	1.921105	-0.850229	623.762692	5.531336	7.855037	-0.782349	-1.259299	0.886769
1.840	1.953066	-0.586482	623.093334	5.767719	7.640728	-0.791926	-1.226257	0.925659
1.850	1.938381	-0.239871	622.472049	5.993468	7.461831	-0.794595	-1.198742	0.962849
1.860	1.893468	0.139767	621.944162	6.195462	7.318923	-0.789623	-1.176781	0.996144
1.870	1.833905	0.483668	621.579215	6.364543	7.210280	-0.777152	-1.159994	1.023931
1.880	1.770911	0.722022	621.455866	6.497036	7.131678	-0.757976	-1.147576	1.045454
1.890	1.709406	0.802922	621.642059	6.595186	7.076441	-0.733442	-1.138347	1.060930
1.900	1.648050	0.707451	622.176099	6.666619	7.036192	-0.705494	-1.130900	1.071500
1.910	1.581457	0.456587	623.053573	6.722941	7.002426	-0.676689	-1.123888	1.079031
1.920	1.504285	0.107493	624.223571	6.777571	6.968317	-0.650035	-1.116318	1.085760
1.930	1.415965	-0.260068	625.595707	6.842949	6.929828	-0.628632	-1.107717	1.093829
1.940	1.323712	-0.563377	627.056212	6.927706	6.885551	-0.615206	-1.098076	1.104798
1.950	1.241555	-0.737010	628.487713	7.034635	6.835563	-0.611632	-1.087621	1.119296
1.960	1.184939	-0.748231	629.785876	7.160227	6.780094	-0.618487	-1.076571	1.136930
1.970	1.163477	-0.603511	630.868433	7.296047	6.718715	-0.634760	-1.064995	1.156508
1.980	1.176049	-0.344552	631.676852	7.431558	6.650249	-0.657858	-1.052793	1.176481
1.990	1.211371	-0.035405	632.175043	7.557471	6.573161	-0.684049	-1.039769	1.195471
2.000	1.253796	0.255123	632.350048	7.668474	6.486039	-0.709293	-1.025704	1.212694
2.010	1.290949	0.470371	632.216377	7.764460	6.387813	-0.730187	-1.010384	1.228133
2.020	1.318864	0.577496	631.821006	7.850069	6.277546	-0.744676	-0.993564	1.242451
2.030	1.342136	0.571595	631.243319	7.933015	6.153906	-0.752288	-0.974887	1.256729
2.040	1.369748	0.472713	630.585078	8.022029	6.014783	-0.753940	-0.953842	1.272156
2.050	1.409564	0.318114	629.949452	8.125035	5.857549	-0.751550	-0.929844	1.289792
2.060	1.464664	0.152833	629.413702	8.247778	5.680103	-0.747654	-0.902443	1.310391
2.070	1.533101	0.020863	629.005116	8.392750	5.482250	-0.744987	-0.871575	1.334290
2.080	1.610467	-0.042043	628.691443	8.558368	5.266604	-0.745960	-0.837709	1.361299
2.090	1.693148	-0.013985	628.393350	8.738624	5.038474	-0.752093	-0.801803	1.390630
2.100	1.780254	0.108991	628.017463	8.923771	4.804784	-0.763649	-0.765072	1.420943
2.110	1.873532	0.311099	627.498341	9.102406	4.572553	-0.779669	-0.728696	1.450587
2.120	1.975902	0.558683	626.832040	9.264680	4.347601	-0.798400	-0.693583	1.478016
2.130	2.089498	0.806634	626.087104	9.405584	4.133819	-0.817920	-0.660263	1.502280
2.140	2.213863	1.008706	625.389173	9.526882	3.932979	-0.836718	-0.628885	1.523353
2.150	2.344886	1.129421	624.886319	9.636658	3.744832	-0.854093	-0.599282	1.542146
2.160	2.475250	1.154053	624.708022	9.746514	3.567342	-0.870343	-0.571042	1.560171
2.170	2.596707	1.093325	624.930634	9.867614	3.397119	-0.886704	-0.543599	1.578993
2.180	2.703116	0.981002	625.558643	10.007171	3.230137	-0.904971	-0.516360	1.599717
2.190	2.792096	0.865039	626.525377	10.166559	3.062699	-0.926819	-0.488839	1.622689
2.200	2.863906	0.795164	627.710478	10.341396	2.892338	-0.952988	-0.460776	1.647479
2.210	2.918456	0.810772	628.966912	10.523208	2.718302	-0.982674	-0.432185	1.673094
2.220	2.953215	0.932306	630.149383	10.701952	2.541437	-1.013496	-0.403307	1.698320
2.230	2.964324	1.157585	631.137668	10.868544	2.363503	-1.042136	-0.374483	1.722056
2.240	2.950835	1.462879	631.851099	11.016632	2.186098	-1.065433	-0.345983	1.743549
2.250	2.919541	1.807649	632.253313	11.143140	2.009497	-1.081374	-0.317831	1.762449
2.260	2.887259	2.141828	632.349195	11.247745	1.831791	-1.089601	-0.289680	1.778724
2.270	2.878809	2.414805	632.176716	11.331829	1.648703	-1.091290	-0.260798	1.792510
2.280	2.920934	2.585311	631.794931	11.397540	1.454337	-1.088616	-0.230191	1.803994
2.290	3.034048	2.630738	631.268520	11.447203	1.242776	-1.084014	-0.196870	1.813365
2.300	3.224577	2.553412	630.651594	11.482985	1.010122	-1.079500	-0.160171	1.820813
2.310	3.480708	2.381207	629.976841	11.506629	0.756204	-1.076271	-0.120037	1.826516
2.320	3.773458	2.161466	629.255840	11.519189	0.485164	-1.074718	-0.077101	1.830605
2.330	4.063207	1.949752	628.491058	11.520797	0.204451	-1.074696	-0.032530	1.833088
2.340	4.310012	1.796610	627.693521	11.510488	-0.077524	-1.075781	0.012351	1.833775
2.350	4.484626	1.735664	626.896929	11.485935	-0.354186	-1.077285	0.056498	1.832189
2.360	4.576701	1.775586	626.160568	11.443200	-0.622870	-1.078106	0.099474	1.827518
2.370	4.597189	1.897655	625.558598	11.377048	-0.885326	-1.076557	0.141526	1.818702
2.380	4.573961	2.059498	625.159533	11.282379	-1.146502	-1.070351	0.183393	1.804720
2.390	4.542257	2.204295	625.004257	11.156634	-1.412168	-1.056876	0.225945	1.785049
2.400	4.533688	2.273613	625.091658	11.002136	-1.686364	-1.033818	0.269779	1.760084
