Time[s]	Fx[N]	Fy[N]	Fz[N]	Mx[Nm]	My[Nm]	Mz[Nm]	COPx[cm]	COPy[cm]
0.010	1.804492	0.162403	680.188751	-9.525691	6.598215	-0.260172	-0.970056	-1.400448
0.020	1.566025	0.199718	680.102000	-9.579719	6.742414	-0.266785	-0.991383	-1.408571
0.030	1.376306	0.235585	680.047902	-9.626844	6.858427	-0.272160	-1.008521	-1.415613
0.040	1.272830	0.266700	680.034881	-9.662942	6.923937	-0.275604	-1.018174	-1.420948
0.050	1.275754	0.287961	680.040179	-9.688067	6.926919	-0.277262	-1.018604	-1.424632
0.060	1.382016	0.292494	680.020319	-9.706662	6.868309	-0.278181	-1.010015	-1.427408
0.070	1.565236	0.272675	679.935910	-9.726262	6.761351	-0.280098	-0.994410	-1.430467
0.080	1.782895	0.222122	679.777129	-9.755114	6.627494	-0.285009	-0.974951	-1.435046
0.090	1.989064	0.138212	679.575266	-9.799487	6.490067	-0.294620	-0.955018	-1.442002
0.100	2.148559	0.024205	679.393544	-9.861440	6.367818	-0.309732	-0.937280	-1.451506
0.110	2.247960	-0.109939	679.301730	-9.937794	6.270299	-0.329701	-0.923051	-1.462943
0.120	2.299887	-0.248591	679.346825	-10.020771	6.196310	-0.352194	-0.912098	-1.475060
0.130	2.338617	-0.373235	679.532334	-10.100246	6.135670	-0.373488	-0.902925	-1.486352
0.140	2.407554	-0.466546	679.813114	-10.166853	6.073745	-0.389314	-0.893443	-1.495536
0.150	2.541969	-0.516951	680.106879	-10.214736	5.997418	-0.396060	-0.881835	-1.501931
0.160	2.752788	-0.522412	680.319317	-10.242810	5.900767	-0.391947	-0.867353	-1.505589
0.170	3.017784	-0.491784	680.375980	-10.254025	5.788600	-0.377794	-0.850794	-1.507112
0.180	3.284505	-0.442406	680.250592	-10.252949	5.676413	-0.357058	-0.834459	-1.507231
0.190	3.485000	-0.394024	679.979029	-10.242823	5.586228	-0.335036	-0.821530	-1.506344
0.200	3.557760	-0.361012	679.652566	-10.223538	5.539220	-0.317416	-0.815008	-1.504230
0.210	3.469486	-0.346012	679.391147	-10.191627	5.547589	-0.308612	-0.816553	-1.500112
0.220	3.229176	-0.337855	679.304265	-10.142272	5.608930	-0.310436	-0.825687	-1.493038
0.230	2.889070	-0.315220	679.451449	-10.072287	5.705624	-0.321515	-0.839740	-1.482414
0.240	2.530818	-0.255179	679.815679	-9.982450	5.809852	-0.337680	-0.854622	-1.468405
0.250	2.240315	-0.143505	680.300646	-9.878020	5.892490	-0.353254	-0.866160	-1.452008
0.260	2.079710	0.017621	680.756628	-9.767205	5.932639	-0.362879	-0.871477	-1.434757
0.270	2.067178	0.208143	681.030107	-9.658350	5.924352	-0.363308	-0.869910	-1.418197
0.280	2.172343	0.396076	681.020869	-9.557092	5.878174	-0.354549	-0.863142	-1.403348
0.290	2.328707	0.548876	680.722786	-9.464678	5.817004	-0.339914	-0.854533	-1.390387
0.300	2.457889	0.645782	680.228389	-9.378100	5.767741	-0.324889	-0.847912	-1.378669
0.310	2.496857	0.686108	679.693628	-9.291841	5.751570	-0.315140	-0.846200	-1.367063
0.320	2.419351	0.690029	679.278506	-9.200377	5.776066	-0.314353	-0.850324	-1.354434
0.330	2.245154	0.691481	679.089746	-9.100392	5.831636	-0.322741	-0.858743	-1.340087
0.340	2.034458	0.725844	679.148373	-8.991968	5.893451	-0.336855	-0.867771	-1.324006
0.350	1.868700	0.816956	679.391978	-8.878506	5.928433	-0.350789	-0.872609	-1.306831
0.360	1.823471	0.968104	679.706260	-8.765465	5.905282	-0.358275	-0.868799	-1.289596
0.370	1.942294	1.160133	679.970349	-8.658286	5.804451	-0.354786	-0.853633	-1.273333
0.380	2.220426	1.357345	680.098210	-8.560233	5.624756	-0.338854	-0.827051	-1.258676
0.390	2.604615	1.519349	680.062664	-8.471130	5.384353	-0.312215	-0.791744	-1.245640
0.400	3.009021	1.614936	679.896292	-8.387727	5.115755	-0.278955	-0.752432	-1.233677
0.410	3.341810	1.633208	679.672047	-8.305571	4.856640	-0.244062	-0.714556	-1.221997
0.420	3.533499	1.587832	679.473020	-8.221500	4.639495	-0.211927	-0.682808	-1.209982
0.430	3.557851	1.512508	679.363384	-8.135657	4.483301	-0.185249	-0.659927	-1.197541
0.440	3.438686	1.448883	679.370839	-8.052230	4.389593	-0.164714	-0.646126	-1.185248
0.450	3.240413	1.431264	679.485881	-7.978695	4.343671	-0.149492	-0.639258	-1.174225
0.460	3.045538	1.474090	679.676062	-7.923993	4.320094	-0.138334	-0.635611	-1.165848
0.470	2.926982	1.567136	679.906414	-7.896390	4.290392	-0.130730	-0.631027	-1.161394
0.480	2.925053	1.680043	680.154355	-7.901672	4.230558	-0.127590	-0.622000	-1.161747
0.490	3.037132	1.773860	680.411426	-7.941864	4.126209	-0.131096	-0.606428	-1.167215
0.500	3.223295	1.814816	680.673079	-8.014507	3.974301	-0.143734	-0.583878	-1.177439
0.510	3.424959	1.785343	680.925550	-8.112630	3.781442	-0.166946	-0.555339	-1.191412
0.520	3.588817	1.689008	681.139944	-8.225660	3.559907	-0.199977	-0.522640	-1.207631
0.530	3.686869	1.548358	681.277723	-8.341325	3.322978	-0.239421	-0.487757	-1.224365
0.540	3.725564	1.396944	681.303609	-8.448216	3.081064	-0.279688	-0.452231	-1.240007
0.550	3.741710	1.268414	681.197759	-8.538325	2.839519	-0.314215	-0.416842	-1.253428
0.560	3.787698	1.186099	680.961067	-8.608700	2.598457	-0.337052	-0.381587	-1.264199
0.570	3.911847	1.156326	680.612877	-8.661580	2.354332	-0.344374	-0.345913	-1.272615
0.580	4.140413	1.167556	680.184730	-8.702998	2.102638	-0.335506	-0.309128	-1.279505
0.590	4.466606	1.195665	679.714447	-8.740473	1.840821	-0.313137	-0.270823	-1.285904
0.600	4.849869	1.213524	679.242606	-8.780719	1.570525	-0.282583	-0.231217	-1.292722
0.610	5.226137	1.201308	678.811024	-8.828122	1.298591	-0.250272	-0.191304	-1.300527
0.620	5.526746	1.153419	678.461883	-8.884322	1.036468	-0.221878	-0.152767	-1.309480
0.630	5.700531	1.079093	678.236042	-8.948821	0.797973	-0.200734	-0.117654	-1.319426
0.640	5.731668	0.996377	678.168882	-9.020083	0.595810	-0.187019	-0.087856	-1.330064
0.650	5.646367	0.922311	678.282322	-9.096429	0.437762	-0.178013	-0.064540	-1.341098
0.660	5.505125	0.864038	678.573829	-9.176250	0.323915	-0.169353	-0.047735	-1.352285
0.670	5.382569	0.815238	679.006652	-9.257650	0.246090	-0.156894	-0.036243	-1.363411
0.680	5.341760	0.759846	679.507655	-9.338040	0.189993	-0.138564	-0.027960	-1.374236
0.690	5.412207	0.681562	679.977591	-9.414178	0.139634	-0.115466	-0.020535	-1.384484
0.700	5.579657	0.574731	680.313975	-9.482751	0.082674	-0.091741	-0.012152	-1.393879
0.710	5.791222	0.451126	680.441300	-9.541306	0.014922	-0.073146	-0.002193	-1.402223
0.720	5.973474	0.338736	680.339301	-9.589158	-0.057702	-0.064918	0.008481	-1.409467
0.730	6.056605	0.272360	680.058255	-9.627834	-0.120748	-0.069775	0.017756	-1.415737
0.740	5.996525	0.279854	679.712245	-9.660655	-0.156131	-0.086805	0.022970	-1.421286
0.750	5.788565	0.369893	679.448295	-9.691382	-0.148791	-0.111565	0.021899	-1.426360
0.760	5.469610	0.526396	679.399503	-9.722371	-0.092648	-0.137189	0.013637	-1.431024
0.770	5.108657	0.711959	679.638453	-9.753169	0.006401	-0.156020	-0.000942	-1.435052
0.780	4.788517	0.879189	680.148529	-9.780278	0.131490	-0.161319	-0.019332	-1.437962
0.790	4.583501	0.985916	680.824333	-9.798245	0.259276	-0.148768	-0.038083	-1.439174
0.800	4.539077	1.008737	681.501408	-9.801441	0.366428	-0.117553	-0.053768	-1.438213
0.810	4.659159	0.950148	682.005032	-9.785736	0.436191	-0.070825	-0.063957	-1.434848
0.820	4.904760	0.837160	682.201783	-9.749523	0.463175	-0.015291	-0.067894	-1.429126
0.830	5.204578	0.712469	682.036862	-9.694098	0.454864	0.040066	-0.066692	-1.421345
0.840	5.474601	0.621518	681.545251	-9.623754	0.429196	0.085930	-0.062974	-1.412049
0.850	5.641138	0.599460	680.834836	-9.545828	0.408861	0.114723	-0.060053	-1.402077
0.860	5.660616	0.661360	680.050436	-9.470665	0.414113	0.122246	-0.060894	-1.392642
0.870	5.530468	0.797835	679.333291	-9.411018	0.456441	0.108425	-0.067190	-1.385331
0.880	5.288088	0.977174	678.789059	-9.380350	0.535184	0.077008	-0.078844	-1.381924
0.890	4.998296	1.153644	678.471358	-9.389919	0.638257	0.034296	-0.094073	-1.383982
0.900	4.733110	1.280092	678.381212	-9.445426	0.746772	-0.012638	-0.110081	-1.392348
0.910	4.550005	1.321385	678.478397	-9.544708	0.842026	-0.057704	-0.124105	-1.406781
0.920	4.475418	1.264374	678.699329	-9.677828	0.912437	-0.097028	-0.134439	-1.425937
0.930	4.498587	1.120805	678.976841	-9.829878	0.957955	-0.129423	-0.141088	-1.447749
0.940	4.577504	0.921945	679.257897	-9.985454	0.990275	-0.156037	-0.145788	-1.470053
0.950	4.654734	0.707012	679.515375	-10.132900	1.028600	-0.179360	-0.151373	-1.491195
0.960	4.677571	0.510055	679.750281	-10.266554	1.092340	-0.201966	-0.160697	-1.510342
0.970	4.615699	0.350616	679.982505	-10.386240	1.193325	-0.225417	-0.175494	-1.527428
0.980	4.470797	0.231619	680.231860	-10.494560	1.330416	-0.249687	-0.195583	-1.542792
0.990	4.275468	0.144343	680.495684	-10.593523	1.488675	-0.273222	-0.218763	-1.556736
1.000	4.082278	0.076920	680.733277	-10.682265	1.643648	-0.293587	-0.241453	-1.569229
1.010	3.946612	0.021580	680.867818	-10.757037	1.769378	-0.308458	-0.259871	-1.579901
1.020	3.908941	-0.022690	680.810314	-10.813476	1.847257	-0.316601	-0.271332	-1.588324
1.030	3.982366	-0.052474	680.498969	-10.849953	1.872399	-0.318434	-0.275151	-1.594411
1.040	4.149574	-0.065111	679.937170	-10.870064	1.855179	-0.315928	-0.272846	-1.598687
1.050	4.370132	-0.063452	679.211161	-10.882762	1.817350	-0.311866	-0.267568	-1.602265
1.060	4.595285	-0.057460	678.476532	-10.899845	1.784189	-0.308718	-0.262970	-1.606518
1.070	4.784785	-0.061686	677.916466	-10.931949	1.775548	-0.307594	-0.261913	-1.612581
1.080	4.919625	-0.089862	677.686315	-10.984880	1.799115	-0.307705	-0.265479	-1.620939
1.090	5.006234	-0.149311	677.863741	-11.057839	1.848378	-0.306607	-0.272677	-1.631277
1.100	5.070957	-0.237898	678.421598	-11.144170	1.905973	-0.301192	-0.280942	-1.642661
1.110	5.147255	-0.344869	679.233324	-11.234133	1.950988	-0.289028	-0.287234	-1.653943
1.120	5.260859	-0.454974	680.109836	-11.318380	1.967277	-0.269478	-0.289259	-1.664199
1.130	5.418881	-0.553762	680.855538	-11.390627	1.949585	-0.244074	-0.286343	-1.672987
1.140	5.606903	-0.631718	681.323561	-11.448493	1.905392	-0.216011	-0.279660	-1.680331
1.150	5.794449	-0.685684	681.451105	-11.492347	1.852192	-0.189023	-0.271801	-1.686452
1.160	5.945966	-0.717358	681.265190	-11.523028	1.811590	-0.166157	-0.265915	-1.691416
1.170	6.033042	-0.729987	680.861735	-11.539856	1.802468	-0.148888	-0.264733	-1.694890
1.180	6.043796	-0.725086	680.369365	-11.540129	1.835469	-0.136793	-0.269775	-1.696157
1.190	5.986598	-0.700813	679.910893	-11.520412	1.910409	-0.127850	-0.280979	-1.694400
1.200	5.886996	-0.652679	679.572616	-11.478948	2.017256	-0.119214	-0.296842	-1.689142
1.210	5.778915	-0.576278	679.387798	-11.418008	2.140166	-0.108257	-0.315014	-1.680632
1.220	5.693098	-0.470992	679.337461	-11.344919	2.263110	-0.093588	-0.333135	-1.669998
1.230	5.646684	-0.343061	679.367853	-11.270996	2.375227	-0.075716	-0.349623	-1.659042
1.240	5.637428	-0.206165	679.418685	-11.208491	2.474232	-0.057069	-0.364169	-1.649718
1.250	5.644639	-0.078366	679.450925	-11.166633	2.566983	-0.041235	-0.377803	-1.643479
1.260	5.636654	0.023929	679.461835	-11.148439	2.667234	-0.031633	-0.392551	-1.640775
1.270	5.582347	0.092331	679.480520	-11.149762	2.791325	-0.030201	-0.410803	-1.640925
1.280	5.462630	0.129848	679.546900	-11.161147	2.953073	-0.036727	-0.434565	-1.642440
1.290	5.277849	0.149287	679.685032	-11.171820	3.159247	-0.049200	-0.464810	-1.643676
1.300	5.048403	0.167338	679.884083	-11.174177	3.406995	-0.065000	-0.501114	-1.643541
1.310	4.808110	0.197099	680.096223	-11.166888	3.684225	-0.082319	-0.541721	-1.641957
1.320	4.592249	0.242315	680.252489	-11.155327	3.973140	-0.101085	-0.584068	-1.639880
1.330	4.424280	0.295660	680.289394	-11.149041	4.256185	-0.122971	-0.625643	-1.638867
1.340	4.306264	0.341761	680.174968	-11.157203	4.522583	-0.150539	-0.664915	-1.640343
1.350	4.217007	0.363963	679.923855	-11.183933	4.773039	-0.185933	-0.701996	-1.644880
1.360	4.119028	0.352149	679.595474	-11.225702	5.020415	-0.229701	-0.738736	-1.651821
1.370	3.972117	0.308138	679.275686	-11.272317	5.285570	-0.280217	-0.778119	-1.659461
1.380	3.748851	0.245853	679.048937	-11.311397	5.589583	-0.333905	-0.823149	-1.665770
1.390	3.446680	0.185577	678.971085	-11.334403	5.945268	-0.386130	-0.875629	-1.669350
1.400	3.091925	0.144282	679.051699	-11.341281	6.351372	-0.432401	-0.935330	-1.670165
1.410	2.733302	0.126222	679.251175	-11.341291	6.791858	-0.469497	-0.999904	-1.669676
1.420	2.425822	0.118391	679.494242	-11.349490	7.240769	-0.496230	-1.065611	-1.670285
1.430	2.209804	0.093791	679.696294	-11.380433	7.671007	-0.513714	-1.128593	-1.674341
1.440	2.092896	0.022158	679.793177	-11.442015	8.063708	-0.525085	-1.186200	-1.683161
1.450	2.043246	-0.115787	679.762882	-11.532197	8.414506	-0.534724	-1.237859	-1.696503
1.460	1.998111	-0.316771	679.631932	-11.640043	8.734220	-0.547111	-1.285140	-1.712698
1.470	1.885687	-0.551902	679.466509	-11.750519	9.043832	-0.565533	-1.331020	-1.729374
1.480	1.652112	-0.774619	679.352849	-11.850699	9.365784	-0.590944	-1.378633	-1.744410
1.490	1.283294	-0.937277	679.372401	-11.934313	9.714850	-0.621292	-1.429974	-1.756667
1.500	0.813091	-1.009707	679.577541	-12.002346	10.091779	-0.651646	-1.485008	-1.766148
1.510	0.314430	-0.991662	679.974142	-12.059691	10.481853	-0.675309	-1.541508	-1.773551
1.520	-0.123601	-0.913372	680.516116	-12.110242	10.858799	-0.685836	-1.595671	-1.779567
1.530	-0.424341	-0.823786	681.113649	-12.153689	11.192695	-0.679364	-1.643293	-1.784385
1.540	-0.547356	-0.771879	681.652881	-12.186011	11.459039	-0.656396	-1.681067	-1.787715
1.550	-0.499024	-0.789493	682.022088	-12.203125	11.645808	-0.622242	-1.707541	-1.789257
1.560	-0.326620	-0.882884	682.138096	-12.205005	11.756171	-0.585804	-1.723430	-1.789228
1.570	-0.098970	-1.035279	681.965932	-12.197295	11.806291	-0.557047	-1.731214	-1.788549
1.580	0.118215	-1.217389	681.525852	-12.189073	11.819458	-0.544032	-1.734264	-1.788498
1.590	0.282727	-1.399846	680.885942	-12.187864	11.818953	-0.550588	-1.735820	-1.790001
1.600	0.384928	-1.562019	680.143890	-12.194588	11.822187	-0.575459	-1.738189	-1.792942
1.610	0.443476	-1.694519	679.404814	-12.201273	11.837828	-0.613192	-1.742382	-1.795877
1.620	0.490661	-1.796110	678.761691	-12.193023	11.866314	-0.656354	-1.748230	-1.796363
1.630	0.553575	-1.868169	678.282356	-12.153668	11.902818	-0.698225	-1.754847	-1.791830
1.640	0.638509	-1.910283	678.004454	-12.072763	11.940995	-0.734982	-1.761197	-1.780632
1.650	0.725021	-1.919282	677.937783	-11.950810	11.975782	-0.766562	-1.766502	-1.762818
1.660	0.772868	-1.891830	678.071993	-11.800237	12.004171	-0.795870	-1.770339	-1.740263
1.670	0.740006	-1.828796	678.386676	-11.641398	12.023908	-0.826604	-1.772427	-1.716042
1.680	0.604971	-1.738744	678.860022	-11.495072	12.031060	-0.860592	-1.772245	-1.693290
1.690	0.384580	-1.638426	679.471575	-11.374598	12.017869	-0.895864	-1.768708	-1.674036
1.700	0.138996	-1.549602	680.195431	-11.280944	11.972028	-0.926434	-1.760086	-1.658486
1.710	-0.039898	-1.493091	680.984736	-11.202661	11.878021	-0.943988	-1.744242	-1.645068
1.720	-0.055000	-1.482015	681.755459	-11.120543	11.720527	-0.940789	-1.719169	-1.631163
1.730	0.162693	-1.516528	682.382488	-11.014801	11.489308	-0.912650	-1.683705	-1.614168
1.740	0.626098	-1.581969	682.718620	-10.871598	11.184351	-0.860873	-1.638208	-1.592398
1.750	1.280745	-1.651259	682.636326	-10.686305	10.819467	-0.792455	-1.584953	-1.565446
1.760	2.015736	-1.690811	682.078901	-10.462626	10.422461	-0.718465	-1.528043	-1.533932
1.770	2.693954	-1.667962	681.099368	-10.208861	10.030872	-0.651092	-1.472747	-1.498880
1.780	3.191086	-1.557761	679.867121	-9.933717	9.683831	-0.600317	-1.424371	-1.461126
1.790	3.430052	-1.347805	678.633897	-9.643764	9.412284	-0.571242	-1.386946	-1.421055
1.800	3.399892	-1.040694	677.667486	-9.343189	9.230771	-0.562856	-1.362139	-1.378728
1.810	3.154517	-0.654055	677.175424	-9.035086	9.133738	-0.568541	-1.348799	-1.334231
1.820	2.793570	-0.218049	677.245034	-8.722871	9.097851	-0.578130	-1.343362	-1.287993
1.830	2.432725	0.229708	677.820001	-8.410832	9.089539	-0.580920	-1.340996	-1.240865
1.840	2.172936	0.651362	678.720565	-8.103720	9.075046	-0.568871	-1.337081	-1.193970
1.850	2.077324	1.016710	679.699510	-7.805948	9.029475	-0.539053	-1.328451	-1.148441
1.860	2.160832	1.309360	680.514345	-7.521008	8.942038	-0.494563	-1.314012	-1.105195
1.870	2.393098	1.528823	680.991743	-7.251366	8.816358	-0.443484	-1.294635	-1.064824
1.880	2.711404	1.687755	681.064825	-6.998760	8.666405	-0.396150	-1.272479	-1.027620
1.890	3.039253	1.805729	680.775097	-6.764803	8.509929	-0.361604	-1.250035	-0.993691
1.900	3.306295	1.902436	680.243499	-6.551667	8.361735	-0.344547	-1.229227	-0.963135
1.910	3.465538	1.993048	679.624344	-6.362368	8.228950	-0.343927	-1.210809	-0.936159
1.920	3.503907	2.086715	679.059070	-6.200076	8.109636	-0.353663	-1.194246	-0.913039
1.930	3.443123	2.187274	678.643569	-6.066361	7.995018	-0.365111	-1.178088	-0.893895
1.940	3.330335	2.294448	678.415704	-5.959205	7.874277	-0.370244	-1.160686	-0.878400
1.950	3.221321	2.404504	678.362078	-5.872071	7.739910	-0.364310	-1.140970	-0.865625
1.960	3.161871	2.510437	678.437458	-5.794954	7.591554	-0.347077	-1.118976	-0.854162
1.970	3.173476	2.602541	678.587543	-5.717262	7.436973	-0.322427	-1.095949	-0.842524
1.980	3.247617	2.670251	678.766647	-5.631372	7.290173	-0.296647	-1.074032	-0.829648
1.990	3.350017	2.705382	678.946102	-5.535317	7.167434	-0.276158	-1.055671	-0.815281
2.000	3.433385	2.705662	679.114579	-5.433468	7.082392	-0.265516	-1.042886	-0.800081
2.010	3.454762	2.676781	679.274163	-5.334953	7.041351	-0.266255	-1.036599	-0.785390
2.020	3.391997	2.631656	679.434950	-5.250437	7.040173	-0.276788	-1.036181	-0.772765
2.030	3.253595	2.586891	679.608558	-5.188448	7.063989	-0.293158	-1.039420	-0.763446
2.040	3.078162	2.557501	679.800709	-5.152484	7.090305	-0.310237	-1.042998	-0.757940
2.050	2.923234	2.551527	680.004953	-5.139792	7.094913	-0.322983	-1.043362	-0.755846
2.060	2.847071	2.566449	680.200690	-5.142079	7.058916	-0.327510	-1.037770	-0.755965
2.070	2.889280	2.589110	680.357047	-5.147881	6.974527	-0.321849	-1.025128	-0.756644
2.080	3.056504	2.599782	680.441281	-5.145898	6.847591	-0.306394	-1.006346	-0.756259
2.090	3.318053	2.579213	680.428831	-5.128344	6.695885	-0.283954	-0.984068	-0.753693
2.100	3.613453	2.516091	680.312338	-5.093250	6.543729	-0.259323	-0.961871	-0.748664
2.110	3.870186	2.412156	680.107455	-5.044866	6.414524	-0.238306	-0.943163	-0.741775
2.120	4.026528	2.283087	679.853190	-4.991983	6.323400	-0.226279	-0.930113	-0.734274
2.130	4.052320	2.154754	679.604876	-4.944887	6.272115	-0.226634	-0.922906	-0.727612
2.140	3.960604	2.055788	679.420437	-4.912163	6.247864	-0.239582	-0.919587	-0.722993
2.150	3.805393	2.008580	679.344696	-4.898429	6.226711	-0.261862	-0.916576	-0.721052
2.160	3.665103	2.021511	679.398117	-4.903508	6.180927	-0.287555	-0.909765	-0.721743
2.170	3.616286	2.085173	679.573225	-4.923035	6.088023	-0.309816	-0.895860	-0.724430
2.180	3.706611	2.174436	679.836977	-4.950188	5.938324	-0.322946	-0.873492	-0.728143
2.190	3.937337	2.256195	680.135837	-4.977996	5.738301	-0.324145	-0.843699	-0.731912
2.200	4.262349	2.300378	680.402857	-5.001489	5.508431	-0.314397	-0.809584	-0.735078
2.210	4.604238	2.290286	680.568584	-5.019124	5.276535	-0.298241	-0.775313	-0.737490
2.220	4.881114	2.228424	680.576651	-5.033090	5.069180	-0.282437	-0.744836	-0.739533
2.230	5.034132	2.135494	680.400916	-5.048415	4.904184	-0.273838	-0.720779	-0.741976
2.240	5.046060	2.042429	680.057589	-5.071033	4.786497	-0.277021	-0.703837	-0.745677
2.250	4.944908	1.977929	679.605661	-5.105399	4.708350	-0.292482	-0.692806	-0.751230
2.260	4.792105	1.956199	679.132996	-5.152517	4.653087	-0.316158	-0.685151	-0.758690
2.270	4.660152	1.970185	678.731813	-5.209165	4.601097	-0.340656	-0.677896	-0.767485
2.280	4.608128	1.993567	678.472891	-5.268667	4.535837	-0.357841	-0.668536	-0.776548
2.290	4.663539	1.991021	678.389028	-5.322932	4.448226	-0.361831	-0.655704	-0.784643
2.300	4.815865	1.932821	678.473555	-5.364958	4.338404	-0.351186	-0.639436	-0.790739
2.310	5.022635	1.808109	678.692100	-5.390905	4.214740	-0.329427	-0.621009	-0.794308
2.320	5.224963	1.631491	679.000162	-5.401198	4.090727	-0.303696	-0.602463	-0.795463
2.330	5.367320	1.440025	679.358149	-5.400502	3.980737	-0.282117	-0.585956	-0.794942
2.340	5.415820	1.281260	679.738249	-5.396607	3.895617	-0.270860	-0.573105	-0.793924
