Time[s]	Fx[N]	Fy[N]	Fz[N]	Mx[Nm]	My[Nm]	Mz[Nm]	COPx[cm]	COPy[cm]
0.010	8.731584	-1.931821	533.649562	-1.473414	-12.766549	-0.608400	2.392309	-0.276101
0.020	8.895378	-1.830689	531.684848	-1.603676	-12.848666	-0.578527	2.416594	-0.301622
0.030	9.010930	-1.754666	529.968838	-1.743552	-12.929651	-0.553140	2.439700	-0.328991
0.040	9.046373	-1.725290	528.711617	-1.900323	-13.008753	-0.535049	2.460463	-0.359425
0.050	8.994260	-1.757748	528.058045	-2.077913	-13.085609	-0.524424	2.478063	-0.393501
0.060	8.871819	-1.858505	528.069210	-2.276548	-13.160039	-0.519005	2.492105	-0.431108
0.070	8.713480	-2.023932	528.717911	-2.493123	-13.231615	-0.515260	2.502585	-0.471541
0.080	8.559183	-2.240300	529.897556	-2.721873	-13.299259	-0.509927	2.509779	-0.513660
0.090	8.442481	-2.485454	531.441851	-2.955076	-13.360998	-0.501279	2.514104	-0.556049
0.100	8.381622	-2.732401	533.152771	-3.183762	-13.413909	-0.489634	2.515960	-0.597157
0.110	8.375880	-2.954365	534.833544	-3.398701	-13.454321	-0.476972	2.515609	-0.635469
0.120	8.408273	-3.130056	536.320743	-3.591793	-13.478331	-0.465850	2.513110	-0.669710
0.130	8.454082	-3.247534	537.507398	-3.757563	-13.482495	-0.458126	2.508337	-0.699072
0.140	8.492070	-3.305592	538.350031	-3.894109	-13.464420	-0.454081	2.501053	-0.723341
0.150	8.513420	-3.312552	538.857701	-4.003012	-13.422967	-0.452358	2.491004	-0.742870
0.160	8.523913	-3.283149	539.068191	-4.088251	-13.358006	-0.450687	2.477981	-0.758392
0.170	8.537984	-3.234610	539.021648	-4.154692	-13.269735	-0.447006	2.461818	-0.770784
0.180	8.567628	-3.183177	538.742202	-4.206792	-13.157690	-0.440401	2.442298	-0.780854
0.190	8.611861	-3.141899	538.233747	-4.247851	-13.019775	-0.431457	2.418982	-0.789220
0.200	8.652139	-3.119716	537.489972	-4.279863	-12.851846	-0.421958	2.391086	-0.796268
0.210	8.656036	-3.121234	536.513752	-4.303743	-12.648396	-0.414125	2.357516	-0.802168
0.220	8.587725	-3.146469	535.337993	-4.319603	-12.404307	-0.409774	2.317098	-0.806893
0.230	8.421031	-3.190284	534.039095	-4.326798	-12.116996	-0.409774	2.268934	-0.810203
0.240	8.149963	-3.241854	532.736160	-4.323815	-11.787911	-0.414035	2.212711	-0.811624
0.250	7.792443	-3.285194	531.574299	-4.308378	-11.422636	-0.421913	2.148832	-0.810494
0.260	7.385414	-3.301655	530.696774	-4.278097	-11.029524	-0.432710	2.078310	-0.806128
0.270	6.972780	-3.274328	530.215017	-4.231543	-10.617426	-0.445984	2.002476	-0.798081
0.280	6.590734	-3.193201	530.186110	-4.169243	-10.193391	-0.461590	1.922606	-0.786374
0.290	6.256220	-3.059262	530.604195	-4.094081	-9.761167	-0.479557	1.839633	-0.771589
0.300	5.962958	-2.885847	531.407175	-4.010931	-9.321070	-0.499901	1.754035	-0.754776
0.310	5.685988	-2.696325	532.494882	-3.925705	-8.871118	-0.522402	1.665954	-0.737229
0.320	5.392178	-2.518644	533.751708	-3.844197	-8.408796	-0.546394	1.575413	-0.720222
0.330	5.052275	-2.378560	535.066706	-3.771094	-7.932603	-0.570639	1.482545	-0.704789
0.340	4.650242	-2.293704	536.346669	-3.709366	-7.442914	-0.593363	1.387706	-0.691599
0.350	4.187190	-2.270027	537.521417	-3.660071	-6.942137	-0.612497	1.291509	-0.680916
0.360	3.679415	-2.301106	538.544205	-3.622359	-6.434397	-0.626099	1.194776	-0.672621
0.370	3.152155	-2.370098	539.391898	-3.593413	-5.925041	-0.632825	1.098467	-0.666197
0.380	2.631758	-2.453798	540.067837	-3.568287	-5.420270	-0.632305	1.003628	-0.660711
0.390	2.138879	-2.528042	540.605658	-3.540051	-4.927082	-0.625270	0.911400	-0.654831
0.400	1.684784	-2.573392	541.068096	-3.500715	-4.453518	-0.613419	0.823098	-0.647001
0.410	1.271934	-2.579679	541.535080	-3.442973	-4.008818	-0.599074	0.740269	-0.635780
0.420	0.898498	-2.547966	542.080894	-3.362231	-3.603118	-0.584728	0.664683	-0.620245
0.430	0.564693	-2.489195	542.747098	-3.258103	-3.246499	-0.572557	0.598161	-0.600299
0.440	0.277860	-2.419975	543.521698	-3.134696	-2.947509	-0.564004	0.542298	-0.576738
0.450	0.053777	-2.357052	544.334016	-2.999436	-2.711545	-0.559601	0.498140	-0.551029
0.460	-0.086468	-2.312385	545.069489	-2.860855	-2.539638	-0.559106	0.465929	-0.524861
0.470	-0.122747	-2.290165	545.600487	-2.726299	-2.428140	-0.561855	0.445040	-0.499688
0.480	-0.042791	-2.286134	545.821331	-2.600483	-2.369495	-0.567111	0.434115	-0.476435
0.490	0.152627	-2.289111	545.673059	-2.485237	-2.353752	-0.574152	0.431348	-0.455444
0.500	0.447389	-2.284523	545.149026	-2.380014	-2.370213	-0.582110	0.434783	-0.436580
0.510	0.810753	-2.259290	544.283494	-2.282518	-2.408668	-0.589732	0.442539	-0.419362
0.520	1.200963	-2.206580	543.134371	-2.189114	-2.460130	-0.595354	0.452951	-0.403052
0.530	1.571802	-2.128494	541.772154	-2.095155	-2.517310	-0.597232	0.464644	-0.386723
0.540	1.881491	-2.035357	540.279494	-1.995496	-2.575142	-0.594138	0.476632	-0.369345
0.550	2.101940	-1.941703	538.755707	-1.885244	-2.631358	-0.585948	0.488414	-0.349926
0.560	2.225290	-1.860645	537.315554	-1.760530	-2.686743	-0.573935	0.500031	-0.327653
0.570	2.265030	-1.799007	536.075213	-1.619052	-2.744630	-0.560600	0.511986	-0.302020
0.580	2.250808	-1.755070	535.127982	-1.460294	-2.809441	-0.549113	0.525004	-0.272887
0.590	2.218506	-1.719334	534.521036	-1.285523	-2.884642	-0.542548	0.539669	-0.240500
0.600	2.199095	-1.677522	534.246189	-1.097652	-2.970941	-0.543122	0.556100	-0.205458
0.610	2.210387	-1.614561	534.250221	-0.901040	-3.065622	-0.551624	0.573818	-0.168655
0.620	2.254578	-1.518457	534.458933	-0.701241	-3.163359	-0.567178	0.591881	-0.131206
0.630	2.321933	-1.383454	534.801951	-0.504623	-3.258131	-0.587424	0.609222	-0.094357
0.640	2.398472	-1.212162	535.226894	-0.317676	-3.345293	-0.609060	0.625023	-0.059353
0.650	2.474069	-1.016057	535.699625	-0.145850	-3.422896	-0.628592	0.638958	-0.027226
0.660	2.547607	-0.813580	536.195748	0.007891	-3.491913	-0.643053	0.651238	0.001472
0.670	2.627180	-0.625728	536.692268	0.144345	-3.555626	-0.650526	0.662507	0.026895
0.680	2.725424	-0.470363	537.166454	0.268606	-3.618738	-0.650432	0.673672	0.050004
0.690	2.852200	-0.357416	537.603297	0.389583	-3.686547	-0.643599	0.685737	0.072467
0.700	3.008210	-0.286712	538.006495	0.518581	-3.764260	-0.632118	0.699668	0.096389
0.710	3.183015	-0.248938	538.403699	0.667167	-3.856387	-0.618903	0.716263	0.123916
0.720	3.358940	-0.228987	538.837966	0.844646	-3.966192	-0.607011	0.736064	0.156753
0.730	3.519298	-0.210238	539.344888	1.055618	-4.095243	-0.598868	0.759300	0.195722
0.740	3.656908	-0.178219	539.924744	1.298348	-4.243107	-0.595681	0.785870	0.240468
0.750	3.778545	-0.122648	540.524212	1.564631	-4.407198	-0.597273	0.815356	0.289465
0.760	3.903042	-0.037725	541.038381	1.841388	-4.582756	-0.602394	0.847030	0.340343
0.770	4.053859	0.078540	541.333528	2.113577	-4.763007	-0.609354	0.879865	0.390439
0.780	4.249373	0.224846	541.281901	2.367467	-4.939589	-0.616672	0.912572	0.437382
0.790	4.494988	0.396314	540.796469	2.593283	-5.103335	-0.623433	0.943670	0.479530
0.800	4.780212	0.583758	539.855458	2.786521	-5.245391	-0.629271	0.971629	0.516161
0.810	5.081508	0.773596	538.510093	2.947784	-5.358464	-0.634114	0.995054	0.547396
0.820	5.369163	0.949247	536.873730	3.081504	-5.437788	-0.637928	1.012862	0.573972
0.830	5.614891	1.094038	535.097150	3.194198	-5.481474	-0.640581	1.024389	0.596938
0.840	5.797211	1.194700	533.340749	3.292764	-5.490152	-0.641836	1.029389	0.617385
0.850	5.903342	1.244175	531.754759	3.383006	-5.466180	-0.641431	1.027951	0.636197
0.860	5.928308	1.242647	530.471447	3.468427	-5.412890	-0.639208	1.020392	0.653839
0.870	5.873027	1.196286	529.603764	3.549448	-5.334229	-0.635228	1.007211	0.670208
0.880	5.742977	1.114189	529.240982	3.623380	-5.234793	-0.629778	0.989113	0.684637
0.890	5.547855	1.004964	529.436433	3.685367	-5.119892	-0.623248	0.967046	0.696092
0.900	5.301448	0.874702	530.191264	3.730164	-4.995216	-0.615965	0.942154	0.703551
0.910	5.020788	0.727318	531.444016	3.754292	-4.866061	-0.608138	0.915630	0.706432
0.920	4.724541	0.566981	533.074522	3.757843	-4.736506	-0.599972	0.888526	0.704938
0.930	4.431367	0.401209	534.922879	3.745225	-4.608928	-0.591901	0.861606	0.700143
0.940	4.158773	0.242698	536.815576	3.724469	-4.484003	-0.584776	0.835297	0.693808
0.950	3.922024	0.108373	538.588190	3.705218	-4.360999	-0.579797	0.809709	0.687950
0.960	3.732292	0.015458	540.098997	3.696018	-4.238071	-0.578089	0.784684	0.684322
0.970	3.593977	-0.023960	541.235064	3.701913	-4.112422	-0.580057	0.759822	0.683975
0.980	3.502290	-0.007463	541.915483	3.723356	-3.980407	-0.584848	0.734507	0.687073
0.990	3.442831	0.056092	542.094541	3.756977	-3.837772	-0.590262	0.707952	0.693048
1.000	3.394324	0.148617	541.764355	3.797894	-3.680120	-0.593264	0.679284	0.701023
1.010	3.334219	0.247628	540.955605	3.842566	-3.503532	-0.591011	0.647656	0.710329
1.020	3.245060	0.332194	539.736327	3.891075	-3.305216	-0.582065	0.612376	0.720921
1.030	3.118872	0.388198	538.209945	3.948124	-3.084096	-0.567280	0.573029	0.733566
1.040	2.957848	0.411656	536.512663	4.022390	-2.841249	-0.549918	0.529577	0.749729
1.050	2.771628	0.409493	534.807950	4.124267	-2.580072	-0.534773	0.482430	0.771168
1.060	2.572711	0.397798	533.274769	4.262440	-2.306070	-0.526554	0.432436	0.799295
1.070	2.371622	0.397980	532.088325	4.440258	-2.026203	-0.528102	0.380802	0.834496
1.080	2.173011	0.431318	531.396267	4.653180	-1.747913	-0.539164	0.328928	0.875652
1.090	1.973548	0.512563	531.296090	4.888475	-1.478154	-0.556329	0.278217	0.920104
1.100	1.762268	0.643868	531.819509	5.127670	-1.222734	-0.574258	0.229915	0.964175
1.110	1.523603	0.811294	532.927402	5.351121	-0.986094	-0.587670	0.185033	1.004100
1.120	1.242795	0.986226	534.516210	5.543026	-0.771360	-0.593204	0.144310	1.037017
1.130	0.912738	1.132299	536.434196	5.695029	-0.580463	-0.590340	0.108208	1.061645
1.140	0.540391	1.215729	538.503777	5.807317	-0.414257	-0.581182	0.076927	1.078417
1.150	0.149965	1.215182	540.544759	5.887247	-0.272788	-0.569376	0.050465	1.089132
1.160	-0.219749	1.127727	542.393789	5.946432	-0.155836	-0.558767	0.028731	1.096331
1.170	-0.524448	0.969317	543.917377	5.997351	-0.063610	-0.552283	0.011695	1.102622
1.180	-0.726956	0.770161	545.018217	6.050437	0.002832	-0.551343	-0.000520	1.110135
1.190	-0.808370	0.566675	545.636061	6.112208	0.041958	-0.555877	-0.007690	1.120199
1.200	-0.773124	0.392491	545.745099	6.184735	0.053029	-0.564821	-0.009717	1.133264
1.210	-0.646357	0.271315	545.350263	6.266357	0.037633	-0.576773	-0.006901	1.149052
1.220	-0.465553	0.213751	544.485441	6.353287	0.000464	-0.590508	-0.000085	1.166842
1.230	-0.270367	0.218637	543.216607	6.441514	-0.051529	-0.605180	0.009486	1.185809
1.240	-0.094223	0.277336	541.650587	6.528351	-0.111699	-0.620282	0.020622	1.205270
1.250	0.040689	0.378252	539.945043	6.613064	-0.177236	-0.635508	0.032825	1.224766
1.260	0.125468	0.509222	538.309977	6.696366	-0.252274	-0.650592	0.046864	1.243961
1.270	0.165028	0.657245	536.990362	6.779028	-0.349159	-0.665137	0.065021	1.262411
1.280	0.177802	0.806826	536.225730	6.860364	-0.486846	-0.678475	0.090791	1.279380
1.290	0.193692	0.939039	536.193422	6.937408	-0.686422	-0.689653	0.128018	1.293826
1.300	0.248669	1.032956	536.952267	7.005346	-0.964878	-0.697646	0.179695	1.304650
1.310	0.375863	1.069699	538.408059	7.059090	-1.329260	-0.701724	0.246887	1.311104
1.320	0.595788	1.037943	540.317886	7.095300	-1.773539	-0.701817	0.328240	1.313171
1.330	0.910038	0.938956	542.337360	7.113847	-2.279604	-0.698661	0.420329	1.311701
1.340	1.301848	0.789297	544.097703	7.117977	-2.821998	-0.693666	0.518656	1.308217
1.350	1.743594	0.619655	545.287125	7.113178	-3.374469	-0.688541	0.618843	1.304483
1.360	2.207722	0.469095	545.710018	7.105445	-3.915770	-0.684879	0.717555	1.302055
1.370	2.676038	0.375549	545.308987	7.099837	-4.432784	-0.683837	0.812894	1.301984
1.380	3.143491	0.365277	544.150896	7.099883	-4.920325	-0.686042	0.904221	1.304764
1.390	3.615511	0.444979	542.389740	7.107736	-5.378401	-0.691654	0.991612	1.310448
1.400	4.100608	0.599743	540.222847	7.124597	-5.808682	-0.700475	1.075238	1.318826
1.410	4.601652	0.797923	537.854805	7.150935	-6.212072	-0.711983	1.154972	1.329529
1.420	5.109466	1.001323	535.477066	7.186432	-6.588421	-0.725265	1.230383	1.342062
1.430	5.601420	1.176737	533.262229	7.229790	-6.937976	-0.738929	1.301044	1.355766
1.440	6.045723	1.304204	531.364856	7.278582	-7.263095	-0.751088	1.366875	1.369790
1.450	6.409799	1.378898	529.919075	7.329136	-7.568751	-0.759536	1.428284	1.383067
1.460	6.669457	1.406650	529.027213	7.376467	-7.861270	-0.762177	1.485986	1.394346
1.470	6.815406	1.396101	528.740508	7.414402	-8.145901	-0.757603	1.540624	1.402276
1.480	6.855140	1.351861	529.039533	7.436134	-8.424418	-0.745589	1.592399	1.405591
1.490	6.810370	1.272248	529.825181	7.435402	-8.693883	-0.727222	1.640897	1.403369
1.500	6.711718	1.152558	530.928729	7.408193	-8.947024	-0.704622	1.685165	1.395327
1.510	6.592758	0.991734	532.142020	7.354539	-9.173876	-0.680409	1.723953	1.382063
1.520	6.484643	0.798459	533.259617	7.279640	-9.363973	-0.657157	1.755988	1.365121
1.530	6.411597	0.593066	534.119569	7.193609	-9.508421	-0.637038	1.780205	1.346816
1.540	6.387188	0.403880	534.630770	7.109552	-9.601470	-0.621630	1.795907	1.329806
1.550	6.411679	0.259315	534.780624	7.040469	-9.641355	-0.611790	1.802862	1.316515
1.560	6.471048	0.178884	534.623563	6.995977	-9.630239	-0.607541	1.801312	1.308580
1.570	6.538129	0.166673	534.257194	6.980002	-9.573275	-0.608000	1.791885	1.306487
1.580	6.576297	0.209792	533.796403	6.990222	-9.477097	-0.611443	1.775414	1.309530
1.590	6.546129	0.282293	533.354470	7.019394	-9.348386	-0.615576	1.752753	1.316084
1.600	6.414596	0.353074	533.034343	7.058033	-9.193184	-0.617990	1.724689	1.324123
1.610	6.164530	0.395155	532.926556	7.097496	-9.017265	-0.616747	1.692028	1.331796
1.620	5.800760	0.393532	533.107301	7.132525	-8.827269	-0.610939	1.655815	1.337916
1.630	5.350000	0.349241	533.632106	7.162526	-8.631820	-0.601010	1.617560	1.342222
1.640	4.854230	0.278186	534.524900	7.191307	-8.441773	-0.588633	1.579304	1.345364
1.650	4.360245	0.205016	535.765821	7.225416	-8.269149	-0.576132	1.543426	1.348615
1.660	3.909398	0.154306	537.283395	7.271573	-8.125034	-0.565731	1.512244	1.353396
1.670	3.530892	0.142460	538.957256	7.334051	-8.017325	-0.559032	1.487562	1.360785
1.680	3.239917	0.173375	540.634945	7.413015	-7.949327	-0.556879	1.470369	1.371168
1.690	3.039832	0.239149	542.159983	7.504506	-7.919792	-0.559520	1.460785	1.384187
1.700	2.926223	0.324955	543.401788	7.602124	-7.924285	-0.566787	1.458274	1.398988
1.710	2.890590	0.415644	544.276065	7.699660	-7.957175	-0.578137	1.461974	1.414661
1.720	2.922595	0.501394	544.749048	7.793490	-8.013404	-0.592565	1.471027	1.430657
1.730	3.011111	0.580422	544.827360	7.883734	-8.089446	-0.608558	1.484772	1.447015
1.740	3.144852	0.657976	544.541715	7.973807	-8.183333	-0.624241	1.502793	1.464315
1.750	3.312847	0.742349	543.933216	8.068689	-8.294057	-0.637721	1.524830	1.483397
1.760	3.504546	0.839894	543.047340	8.172678	-8.420808	-0.647506	1.550658	1.504966
1.770	3.709408	0.951462	541.936487	8.287477	-8.562527	-0.652824	1.579987	1.529234
1.780	3.916371	1.071957	540.668427	8.411296	-8.717947	-0.653725	1.612439	1.555722
1.790	4.113986	1.193075	539.334169	8.539219	-8.886078	-0.650989	1.647602	1.583289
1.800	4.291815	1.307594	538.047013	8.664609	-9.066778	-0.645882	1.685127	1.610381
1.810	4.443080	1.412619	536.928062	8.780878	-9.261022	-0.639880	1.724816	1.635392
1.820	4.567699	1.509822	536.081721	8.882911	-9.470678	-0.634374	1.766648	1.657007
1.830	4.673931	1.602558	535.571737	8.967823	-9.697892	-0.630404	1.810755	1.674439
1.840	4.776872	1.691745	535.408598	9.035175	-9.944352	-0.628452	1.857339	1.687529
1.850	4.893562	1.773171	535.552700	9.086854	-10.210561	-0.628414	1.906546	1.696725
1.860	5.036589	1.838081	535.929969	9.126637	-10.495203	-0.629760	1.958316	1.702953
1.870	5.209342	1.876942	536.452341	9.159233	-10.794733	-0.631823	2.012244	1.707371
1.880	5.405380	1.884470	537.035483	9.188909	-11.103500	-0.634050	2.067554	1.711043
1.890	5.612373	1.863234	537.609165	9.218275	-11.414542	-0.636195	2.123204	1.714680
1.900	5.818730	1.824121	538.119751	9.247959	-11.720758	-0.638457	2.178095	1.718569
1.910	6.019557	1.783664	538.527472	9.277395	-12.015948	-0.641559	2.231260	1.722734
1.920	6.218904	1.759653	538.801964	9.306089	-12.295304	-0.646622	2.281971	1.727182
1.930	6.427156	1.766676	538.918572	9.334455	-12.555332	-0.654763	2.329727	1.732071
1.940	6.654812	1.812917	538.856642	9.363688	-12.793494	-0.666486	2.374192	1.737696
1.950	6.905617	1.898970	538.600410	9.394896	-13.007955	-0.681175	2.415140	1.744317
1.960	7.172258	2.018744	538.142664	9.428110	-13.197605	-0.696979	2.452436	1.751972
1.970	7.436569	2.161756	537.490627	9.461785	-13.362239	-0.711210	2.486041	1.760363
1.980	7.674129	2.315589	536.672654	9.493045	-13.502687	-0.721133	2.516001	1.768871
1.990	7.861392	2.467651	535.743683	9.518584	-13.620825	-0.724805	2.542415	1.776705
2.000	7.982596	2.606109	534.786543	9.535833	-13.719569	-0.721648	2.565429	1.783110
2.010	8.033864	2.720494	533.905866	9.543799	-13.802850	-0.712553	2.585259	1.787543
2.020	8.023215	2.802446	533.212846	9.543169	-13.875413	-0.699526	2.602228	1.789749
2.030	7.967050	2.846726	532.802925	9.535720	-13.942250	-0.685037	2.616774	1.789727
2.040	7.885081	2.852315	532.732881	9.523469	-14.007789	-0.671286	2.629421	1.787663
2.050	7.795918	2.823178	533.005385	9.508035	-14.075049	-0.659647	2.640695	1.783854
2.060	7.714703	2.768186	533.566448	9.490290	-14.144998	-0.650490	2.651028	1.778652
2.070	7.652879	2.699845	534.316013	9.470121	-14.216258	-0.643426	2.660646	1.772382
2.080	7.619120	2.632045	535.127538	9.446187	-14.285208	-0.637817	2.669496	1.765222
2.090	7.620010	2.577555	535.871004	9.415899	-14.346444	-0.633258	2.677220	1.757121
2.100	7.659532	2.545985	536.434826	9.375904	-14.393472	-0.629814	2.683173	1.747818
2.110	7.737438	2.542601	536.743445	9.323062	-14.419570	-0.627938	2.686492	1.736968
2.120	7.847519	2.568072	536.767466	9.255507	-14.418861	-0.628185	2.686240	1.724305
2.130	7.976953	2.619120	536.523514	9.173202	-14.387425	-0.630892	2.681602	1.709748
2.140	8.107326	2.689750	536.063972	9.077672	-14.323946	-0.635978	2.672059	1.693393
2.150	8.217030	2.772293	535.460781	8.971011	-14.229295	-0.642879	2.657393	1.675381
2.160	8.284223	2.857648	534.788414	8.854538	-14.104939	-0.650595	2.637480	1.655709
2.170	8.289654	2.934681	534.108956	8.727617	-13.950841	-0.657842	2.611984	1.634052
2.180	8.219084	2.989645	533.461013	8.587095	-13.763957	-0.663295	2.580124	1.609695
2.190	8.065488	3.006767	532.856015	8.427719	-13.538260	-0.665878	2.540698	1.581613
2.200	7.831013	2.970713	532.286634	8.243631	-13.266555	-0.665034	2.492371	1.548720
2.210	7.527864	2.870516	531.748519	8.030637	-12.943583	-0.660858	2.434155	1.510232
2.220	7.176752	2.703577	531.268891	7.788506	-12.569383	-0.654042	2.365917	1.466020
2.230	6.802206	2.477979	530.928980	7.522382	-12.151722	-0.645659	2.288766	1.416834
2.240	6.425734	2.211811	530.866792	7.242462	-11.706640	-0.636886	2.205194	1.364271
2.250	6.059312	1.929284	531.253345	6.961669	-11.256689	-0.628751	2.118893	1.310424
2.260	5.701788	1.654631	532.246391	6.691896	-10.827097	-0.621940	2.034227	1.257293
2.270	5.339713	1.405803	533.936117	6.440335	-10.440897	-0.616705	1.955458	1.206199
2.280	4.952778	1.190321	536.302586	6.207620	-10.114590	-0.612866	1.885986	1.157485
2.290	4.522966	1.004942	539.201633	5.988734	-9.855956	-0.609895	1.827879	1.110667
2.300	4.045592	0.839085	542.384899	5.776164	-9.664686	-0.607038	1.781887	1.064957
2.310	3.539005	0.680190	545.546010	5.563562	-9.535218	-0.603424	1.747830	1.019815
2.320	3.048605	0.518637	548.375934	5.348060	-9.460171	-0.598122	1.725125	0.975254
2.330	2.641461	0.350692	550.610791	5.130391	-9.432770	-0.590249	1.713147	0.931764
2.340	2.391073	0.179237	552.062559	4.913276	-9.447481	-0.579210	1.711306	0.889985
2.350	2.356522	0.012713	552.631097	4.699285	-9.499177	-0.565072	1.718900	0.850348
2.360	2.563679	-0.137153	552.300289	4.489344	-9.581785	-0.548872	1.734887	0.812845
2.370	2.995959	-0.258210	551.122459	4.282452	-9.687401	-0.532635	1.757758	0.777042
2.380	3.598220	-0.340577	549.196810	4.076497	-9.806376	-0.519017	1.785585	0.742265
2.390	4.291899	-0.378512	546.649541	3.869550	-9.928345	-0.510651	1.816218	0.707867
