Time[s]	Fx[N]	Fy[N]	Fz[N]	Mx[Nm]	My[Nm]	Mz[Nm]	COPx[cm]	COPy[cm]
0.010	2.087355	2.229079	721.915100	-11.937631	-23.466851	-0.145258	3.250639	-1.653606
0.020	2.042657	2.070567	721.773026	-12.600260	-23.275522	-0.131227	3.224770	-1.745737
0.030	2.027637	1.858076	721.692276	-13.258704	-23.098247	-0.118851	3.200567	-1.837169
0.040	2.064291	1.554248	721.722590	-13.910208	-22.946251	-0.109911	3.179373	-1.927362
0.050	2.165729	1.149433	721.874521	-14.554834	-22.826346	-0.106135	3.162093	-2.016255
0.060	2.337411	0.662758	722.102627	-15.195459	-22.740459	-0.108739	3.149200	-2.104335
0.070	2.580575	0.133676	722.298453	-15.837034	-22.686261	-0.117933	3.140843	-2.192589
0.080	2.895101	-0.391956	722.300493	-16.485198	-22.658480	-0.132789	3.136988	-2.282319
0.090	3.279554	-0.875479	721.925667	-17.144372	-22.650079	-0.151632	3.137453	-2.374811
0.100	3.727826	-1.293789	721.019519	-17.815677	-22.652686	-0.172797	3.141758	-2.470901
0.110	4.223889	-1.640768	719.512447	-18.495362	-22.656237	-0.195330	3.148832	-2.570541
0.120	4.737640	-1.923598	717.462197	-19.174596	-22.648442	-0.219336	3.156744	-2.672558
0.130	5.224673	-2.157172	715.064382	-19.841129	-22.614916	-0.245887	3.162641	-2.774733
0.140	5.631168	-2.358785	712.623793	-20.482578	-22.540493	-0.276584	3.163028	-2.874248
0.150	5.903112	-2.543585	710.493878	-21.090229	-22.411582	-0.312882	3.154367	-2.968390
0.160	5.997805	-2.720619	709.001935	-21.661867	-22.218845	-0.355321	3.133820	-3.055262
0.170	5.894752	-2.889942	708.380019	-22.202374	-21.959191	-0.402876	3.099917	-3.134246
0.180	5.602454	-3.042080	708.717887	-22.721832	-21.636180	-0.452745	3.052862	-3.206047
0.190	5.157885	-3.161217	709.947444	-23.231862	-21.258348	-0.500813	2.994355	-3.272336
0.200	4.617384	-3.232377	711.860376	-23.741728	-20.835706	-0.542774	2.926937	-3.335166
0.210	4.040917	-3.250666	714.153824	-24.255619	-20.375474	-0.575510	2.853093	-3.396414
0.220	3.474977	-3.228662	716.493633	-24.771902	-19.878592	-0.598176	2.774427	-3.457379
0.230	2.940499	-3.197775	718.580585	-25.284256	-19.338271	-0.612544	2.691176	-3.518639
0.240	2.430206	-3.201739	720.203373	-25.784128	-18.740952	-0.622601	2.602175	-3.580118
0.250	1.915711	-3.284025	721.265563	-26.263866	-18.069110	-0.633608	2.505195	-3.641359
0.260	1.361060	-3.473887	721.782666	-26.719837	-17.304990	-0.650913	2.397535	-3.701923
0.270	0.738007	-3.776394	721.855548	-27.154766	-16.434678	-0.678714	2.276727	-3.761801
0.280	0.038824	-4.169950	721.632367	-27.578518	-15.452311	-0.718941	2.141300	-3.821685
0.290	-0.716616	-4.611730	721.271097	-28.006960	-14.364070	-0.770476	1.991494	-3.883001
0.300	-1.482121	-5.048998	720.910342	-28.459282	-13.190800	-0.828982	1.829742	-3.947687
0.310	-2.196455	-5.433032	720.650837	-28.954695	-11.967629	-0.887623	1.660670	-4.017854
0.320	-2.803395	-5.732057	720.546693	-29.509513	-10.739540	-0.938762	1.490471	-4.095434
0.330	-3.275090	-5.939640	720.604785	-30.135183	-9.553530	-0.976331	1.325766	-4.181929
0.340	-3.629691	-6.075991	720.791738	-30.837354	-8.449773	-0.998133	1.172290	-4.278261
0.350	-3.934300	-6.181698	721.047986	-31.615656	-7.454969	-1.007071	1.033907	-4.384681
0.360	-4.288950	-6.305968	721.306297	-32.463770	-6.580253	-1.010533	0.912269	-4.500691
0.370	-4.794809	-6.493233	721.509561	-33.369672	-5.824181	-1.017928	0.807222	-4.624980
0.380	-5.516952	-6.772079	721.622623	-34.316196	-5.179335	-1.037327	0.717735	-4.755421
0.390	-6.455441	-7.149126	721.636066	-35.282115	-4.639751	-1.072684	0.642949	-4.889184
0.400	-7.536156	-7.608618	721.563614	-36.243616	-4.206223	-1.122821	0.582932	-5.022927
0.410	-8.625435	-8.116953	721.436481	-37.176101	-3.887593	-1.182405	0.538868	-5.153066
0.420	-9.563376	-8.630460	721.297044	-38.056402	-3.697962	-1.244165	0.512682	-5.276107
0.430	-10.204106	-9.104631	721.191927	-38.865524	-3.651434	-1.301166	0.506305	-5.389068
0.440	-10.449986	-9.503469	721.162907	-39.591512	-3.756776	-1.348197	0.520933	-5.489954
0.450	-10.270576	-9.807837	721.234351	-40.231451	-4.013962	-1.382062	0.556541	-5.578139
0.460	-9.703358	-10.021117	721.398275	-40.791551	-4.413359	-1.401193	0.611778	-5.654512
0.470	-8.838917	-10.169610	721.601740	-41.284749	-4.937078	-1.405211	0.684183	-5.721265
0.480	-7.796754	-10.295629	721.744243	-41.726371	-5.561437	-1.394864	0.770555	-5.781324
0.490	-6.699128	-10.443856	721.692801	-42.129393	-6.259836	-1.372280	0.867382	-5.837580
0.500	-5.649337	-10.645149	721.317961	-42.501317	-7.005995	-1.341164	0.971277	-5.892175
0.510	-4.717986	-10.904103	720.544918	-42.843838	-7.777743	-1.306425	1.079425	-5.946033
0.520	-3.937318	-11.195688	719.402942	-43.155002	-8.560980	-1.273007	1.190012	-5.998725
0.530	-3.301524	-11.472535	718.049048	-43.432295	-9.352479	-1.244187	1.302485	-6.048653
0.540	-2.771484	-11.680003	716.745327	-43.674785	-10.159878	-1.220131	1.417502	-6.093487
0.550	-2.284297	-11.773328	715.786887	-43.883355	-10.997943	-1.197558	1.536483	-6.130785
0.560	-1.768247	-11.731029	715.403157	-44.059498	-11.881846	-1.170906	1.660860	-6.158695
0.570	-1.161314	-11.560963	715.674402	-44.204094	-12.819871	-1.134524	1.791299	-6.176565
0.580	-0.427941	-11.298403	716.503516	-44.317394	-13.808520	-1.084825	1.927209	-6.185231
0.590	0.432302	-10.997885	717.658076	-44.400456	-14.832086	-1.021348	2.066734	-6.186854
0.600	1.387683	-10.721507	718.862690	-44.457181	-15.866633	-0.946383	2.207185	-6.184377
0.610	2.386982	-10.526409	719.897493	-44.495533	-16.886100	-0.863643	2.345626	-6.180815
0.620	3.375167	-10.453990	720.658354	-44.526728	-17.867177	-0.776893	2.479285	-6.178618
0.630	4.304639	-10.523145	721.156045	-44.562353	-18.790612	-0.689282	2.605624	-6.179294
0.640	5.138474	-10.729042	721.461358	-44.610785	-19.639125	-0.603441	2.722131	-6.183392
0.650	5.847679	-11.047646	721.626110	-44.674951	-20.394377	-0.521855	2.826169	-6.190872
0.660	6.407678	-11.444643	721.617750	-44.752836	-21.035881	-0.446926	2.915100	-6.201737
0.670	6.798051	-11.886223	721.297893	-44.840560	-21.543047	-0.380584	2.986706	-6.216649
0.680	7.005675	-12.348623	720.456989	-44.936412	-21.899245	-0.323747	3.039632	-6.237210
0.690	7.028426	-12.823622	718.894801	-45.043741	-22.095572	-0.276039	3.073547	-6.265693
0.700	6.876340	-13.318090	716.516827	-45.171164	-22.132473	-0.235924	3.088898	-6.304271
0.710	6.569153	-13.847236	713.408259	-45.329868	-22.018728	-0.201193	3.086413	-6.353987
0.720	6.131317	-14.423262	709.854781	-45.529093	-21.768626	-0.169654	3.066631	-6.413860
0.730	5.586712	-15.043396	706.301155	-45.771695	-21.398784	-0.139804	3.029697	-6.480479
0.740	4.955211	-15.682488	703.263050	-46.051475	-20.926084	-0.111251	2.975570	-6.548257
0.750	4.252715	-16.294095	701.221339	-46.353205	-20.367622	-0.084751	2.904592	-6.610353
0.760	3.495320	-16.820241	700.525669	-46.655060	-19.742587	-0.061857	2.818253	-6.660007
0.770	2.706162	-17.206129	701.323194	-46.932225	-19.074883	-0.044364	2.719842	-6.691954
0.780	1.920707	-17.414128	703.521000	-47.160069	-18.394742	-0.033781	2.614668	-6.703434
0.790	1.185482	-17.431994	706.790682	-47.315777	-17.737857	-0.031011	2.509634	-6.694454
0.800	0.548396	-17.272643	710.623320	-47.378311	-17.141797	-0.036225	2.412220	-6.667148
0.810	0.044573	-16.965674	714.433533	-47.327413	-16.640854	-0.048744	2.329238	-6.624467
0.820	-0.314408	-16.543544	717.691360	-47.142576	-16.261164	-0.066771	2.265760	-6.568642
0.830	-0.541147	-16.027027	720.041897	-46.802664	-16.017557	-0.087123	2.224531	-6.499992
0.840	-0.662200	-15.415091	721.371073	-46.286448	-15.912561	-0.105448	2.205877	-6.416455
0.850	-0.702848	-14.683386	721.797563	-45.574100	-15.937241	-0.117338	2.207993	-6.313972
0.860	-0.675402	-13.793221	721.602793	-44.649547	-16.073401	-0.120191	2.227458	-6.187552
0.870	-0.576761	-12.709008	721.132396	-43.503463	-16.296945	-0.114988	2.259910	-6.032660
0.880	-0.394928	-11.418041	720.703219	-42.136424	-16.582104	-0.106854	2.300823	-5.846571
0.890	-0.119524	-9.944489	720.536072	-40.561627	-16.905888	-0.103807	2.346293	-5.629368
0.900	0.249307	-8.351355	720.718642	-38.806397	-17.251709	-0.113976	2.393682	-5.384403
0.910	0.696682	-6.728931	721.194298	-36.911769	-17.611149	-0.142462	2.441942	-5.118145
0.920	1.193611	-5.173354	721.772714	-34.929523	-17.983348	-0.189129	2.491553	-4.839408
0.930	1.701227	-3.762206	722.162792	-32.916550	-18.372244	-0.248203	2.544059	-4.558051
0.940	2.177201	-2.535293	722.030971	-30.927146	-18.782701	-0.309787	2.601371	-4.283354
0.950	2.583000	-1.487345	721.083261	-29.004803	-19.216932	-0.362838	2.665009	-4.022393
0.960	2.890409	-0.575045	719.157105	-27.175802	-19.672487	-0.398696	2.735492	-3.778841
0.970	3.085680	0.265094	716.295813	-25.446899	-20.142390	-0.413954	2.812021	-3.552568
0.980	3.170391	1.095732	712.774803	-23.808260	-20.617122	-0.411521	2.892516	-3.340222
0.990	3.159728	1.962162	709.062470	-22.240697	-21.087542	-0.399239	2.974003	-3.136634
1.000	3.080182	2.884345	705.723800	-20.724473	-21.547623	-0.386536	3.053266	-2.936627
1.010	2.968154	3.857699	703.296375	-19.246314	-21.996055	-0.380553	3.127566	-2.736587
1.020	2.868733	4.860410	702.174432	-17.802195	-22.436144	-0.383511	3.195238	-2.535295
1.030	2.831956	5.864145	702.528703	-16.395384	-22.873847	-0.392428	3.255931	-2.333767
1.040	2.904515	6.845019	704.277197	-15.031273	-23.314441	-0.400967	3.310407	-2.134284
1.050	3.118004	7.791734	707.110641	-13.711809	-23.758852	-0.402166	3.359991	-1.939132
1.060	3.477955	8.708269	710.565310	-12.432350	-24.200936	-0.390667	3.405871	-1.749642
1.070	3.958503	9.609821	714.125030	-11.182607	-24.626801	-0.363736	3.448528	-1.565917
1.080	4.505077	10.513065	717.327020	-9.951437	-25.016572	-0.321244	3.487471	-1.387294
1.090	5.044103	11.424367	719.846296	-8.733419	-25.348194	-0.265170	3.521334	-1.213234
1.100	5.496528	12.330898	721.540064	-7.534269	-25.602320	-0.199079	3.548288	-1.044193
1.110	5.791963	13.198802	722.444458	-6.372667	-25.767255	-0.127677	3.566676	-0.882098
1.120	5.881544	13.979748	722.729112	-5.277682	-25.843088	-0.056340	3.575764	-0.730243
1.130	5.748564	14.623704	722.627356	-4.282829	-25.844047	0.009460	3.576400	-0.592675
1.140	5.415461	15.093303	722.365979	-3.418875	-25.798212	0.064820	3.571349	-0.473288
1.150	4.944330	15.374548	722.114914	-2.707652	-25.744204	0.106079	3.565112	-0.374961
1.160	4.428182	15.480026	721.966235	-2.158349	-25.725459	0.131354	3.563250	-0.298954
1.170	3.973130	15.443836	721.939895	-1.766761	-25.783565	0.140781	3.571428	-0.244724
1.180	3.676103	15.310849	722.006064	-1.517174	-25.952447	0.136333	3.594492	-0.210133
1.190	3.605057	15.124926	722.112258	-1.386023	-26.254673	0.121217	3.635816	-0.191940
1.200	3.787234	14.920588	722.206330	-1.346252	-26.700196	0.099020	3.697032	-0.186408
1.210	4.207606	14.720816	722.251165	-1.371270	-27.287072	0.072953	3.778059	-0.189860
1.220	4.816746	14.541063	722.231141	-1.437737	-28.003557	0.045475	3.877368	-0.199069
1.230	5.545832	14.396648	722.152630	-1.526944	-28.831275	0.018436	3.992407	-0.211443
1.240	6.325310	14.308502	722.040858	-1.625158	-29.749032	-0.006359	4.120131	-0.225078
1.250	7.102457	14.302425	721.934161	-1.723616	-30.736431	-0.026475	4.257512	-0.238750
1.260	7.852646	14.400455	721.875278	-1.818658	-31.776195	-0.038474	4.401895	-0.251935
1.270	8.580825	14.607958	721.898899	-1.912010	-32.854590	-0.038167	4.551134	-0.264858
1.280	9.313396	14.903456	722.015754	-2.010803	-33.960233	-0.021466	4.703531	-0.278498
1.290	10.084399	15.237375	722.196091	-2.126949	-35.082270	0.014493	4.857721	-0.294511
1.300	10.921498	15.541317	722.358282	-2.275809	-36.208894	0.070416	5.012595	-0.315053
1.310	11.836245	15.744141	722.369765	-2.474564	-37.326614	0.144452	5.167245	-0.342562
1.320	12.820465	15.788368	722.065513	-2.740829	-38.420048	0.232389	5.320853	-0.379582
1.330	13.848213	15.641143	721.283130	-3.091751	-39.471947	0.328280	5.472462	-0.428646
1.340	14.881401	15.296881	719.905284	-3.543437	-40.463444	0.425301	5.620662	-0.492209
1.350	15.876974	14.772042	717.894149	-4.110419	-41.374842	0.516660	5.763363	-0.572566
1.360	16.793814	14.095171	715.304189	-4.805113	-42.187063	0.596415	5.897779	-0.671758
1.370	17.598066	13.296593	712.269908	-5.637361	-42.883456	0.660078	6.020675	-0.791464
1.380	18.266060	12.401521	708.977724	-6.614230	-43.451272	0.704975	6.128722	-0.932925
1.390	18.784274	11.427947	705.636579	-7.740170	-43.882127	0.730439	6.218800	-1.096906
1.400	19.146325	10.388041	702.457642	-9.017556	-44.171254	0.737835	6.288102	-1.283715
1.410	19.347983	9.290119	699.645394	-10.447315	-44.316107	0.730287	6.334081	-1.493230
1.420	19.382442	8.138845	697.396984	-12.028978	-44.315508	0.711863	6.354416	-1.724839
1.430	19.238800	6.933662	695.903835	-13.759350	-44.170548	0.686250	6.347220	-1.977191
1.440	18.906063	5.667925	695.346750	-15.629653	-43.887606	0.655227	6.311614	-2.247749
1.450	18.382811	4.331527	695.874814	-17.622088	-43.482457	0.617589	6.248603	-2.532365
1.460	17.689375	2.917544	697.564099	-19.707749	-42.983440	0.569165	6.161934	-2.825224
1.470	16.876656	1.430364	700.365024	-21.847655	-42.431544	0.504326	6.058490	-3.119467
1.480	16.025193	-0.108646	704.061038	-23.997309	-41.876160	0.418719	5.947802	-3.408413
1.490	15.230649	-1.660805	708.266840	-26.113286	-41.366710	0.312181	5.840554	-3.686928
1.500	14.577506	-3.175480	712.484533	-28.159274	-40.942197	0.190449	5.746398	-3.952265
1.510	14.109696	-4.599468	716.210837	-30.109361	-40.622226	0.064704	5.671825	-4.203980
1.520	13.811565	-5.888126	719.059373	-31.947849	-40.403296	-0.050975	5.618910	-4.443006
1.530	13.610578	-7.015852	720.848775	-33.666445	-40.262459	-0.143257	5.585424	-4.670389
1.540	13.403793	-7.982897	721.622413	-35.260531	-40.167415	-0.202921	5.566265	-4.886285
1.550	13.098296	-8.815165	721.600041	-36.726104	-40.089273	-0.226850	5.555608	-5.089537
1.560	12.648731	-9.555412	721.091825	-38.058265	-40.013131	-0.218118	5.548965	-5.277867
1.570	12.076977	-10.247984	720.413312	-39.251338	-39.942792	-0.184358	5.544427	-5.448447
1.580	11.467786	-10.922915	719.826738	-40.300171	-39.898491	-0.135068	5.542791	-5.598593
1.590	10.944188	-11.586067	719.512765	-41.201836	-39.909100	-0.078875	5.546684	-5.726352
1.600	10.632722	-12.219575	719.560852	-41.956954	-40.001842	-0.021637	5.559202	-5.830911
1.610	10.629810	-12.792001	719.962577	-42.570192	-40.192740	0.034164	5.582615	-5.912834
1.620	10.978031	-13.273106	720.600111	-43.050062	-40.480235	0.088826	5.617573	-5.974196
1.630	11.656856	-13.646290	721.235839	-43.408291	-40.843163	0.144075	5.662941	-6.018599
1.640	12.588272	-13.913496	721.520419	-43.658859	-41.243298	0.201472	5.716165	-6.050953
1.650	13.654629	-14.091513	721.037809	-43.816556	-41.631740	0.261052	5.773864	-6.076874
1.660	14.724092	-14.202673	719.393044	-43.895151	-41.957651	0.320576	5.832368	-6.101692
1.670	15.677691	-14.264858	716.325227	-43.905583	-42.177067	0.375720	5.887977	-6.129281
1.680	16.431188	-14.284837	711.806260	-43.854887	-42.259378	0.421254	5.936921	-6.161071
1.690	16.945766	-14.256689	706.081545	-43.746401	-42.189752	0.452841	5.975195	-6.195658
1.700	17.225020	-14.164801	699.630817	-43.581321	-41.967150	0.468764	5.998471	-6.229188
1.710	17.300610	-13.989704	693.064592	-43.360960	-41.599070	0.470868	6.002192	-6.256410
1.720	17.212508	-13.714692	687.000410	-43.088588	-41.095095	0.464335	5.981815	-6.271989
1.730	16.990494	-13.331582	681.965674	-42.769735	-40.461452	0.456313	5.933063	-6.271538
1.740	16.642270	-12.844578	678.352248	-42.410445	-39.698195	0.453854	5.852151	-6.251980
1.750	16.151593	-12.271556	676.417705	-42.013961	-38.799554	0.461861	5.736035	-6.211245
1.760	15.487087	-11.642291	676.306497	-41.577252	-37.756768	0.481703	5.582789	-6.147694
1.770	14.618684	-10.993261	678.061003	-41.088980	-36.561978	0.510894	5.392137	-6.059776
1.780	13.534948	-10.359020	681.606786	-40.530107	-35.211855	0.543816	5.166007	-5.946259
1.790	12.253644	-9.760656	686.718868	-39.877495	-33.710340	0.573151	4.908900	-5.806961
1.800	10.821023	-9.193402	692.994149	-39.109908	-32.070705	0.591620	4.627846	-5.643613
1.810	9.301093	-8.617856	699.860267	-38.214868	-30.317184	0.593709	4.331891	-5.460357
1.820	7.760903	-7.960915	706.640317	-37.194324	-28.486000	0.577084	4.031188	-5.263544
1.830	6.258670	-7.131027	712.668503	-36.067318	-26.624880	0.543321	3.735942	-5.060883
1.840	4.838034	-6.046906	717.424264	-34.868617	-24.790006	0.497482	3.455418	-4.860251
1.850	3.527081	-4.671678	720.637240	-33.643401	-23.040015	0.446306	3.197172	-4.668563
1.860	2.338942	-3.039332	722.324132	-32.439310	-21.427970	0.395448	2.966531	-4.490963
1.870	1.273036	-1.260878	722.748460	-31.298101	-19.993538	0.346974	2.766320	-4.330428
1.880	0.319526	0.495464	722.327457	-30.249300	-18.758054	0.298516	2.596891	-4.187754
1.890	-0.530403	2.045081	721.526341	-29.307429	-17.724190	0.244724	2.456485	-4.061865
1.900	-1.270564	3.234635	720.771657	-28.473131	-16.879947	0.180364	2.341927	-3.950368
1.910	-1.869649	3.979537	720.392806	-27.737357	-16.204742	0.103455	2.249431	-3.850310
1.920	-2.273086	4.278746	720.581663	-27.086971	-15.674740	0.016884	2.175290	-3.759043
1.930	-2.419143	4.203913	721.355629	-26.509824	-15.265641	-0.072267	2.116243	-3.675001
1.940	-2.263638	3.869529	722.520892	-25.997811	-14.952837	-0.155339	2.069537	-3.598209
1.950	-1.803069	3.396926	723.652103	-25.547421	-14.710218	-0.225476	2.032775	-3.530346
1.960	-1.087025	2.885324	724.119447	-25.158328	-14.509021	-0.280298	2.003678	-3.474334
1.970	-0.215822	2.398265	723.191632	-24.831195	-14.317541	-0.322762	1.979771	-3.433557
1.980	0.675018	1.966215	720.217832	-24.565897	-14.101959	-0.359878	1.958013	-3.410898
1.990	1.438066	1.599563	714.849411	-24.360911	-13.828332	-0.399825	1.934440	-3.407838
2.000	1.938963	1.303228	707.224646	-24.213932	-13.465731	-0.448566	1.904025	-3.423796
2.010	2.078453	1.085341	698.034645	-24.123153	-12.990059	-0.507302	1.860948	-3.455868
2.020	1.808404	0.956867	688.428884	-24.088303	-12.387419	-0.571786	1.799375	-3.499026
2.030	1.139035	0.924459	679.784213	-24.110653	-11.655523	-0.633777	1.714592	-3.546810
2.040	0.134429	0.982482	673.411598	-24.191648	-10.802247	-0.684050	1.604108	-3.592401
2.050	-1.104551	1.110097	670.285781	-24.330605	-9.841744	-0.715722	1.468291	-3.629885
2.060	-2.466265	1.275718	670.860746	-24.522501	-8.789654	-0.726596	1.310205	-3.655379
2.070	-3.855251	1.446385	674.999825	-24.756990	-7.659185	-0.719788	1.134694	-3.667703
2.080	-5.211659	1.596842	682.020065	-25.019374	-6.459283	-0.702667	0.947081	-3.668422
2.090	-6.518142	1.713848	690.832982	-25.293391	-5.195277	-0.684733	0.752031	-3.661289
2.100	-7.793721	1.794565	700.155630	-25.564772	-3.871793	-0.675185	0.552990	-3.651299
2.110	-9.077383	1.841211	708.757868	-25.824009	-2.497144	-0.680780	0.352327	-3.643559
2.120	-10.405875	1.855663	715.697722	-26.067190	-1.087872	-0.704408	0.152002	-3.642207
2.130	-11.791429	1.836915	720.484698	-26.294779	0.328201	-0.744618	-0.045553	-3.649596
2.140	-13.205983	1.782247	723.120141	-26.509203	1.711794	-0.796211	-0.236723	-3.665947
2.150	-14.577806	1.690606	724.003516	-26.712462	3.015356	-0.851743	-0.416484	-3.689549
2.160	-15.803447	1.565492	723.746021	-26.904759	4.188903	-0.903548	-0.578781	-3.717431
2.170	-16.772683	1.415408	722.965935	-27.084729	5.186627	-0.945675	-0.717410	-3.746335
2.180	-17.398386	1.251934	722.135654	-27.251253	5.971869	-0.975152	-0.826973	-3.773703
2.190	-17.639531	1.086855	721.517243	-27.406297	6.518615	-0.992134	-0.903459	-3.798426
2.200	-17.507037	0.929580	721.183461	-27.557736	6.809334	-0.998841	-0.944189	-3.821183
2.210	-17.049598	0.785109	721.092319	-27.720964	6.830744	-0.997653	-0.947277	-3.844302
2.220	-16.326641	0.652232	721.172271	-27.918317	6.570229	-0.989071	-0.911048	-3.871241
2.230	-15.381663	0.521753	721.380850	-28.176052	6.015371	-0.970444	-0.833869	-3.905850
2.240	-14.228337	0.374894	721.716116	-28.519352	5.157986	-0.936080	-0.714684	-3.951602
2.250	-12.855747	0.182334	722.181401	-28.966487	4.002225	-0.879001	-0.554186	-4.010971
2.260	-11.251588	-0.095146	722.723212	-29.523664	2.574384	-0.794019	-0.356206	-4.085058
2.270	-9.434502	-0.502673	723.175049	-30.182246	0.930236	-0.681199	-0.128632	-4.173574
2.280	-7.480384	-1.081995	723.242008	-30.919774	-0.844916	-0.548184	0.116823	-4.275163
2.290	-5.526075	-1.856790	722.549807	-31.705194	-2.646642	-0.409850	0.366292	-4.387960
