Time[s]	Fx[N]	Fy[N]	Fz[N]	Mx[Nm]	My[Nm]	Mz[Nm]	COPx[cm]	COPy[cm]
0.010	1.408959	-0.453565	618.620881	-1.171771	-10.703503	0.222015	1.730220	-0.189417
0.020	1.432455	-0.482183	618.673024	-1.222879	-10.667556	0.226017	1.724264	-0.197662
0.030	1.454797	-0.511579	618.730255	-1.278085	-10.631137	0.226583	1.718218	-0.206566
0.040	1.473545	-0.544266	618.792090	-1.340099	-10.593886	0.221505	1.712027	-0.216567
0.050	1.484535	-0.583809	618.850372	-1.409326	-10.555407	0.210441	1.705648	-0.227733
0.060	1.482542	-0.632899	618.892005	-1.483741	-10.515118	0.194857	1.699023	-0.239742
0.070	1.463078	-0.691413	618.904846	-1.559549	-10.472210	0.177373	1.692055	-0.251985
0.080	1.424641	-0.756042	618.882894	-1.632269	-10.425790	0.160838	1.684614	-0.263744
0.090	1.370204	-0.821614	618.828268	-1.697881	-10.375175	0.147483	1.676584	-0.274370
0.100	1.306893	-0.882942	618.750206	-1.753793	-10.320132	0.138434	1.667900	-0.283441
0.110	1.243776	-0.935965	618.662836	-1.799516	-10.260949	0.133671	1.658569	-0.290872
0.120	1.188857	-0.977985	618.583157	-1.836975	-10.198356	0.132313	1.648664	-0.296965
0.130	1.146810	-1.007710	618.529815	-1.870221	-10.133444	0.132993	1.638311	-0.302366
0.140	1.118400	-1.025668	618.521902	-1.904512	-10.067715	0.134157	1.627706	-0.307913
0.150	1.101399	-1.034862	618.575977	-1.944996	-10.003142	0.134319	1.617124	-0.314431
0.160	1.092023	-1.041036	618.700410	-1.995492	-9.942085	0.132419	1.606930	-0.322530
0.170	1.086020	-1.052053	618.888975	-2.057704	-9.887011	0.128270	1.597542	-0.332484
0.180	1.079232	-1.076288	619.117670	-2.130973	-9.840144	0.122872	1.589382	-0.344195
0.190	1.068095	-1.120292	619.347809	-2.212519	-9.803206	0.118278	1.582827	-0.357234
0.200	1.050466	-1.186421	619.535124	-2.298127	-9.777331	0.116922	1.578172	-0.370944
0.210	1.026551	-1.271464	619.641422	-2.383164	-9.763078	0.120707	1.575601	-0.384604
0.220	0.999101	-1.367077	619.644248	-2.463718	-9.760389	0.130288	1.575160	-0.397602
0.230	0.972245	-1.462067	619.541236	-2.537624	-9.768375	0.144882	1.576711	-0.409597
0.240	0.949235	-1.545659	619.348496	-2.605039	-9.785073	0.162616	1.579898	-0.420610
0.250	0.930462	-1.610534	619.095217	-2.668271	-9.807369	0.181180	1.584145	-0.430995
0.260	0.913164	-1.654603	618.817919	-2.730708	-9.831252	0.198437	1.588715	-0.441278
0.270	0.893146	-1.681022	618.556127	-2.795213	-9.852367	0.212774	1.592801	-0.451893
0.280	0.867327	-1.696611	618.348086	-2.862758	-9.866755	0.223207	1.595664	-0.462969
0.290	0.835418	-1.709477	618.224198	-2.932056	-9.871590	0.229412	1.596765	-0.474271
0.300	0.799815	-1.726912	618.198692	-3.000275	-9.865778	0.231804	1.595891	-0.485325
0.310	0.764120	-1.754241	618.263927	-3.064229	-9.850291	0.231552	1.593218	-0.495618
0.320	0.731479	-1.794573	618.392111	-3.121242	-9.828156	0.230366	1.589308	-0.504735
0.330	0.703833	-1.848880	618.545122	-3.169417	-9.804001	0.229989	1.585010	-0.512399
0.340	0.682336	-1.915884	618.687720	-3.207565	-9.783048	0.231547	1.581258	-0.518447
0.350	0.668193	-1.991787	618.797440	-3.235181	-9.769687	0.235041	1.578818	-0.522817
0.360	0.662803	-2.070370	618.867227	-3.252458	-9.766117	0.239234	1.578063	-0.525550
0.370	0.666690	-2.143917	618.901720	-3.260121	-9.771677	0.242030	1.578874	-0.526759
0.380	0.677970	-2.204829	618.911239	-3.259039	-9.783271	0.241236	1.580723	-0.526576
0.390	0.691669	-2.247161	618.907270	-3.249814	-9.796694	0.235454	1.582902	-0.525089
0.400	0.700766	-2.267461	618.900719	-3.232584	-9.808188	0.224744	1.584776	-0.522311
0.410	0.698616	-2.264836	618.901875	-3.207050	-9.815567	0.210774	1.585965	-0.518184
0.420	0.681560	-2.240572	618.920640	-3.172591	-9.818666	0.196334	1.586418	-0.512601
0.430	0.650491	-2.197571	618.966291	-3.128357	-9.819319	0.184421	1.586406	-0.505416
0.440	0.610927	-2.139749	619.046319	-3.073440	-9.821095	0.177228	1.586488	-0.496480
0.450	0.571941	-2.071519	619.163494	-3.007234	-9.828698	0.175447	1.587416	-0.485693
0.460	0.544421	-1.997496	619.311028	-2.929958	-9.846910	0.178146	1.589978	-0.473100
0.470	0.538768	-1.922372	619.467810	-2.843041	-9.879236	0.183223	1.594794	-0.458949
0.480	0.562137	-1.850701	619.597471	-2.749119	-9.926743	0.188225	1.602128	-0.443694
0.490	0.615960	-1.786318	619.654438	-2.651712	-9.987662	0.191170	1.611812	-0.427934
0.500	0.694918	-1.731427	619.597050	-2.554738	-10.057945	0.191073	1.623304	-0.412323
0.510	0.788007	-1.685807	619.404040	-2.461933	-10.132617	0.188054	1.635866	-0.397468
0.520	0.881347	-1.646676	619.087728	-2.376185	-10.207430	0.183077	1.648786	-0.383820
0.530	0.961642	-1.609404	618.696614	-2.298883	-10.280170	0.177465	1.661585	-0.371569
0.540	1.019234	-1.568845	618.303909	-2.229498	-10.351085	0.172371	1.674110	-0.360583
0.550	1.050083	-1.520771	617.986243	-2.165532	-10.422268	0.168369	1.686489	-0.350417
0.560	1.056458	-1.462992	617.802556	-2.102956	-10.496396	0.165302	1.698989	-0.340393
0.570	1.046258	-1.395922	617.781982	-2.037190	-10.575609	0.162413	1.711868	-0.329759
0.580	1.031023	-1.322520	617.922870	-1.964496	-10.661153	0.158693	1.725321	-0.317919
0.590	1.023013	-1.247568	618.198946	-1.883318	-10.753802	0.153336	1.739537	-0.304646
0.600	1.032153	-1.176312	618.567011	-1.794828	-10.854410	0.146147	1.754767	-0.290159
0.610	1.063803	-1.112856	618.973339	-1.702281	-10.963944	0.137720	1.771311	-0.275017
0.620	1.118189	-1.058921	619.359661	-1.609384	-11.082916	0.129250	1.789415	-0.259846
0.630	1.191846	-1.013413	619.670850	-1.518566	-11.210675	0.122052	1.809134	-0.245060
0.640	1.280465	-0.972834	619.864348	-1.430185	-11.345109	0.117015	1.830257	-0.230725
0.650	1.381495	-0.932314	619.918343	-1.343128	-11.483027	0.114302	1.852345	-0.216662
0.660	1.494674	-0.887033	619.835101	-1.256303	-11.621003	0.113431	1.874854	-0.202683
0.670	1.620079	-0.833726	619.638220	-1.169937	-11.756225	0.113665	1.897272	-0.188810
0.680	1.755162	-0.771865	619.365635	-1.085920	-11.886930	0.114516	1.919211	-0.175328
0.690	1.892927	-0.704054	619.061146	-1.007095	-12.012361	0.116141	1.940416	-0.162681
0.700	2.022527	-0.635400	618.766352	-0.935970	-12.132481	0.119390	1.960753	-0.151264
0.710	2.131967	-0.572021	618.514224	-0.873503	-12.247745	0.125425	1.980188	-0.141226
0.720	2.211657	-0.519178	618.325597	-0.818598	-12.359097	0.135033	1.998801	-0.132389
0.730	2.257378	-0.479555	618.209417	-0.768715	-12.468186	0.148051	2.016822	-0.124345
0.740	2.271699	-0.452218	618.165858	-0.721315	-12.577602	0.163269	2.034665	-0.116686
0.750	2.263545	-0.432739	618.189789	-0.675309	-12.690859	0.178883	2.052907	-0.109240
0.760	2.246362	-0.414652	618.272244	-0.631627	-12.811921	0.193188	2.072214	-0.102160
0.770	2.235587	-0.391706	618.399768	-0.592706	-12.944281	0.205107	2.093190	-0.095845
0.780	2.245893	-0.359936	618.553680	-0.561349	-13.089802	0.214362	2.116195	-0.090752
0.790	2.288353	-0.318874	618.711442	-0.539566	-13.247724	0.221308	2.141180	-0.087208
0.800	2.367870	-0.271786	618.850434	-0.527796	-13.414307	0.226658	2.167617	-0.085286
0.810	2.481806	-0.225077	618.952605	-0.524650	-13.583374	0.231266	2.194574	-0.084764
0.820	2.620723	-0.186707	619.007971	-0.527252	-13.747676	0.236048	2.220921	-0.085177
0.830	2.771295	-0.163507	619.015897	-0.532082	-13.900608	0.241960	2.245598	-0.085956
0.840	2.920247	-0.157973	618.984437	-0.536016	-14.037729	0.249889	2.267865	-0.086596
0.850	3.057582	-0.166092	618.928637	-0.536984	-14.157636	0.260373	2.287442	-0.086760
0.860	3.177926	-0.177796	618.868179	-0.533856	-14.261882	0.273288	2.304511	-0.086263
0.870	3.279860	-0.180442	618.824074	-0.525709	-14.353977	0.287742	2.319557	-0.084953
0.880	3.364037	-0.163973	618.814343	-0.511176	-14.437885	0.302350	2.333153	-0.082606
0.890	3.431225	-0.125383	618.849524	-0.488552	-14.516665	0.315810	2.345750	-0.078945
0.900	3.481329	-0.070391	618.929337	-0.456729	-14.591760	0.327468	2.357581	-0.073793
0.910	3.513825	-0.011574	619.041675	-0.416346	-14.663056	0.337537	2.368670	-0.067257
0.920	3.529146	0.036264	619.164664	-0.370321	-14.729500	0.346870	2.378931	-0.059810
0.930	3.529917	0.061625	619.271738	-0.323321	-14.789900	0.356388	2.388273	-0.052210
0.940	3.520989	0.060621	619.338068	-0.280398	-14.843641	0.366496	2.396694	-0.045274
0.950	3.508013	0.038441	619.345557	-0.245544	-14.891130	0.376801	2.404333	-0.039646
0.960	3.495268	0.007472	619.284667	-0.220830	-14.933805	0.386279	2.411461	-0.035659
0.970	3.483974	-0.017212	619.154147	-0.206291	-14.973537	0.393719	2.418386	-0.033318
0.980	3.472039	-0.023357	618.961533	-0.200306	-15.011562	0.398166	2.425282	-0.032362
0.990	3.455320	-0.005979	618.725769	-0.200248	-15.047450	0.399139	2.432006	-0.032365
1.000	3.429669	0.030981	618.479688	-0.203333	-15.078742	0.396683	2.438033	-0.032876
1.010	3.392776	0.076395	618.267591	-0.207573	-15.101519	0.391313	2.442554	-0.033573
1.020	3.345205	0.116229	618.135219	-0.212501	-15.111665	0.383884	2.444718	-0.034378
1.030	3.290411	0.138439	618.115032	-0.219318	-15.106280	0.375384	2.443927	-0.035482
1.040	3.233812	0.136470	618.213964	-0.230339	-15.084806	0.366681	2.440062	-0.037259
1.050	3.181233	0.110249	618.409872	-0.247902	-15.049539	0.358369	2.433587	-0.040087
1.060	3.137264	0.064777	618.658023	-0.273188	-15.005243	0.350781	2.425450	-0.044158
1.070	3.104118	0.007281	618.904267	-0.305524	-14.957884	0.344125	2.416833	-0.049365
1.080	3.081286	-0.055717	619.099701	-0.342620	-14.912897	0.338576	2.408804	-0.055342
1.090	3.065874	-0.120063	619.212542	-0.381590	-14.873633	0.334184	2.402024	-0.061625
1.100	3.053283	-0.183805	619.234753	-0.420114	-14.840513	0.330669	2.396589	-0.067844
1.110	3.038055	-0.245817	619.182260	-0.457100	-14.811054	0.327301	2.392035	-0.073823
1.120	3.015061	-0.304570	619.088662	-0.492635	-14.780682	0.323083	2.387490	-0.079574
1.130	2.981019	-0.357946	618.993860	-0.527535	-14.744062	0.317208	2.381940	-0.085225
1.140	2.935767	-0.403903	618.930887	-0.562875	-14.696603	0.309535	2.374514	-0.090943
1.150	2.882498	-0.441017	618.915693	-0.599704	-14.635708	0.300724	2.364734	-0.096896
1.160	2.826641	-0.468329	618.944599	-0.638991	-14.561443	0.291953	2.352625	-0.103239
1.170	2.773669	-0.484896	619.000595	-0.681725	-14.476414	0.284375	2.338675	-0.110133
1.180	2.726707	-0.489992	619.063781	-0.728971	-14.384884	0.278669	2.323651	-0.117754
1.190	2.684920	-0.484288	619.118306	-0.781638	-14.291417	0.274824	2.308350	-0.126250
1.200	2.643391	-0.471154	619.151903	-0.839961	-14.199498	0.272178	2.293379	-0.135663
1.210	2.594532	-0.456883	619.151110	-0.903025	-14.110679	0.269614	2.279036	-0.145849
1.220	2.530512	-0.449329	619.098897	-0.968753	-14.024612	0.265868	2.265327	-0.156478
1.230	2.445894	-0.455557	618.979122	-1.034496	-13.939928	0.259913	2.252084	-0.167129
1.240	2.339625	-0.479706	618.786564	-1.097974	-13.855549	0.251363	2.239148	-0.177440
1.250	2.215556	-0.522012	618.536533	-1.158063	-13.771764	0.240718	2.226508	-0.187226
1.260	2.081152	-0.579098	618.267200	-1.215005	-13.690532	0.229314	2.214339	-0.196518
1.270	1.944856	-0.644985	618.031602	-1.270006	-13.614898	0.218928	2.202945	-0.205492
1.280	1.813443	-0.712261	617.882160	-1.324519	-13.547846	0.211142	2.192626	-0.214364
1.290	1.690799	-0.773348	617.854533	-1.379581	-13.491179	0.206757	2.183553	-0.223286
1.300	1.578579	-0.822011	617.957156	-1.435483	-13.444914	0.205515	2.175703	-0.232295
1.310	1.477984	-0.854989	618.169226	-1.491844	-13.407415	0.206257	2.168891	-0.241333
1.320	1.391300	-0.873170	618.446530	-1.547948	-13.376157	0.207477	2.162864	-0.250296
1.330	1.322159	-0.881606	618.733143	-1.603090	-13.348795	0.207989	2.157440	-0.259092
1.340	1.274298	-0.888193	618.976230	-1.656731	-13.324063	0.207450	2.152597	-0.267657
1.350	1.249434	-0.901563	619.139502	-1.708452	-13.302020	0.206472	2.148469	-0.275940
1.360	1.245491	-0.928916	619.210264	-1.757888	-13.283500	0.206313	2.145233	-0.283892
1.370	1.256317	-0.974259	619.197761	-1.804839	-13.269125	0.208280	2.142954	-0.291480
1.380	1.273251	-1.037235	619.125209	-1.849549	-13.258563	0.213139	2.141499	-0.298736
1.390	1.287876	-1.112884	619.020287	-1.892982	-13.250568	0.220751	2.140571	-0.305803
1.400	1.294724	-1.192619	618.907931	-1.936887	-13.243720	0.230100	2.139853	-0.312952
1.410	1.292886	-1.266334	618.807078	-1.983600	-13.237326	0.239667	2.139168	-0.320552
1.420	1.286014	-1.325029	618.730760	-2.035653	-13.231872	0.247957	2.138551	-0.329005
1.430	1.280719	-1.363224	618.687182	-2.095267	-13.228823	0.253922	2.138209	-0.338663
1.440	1.283864	-1.380529	618.679524	-2.163832	-13.229975	0.257111	2.138421	-0.349750
1.450	1.299666	-1.382025	618.704749	-2.241464	-13.236772	0.257625	2.139433	-0.362283
1.460	1.327626	-1.377317	618.754065	-2.326853	-13.249952	0.255999	2.141392	-0.376055
1.470	1.362137	-1.378352	618.816746	-2.417551	-13.269632	0.253090	2.144356	-0.390673
1.480	1.394194	-1.396456	618.885478	-2.510562	-13.295683	0.249969	2.148327	-0.405659
1.490	1.414827	-1.439458	618.959168	-2.602939	-13.328053	0.247760	2.153301	-0.420535
1.500	1.418934	-1.509833	619.040452	-2.692168	-13.366707	0.247428	2.159262	-0.434894
1.510	1.407662	-1.604313	619.128862	-2.776430	-13.411136	0.249523	2.166130	-0.448441
1.520	1.388121	-1.714824	619.214187	-2.854877	-13.459738	0.253957	2.173680	-0.461048
1.530	1.370485	-1.830409	619.275475	-2.927876	-13.509559	0.259955	2.181510	-0.472791
1.540	1.363706	-1.939872	619.287928	-2.996945	-13.556737	0.266284	2.189085	-0.483934
1.550	1.371759	-2.034643	619.234630	-3.064250	-13.597602	0.271696	2.195872	-0.494845
1.560	1.392225	-2.110817	619.116792	-3.131781	-13.629967	0.275385	2.201518	-0.505846
1.570	1.417944	-2.169278	618.957165	-3.200549	-13.653937	0.277234	2.205958	-0.517087
1.580	1.440827	-2.213742	618.795040	-3.270143	-13.671775	0.277751	2.209419	-0.528470
1.590	1.455707	-2.247970	618.674993	-3.338758	-13.686831	0.277751	2.212281	-0.539663
1.600	1.462324	-2.273930	618.633521	-3.403600	-13.702066	0.277934	2.214892	-0.550180
1.610	1.464835	-2.291920	618.687884	-3.461449	-13.718872	0.278529	2.217414	-0.559482
1.620	1.469461	-2.302273	618.830666	-3.509185	-13.736738	0.279162	2.219789	-0.567067
1.630	1.481352	-2.307234	619.032278	-3.544231	-13.753881	0.279024	2.221836	-0.572544
1.640	1.501794	-2.311460	619.251259	-3.564892	-13.768513	0.277290	2.223413	-0.575678
1.650	1.526872	-2.320399	619.448598	-3.570544	-13.780169	0.273559	2.224586	-0.576407
1.660	1.548495	-2.337229	619.599626	-3.561648	-13.790562	0.268093	2.225722	-0.574831
1.670	1.557865	-2.360225	619.698155	-3.539565	-13.803687	0.261737	2.227486	-0.571176
1.680	1.550170	-2.382391	619.752054	-3.506130	-13.825244	0.255578	2.230770	-0.565731
1.690	1.528306	-2.393801	619.773776	-3.463105	-13.861572	0.250500	2.236554	-0.558769
1.700	1.503604	-2.385363	619.771001	-3.411741	-13.918307	0.246859	2.245718	-0.550484
1.710	1.492832	-2.351884	619.741807	-3.352708	-13.998945	0.244430	2.258835	-0.540985
1.720	1.512496	-2.293008	619.676714	-3.286304	-14.103617	0.242670	2.275964	-0.530326
1.730	1.572605	-2.212065	619.566690	-3.212697	-14.228554	0.241162	2.296533	-0.518539
1.740	1.672351	-2.114061	619.412837	-3.132006	-14.366641	0.240002	2.319397	-0.505641
1.750	1.799536	-2.004099	619.232151	-3.044215	-14.509142	0.239900	2.343086	-0.491611
1.760	1.934320	-1.886772	619.055712	-2.949120	-14.648066	0.241938	2.366195	-0.476390
1.770	2.056180	-1.766229	618.919639	-2.846476	-14.778336	0.247044	2.387763	-0.459910
1.780	2.151433	-1.646309	618.852818	-2.736343	-14.898948	0.255415	2.407511	-0.442164
1.790	2.218167	-1.530191	618.866864	-2.619377	-15.012676	0.266227	2.425833	-0.423254
1.800	2.266417	-1.419617	618.952714	-2.496934	-15.124479	0.277845	2.443560	-0.403413
1.810	2.313672	-1.314257	619.084983	-2.371050	-15.239288	0.288463	2.461583	-0.382993
1.820	2.377956	-1.212000	619.231247	-2.244410	-15.360140	0.296757	2.480518	-0.362451
1.830	2.471560	-1.110325	619.361431	-2.120192	-15.487357	0.302161	2.500536	-0.342319
1.840	2.597684	-1.008212	619.453817	-2.001575	-15.618824	0.304685	2.521386	-0.323119
1.850	2.750602	-0.907690	619.497209	-1.890932	-15.750864	0.304482	2.542524	-0.305237
1.860	2.918572	-0.814226	619.490496	-1.789138	-15.879121	0.301566	2.563255	-0.288808
1.870	3.087982	-0.735540	619.440399	-1.695442	-15.999165	0.295875	2.582842	-0.273705
1.880	3.247099	-0.679193	619.357647	-1.608109	-16.106920	0.287648	2.600585	-0.259641
1.890	3.388146	-0.650011	619.252664	-1.525568	-16.199104	0.277748	2.615912	-0.246356
1.900	3.507210	-0.648536	619.133052	-1.447542	-16.273711	0.267627	2.628467	-0.233801
1.910	3.602499	-0.671037	619.004334	-1.375672	-16.330294	0.258905	2.638155	-0.222239
1.920	3.672209	-0.710783	618.872559	-1.313355	-16.369835	0.252769	2.645106	-0.212217
1.930	3.713374	-0.759725	618.745440	-1.264740	-16.394223	0.249518	2.649591	-0.204404
1.940	3.722345	-0.809729	618.629967	-1.233188	-16.405641	0.248417	2.651931	-0.199342
1.950	3.696505	-0.853142	618.528362	-1.219821	-16.406161	0.247914	2.652451	-0.197213
1.960	3.636063	-0.883113	618.436538	-1.222798	-16.397634	0.246172	2.651466	-0.197724
1.970	3.544980	-0.894323	618.347456	-1.237585	-16.381740	0.241764	2.649278	-0.200144
1.980	3.430697	-0.884234	618.257591	-1.257988	-16.359935	0.234307	2.646136	-0.203473
1.990	3.302819	-0.854326	618.172092	-1.277523	-16.333199	0.224766	2.642177	-0.206661
2.000	3.171089	-0.810554	618.105035	-1.290771	-16.301777	0.215238	2.637380	-0.208827
2.010	3.043226	-0.762479	618.074319	-1.294463	-16.265251	0.208289	2.631601	-0.209435
2.020	2.923480	-0.721012	618.093978	-1.288066	-16.223112	0.206078	2.624700	-0.208393
2.030	2.812739	-0.695249	618.167980	-1.273612	-16.175600	0.209655	2.616700	-0.206030
2.040	2.710233	-0.689544	618.288360	-1.254771	-16.124267	0.218704	2.607888	-0.202943
2.050	2.615865	-0.702234	618.437955	-1.235470	-16.071896	0.231779	2.598789	-0.199773
2.060	2.531779	-0.726744	618.595706	-1.218613	-16.021842	0.246844	2.590034	-0.196997
2.070	2.462379	-0.754540	618.741931	-1.205314	-15.977235	0.261852	2.582213	-0.194801
2.080	2.412922	-0.778501	618.862001	-1.194855	-15.940469	0.275143	2.575771	-0.193073
2.090	2.387481	-0.795163	618.948480	-1.185275	-15.913037	0.285620	2.570979	-0.191498
2.100	2.387248	-0.804935	619.002139	-1.174393	-15.895513	0.292716	2.567925	-0.189724
2.110	2.409877	-0.810223	619.031065	-1.160822	-15.887569	0.296293	2.566522	-0.187522
2.120	2.450044	-0.812581	619.046717	-1.144510	-15.888188	0.296571	2.566557	-0.184883
2.130	2.500916	-0.810767	619.057844	-1.126543	-15.896159	0.294118	2.567799	-0.181977
2.140	2.555890	-0.801112	619.065732	-1.108375	-15.910662	0.289856	2.570109	-0.179040
2.150	2.609883	-0.780003	619.064020	-1.090895	-15.931553	0.284995	2.573490	-0.176217
2.160	2.659755	-0.746682	619.042909	-1.073772	-15.959154	0.280862	2.578037	-0.173457
2.170	2.704018	-0.704395	618.994377	-1.055290	-15.993610	0.278565	2.583805	-0.170485
2.180	2.742487	-0.659127	618.915334	-1.032711	-16.034122	0.278570	2.590681	-0.166858
2.190	2.776255	-0.616900	618.808595	-1.003075	-16.078509	0.280401	2.598301	-0.162098
2.200	2.807767	-0.581355	618.683450	-0.964317	-16.123495	0.282750	2.606098	-0.155866
2.210	2.840458	-0.552713	618.556676	-0.916338	-16.165720	0.284064	2.613458	-0.148141
2.220	2.877650	-0.528139	618.452764	-0.861593	-16.202936	0.283323	2.619915	-0.139314
2.230	2.920982	-0.503056	618.400985	-0.804777	-16.234631	0.280585	2.625260	-0.130138
2.240	2.969142	-0.473025	618.427674	-0.751615	-16.261711	0.277008	2.629525	-0.121536
2.250	3.017709	-0.435751	618.544998	-0.707230	-16.285464	0.274342	2.632866	-0.114338
2.260	3.060397	-0.392437	618.741579	-0.674800	-16.306472	0.274165	2.635425	-0.109060
2.270	3.091203	-0.347685	618.981740	-0.654988	-16.324075	0.277197	2.637247	-0.105817
2.280	3.106527	-0.307750	619.215953	-0.646214	-16.336598	0.282985	2.638272	-0.104360
2.290	3.106460	-0.277933	619.397851	-0.645491	-16.342126	0.290032	2.638389	-0.104213
2.300	3.094845	-0.260517	619.499017	-0.649419	-16.339366	0.296279	2.637513	-0.104830
2.310	3.078051	-0.254222	619.514612	-0.654982	-16.328123	0.299733	2.635632	-0.105725
2.320	3.062713	-0.255273	619.458685	-0.660021	-16.309181	0.299037	2.632812	-0.106548
2.330	3.053217	-0.259428	619.353514	-0.663498	-16.283709	0.293869	2.629146	-0.107128
2.340	3.050087	-0.263968	619.219901	-0.665674	-16.252599	0.285071	2.624689	-0.107502
2.350	3.050102	-0.268684	619.073470	-0.668156	-16.216115	0.274431	2.619417	-0.107928
