Time[s]	Fx[N]	Fy[N]	Fz[N]	Mx[Nm]	My[Nm]	Mz[Nm]	COPx[cm]	COPy[cm]
0.010	4.488049	-1.478791	590.356691	8.810548	-13.091730	-0.372826	2.217597	1.492411
0.020	4.509470	-1.624540	590.254794	8.853157	-13.175120	-0.358871	2.232107	1.499887
0.030	4.553923	-1.763129	590.251500	8.891547	-13.251669	-0.348858	2.245089	1.506400
0.040	4.634594	-1.887671	590.415724	8.923792	-13.313788	-0.345676	2.254985	1.511442
0.050	4.751450	-1.993187	590.781995	8.951526	-13.353897	-0.350327	2.260376	1.515200
0.060	4.890716	-2.076732	591.347663	8.979873	-13.364711	-0.361886	2.260043	1.518544
0.070	5.028548	-2.136870	592.078327	9.015913	-13.339595	-0.378051	2.253012	1.522757
0.080	5.137279	-2.173013	592.918485	9.066334	-13.273101	-0.395993	2.238605	1.529103
0.090	5.192312	-2.185461	593.805017	9.135292	-13.161825	-0.413121	2.216523	1.538433
0.100	5.178137	-2.176643	594.680880	9.223311	-13.005431	-0.427592	2.186960	1.550968
0.110	5.092231	-2.153014	595.505196	9.327331	-12.807412	-0.438529	2.150680	1.566289
0.120	4.945676	-2.126081	596.256118	9.441533	-12.574988	-0.445958	2.108991	1.583469
0.130	4.759800	-2.110932	596.925132	9.558552	-12.317678	-0.450496	2.063521	1.601298
0.140	4.559111	-2.121921	597.504227	9.670979	-12.044539	-0.452898	2.015808	1.618562
0.150	4.361855	-2.167052	597.969948	9.773160	-11.760683	-0.453664	1.966768	1.634390
0.160	4.170550	-2.243572	598.271424	9.862941	-11.464428	-0.452899	1.916259	1.648573
0.170	3.966137	-2.336846	598.331538	9.942653	-11.146740	-0.450470	1.862971	1.661730
0.180	3.710020	-2.422989	598.067868	10.018734	-10.794073	-0.446340	1.804824	1.675183
0.190	3.356603	-2.474262	597.431584	10.100009	-10.394266	-0.440795	1.739825	1.690572
0.200	2.874455	-2.465462	596.451717	10.195274	-9.943540	-0.434371	1.667116	1.709321
0.210	2.268887	-2.379791	595.265516	10.310969	-9.451744	-0.427462	1.587820	1.732163
0.220	1.595531	-2.213127	594.116876	10.449651	-8.943419	-0.419866	1.505330	1.758854
0.230	0.955780	-1.975894	593.314432	10.609632	-8.453739	-0.410575	1.424833	1.788197
0.240	0.471243	-1.691844	593.156270	10.785732	-8.020392	-0.398051	1.352155	1.818363
0.250	0.243921	-1.393607	593.844074	10.970776	-7.674046	-0.380917	1.292266	1.847417
0.260	0.317322	-1.115866	595.417968	11.157278	-7.430670	-0.358741	1.247975	1.873856
0.270	0.656050	-0.887972	597.737840	11.338832	-7.288348	-0.332547	1.219322	1.896957
0.280	1.154463	-0.728126	600.518284	11.510885	-7.229509	-0.304761	1.203878	1.916825
0.290	1.671562	-0.640692	603.401864	11.670893	-7.227441	-0.278647	1.197782	1.934182
0.300	2.076976	-0.617096	606.041299	11.818057	-7.254492	-0.257496	1.197029	1.950042
0.310	2.289005	-0.639771	608.162060	11.952775	-7.289075	-0.243921	1.198542	1.965393
0.320	2.291602	-0.687855	609.590568	12.075841	-7.319512	-0.239464	1.200726	1.980976
0.330	2.127989	-0.742775	610.250371	12.187597	-7.344174	-0.244513	1.203469	1.997147
0.340	1.877739	-0.791848	610.140140	12.287511	-7.368680	-0.258394	1.207703	2.013883
0.350	1.627881	-0.828907	609.309206	12.374565	-7.401644	-0.279480	1.214760	2.030917
0.360	1.447465	-0.852351	607.840933	12.448363	-7.450573	-0.305347	1.225744	2.047964
0.370	1.371738	-0.862070	605.845986	12.510374	-7.519077	-0.333034	1.241087	2.064943
0.380	1.398491	-0.856916	603.460858	12.564524	-7.605973	-0.359507	1.260392	2.082078
0.390	1.495750	-0.833730	600.845246	12.616762	-7.706137	-0.382265	1.282549	2.099836
0.400	1.616998	-0.788014	598.174670	12.673854	-7.812500	-0.399876	1.306057	2.118755
0.410	1.718324	-0.715835	595.628687	12.742088	-7.918302	-0.412209	1.329402	2.139267
0.420	1.772078	-0.616211	593.376903	12.826449	-8.018853	-0.420245	1.351393	2.161602
0.430	1.773504	-0.492820	591.564712	12.930388	-8.112388	-0.425574	1.371344	2.185794
0.440	1.739501	-0.353886	590.299993	13.055868	-8.199897	-0.429802	1.389107	2.211734
0.450	1.700960	-0.210036	589.642397	13.203265	-8.284168	-0.434124	1.404948	2.239199
0.460	1.691751	-0.071098	589.597927	13.370968	-8.368525	-0.439148	1.419361	2.267811
0.470	1.737989	0.056679	590.121424	13.555063	-8.455802	-0.444935	1.432892	2.296996
0.480	1.850717	0.171737	591.127046	13.749725	-8.547826	-0.451148	1.446022	2.326019
0.490	2.023865	0.276295	592.503738	13.948615	-8.645331	-0.457254	1.459118	2.354182
0.500	2.237738	0.373959	594.131573	14.146800	-8.748042	-0.462730	1.472408	2.381089
0.510	2.466536	0.467047	595.895593	14.342107	-8.854809	-0.467219	1.485966	2.406815
0.520	2.686994	0.554698	597.694449	14.534995	-8.963887	-0.470583	1.499744	2.431844
0.530	2.884737	0.632436	599.441860	14.726881	-9.073522	-0.472856	1.513662	2.456766
0.540	3.056102	0.693294	601.061329	14.917862	-9.182719	-0.474144	1.527751	2.481920
0.550	3.205381	0.730140	602.478199	15.105130	-9.291836	-0.474528	1.542269	2.507166
0.560	3.339463	0.738228	603.615557	15.282904	-9.402591	-0.474049	1.557712	2.531894
0.570	3.462683	0.716838	604.399199	15.443783	-9.517511	-0.472793	1.574706	2.555229
0.580	3.574174	0.669302	604.771951	15.580670	-9.639235	-0.471035	1.593863	2.576288
0.590	3.668769	0.601543	604.711807	15.688331	-9.770254	-0.469340	1.615688	2.594348
0.600	3.741120	0.519904	604.245735	15.764083	-9.913342	-0.468513	1.640614	2.608886
0.610	3.791471	0.429184	603.452808	15.807739	-10.072388	-0.469356	1.669126	2.619548
0.620	3.830559	0.331529	602.454458	15.821205	-10.252941	-0.472287	1.701862	2.626125
0.630	3.880912	0.226452	601.393288	15.807954	-10.461794	-0.477025	1.739593	2.628555
0.640	3.972885	0.111760	600.404673	15.772354	-10.705380	-0.482556	1.783027	2.626954
0.650	4.135936	-0.015163	599.587908	15.718888	-10.987430	-0.487451	1.832497	2.621615
0.660	4.388040	-0.156323	598.985209	15.651444	-11.306882	-0.490399	1.887673	2.612993
0.670	4.727497	-0.312615	598.575549	15.572960	-11.657041	-0.490704	1.947464	2.601670
0.680	5.131055	-0.483588	598.285798	15.485614	-12.026426	-0.488526	2.010147	2.588331
0.690	5.559881	-0.667002	598.015604	15.391516	-12.400899	-0.484779	2.073675	2.573765
0.700	5.971411	-0.858092	597.667432	15.293559	-12.766187	-0.480793	2.136002	2.558874
0.710	6.332291	-1.049189	597.171691	15.195945	-13.109859	-0.477934	2.195325	2.544653
0.720	6.626965	-1.230451	596.499532	15.103917	-13.422319	-0.477352	2.250181	2.532092
0.730	6.858541	-1.391464	595.661294	15.022691	-13.696822	-0.479858	2.299431	2.522019
0.740	7.042106	-1.522679	594.694295	14.956126	-13.928890	-0.485856	2.342193	2.514927
0.750	7.194176	-1.615987	593.647508	14.905937	-14.115537	-0.495278	2.377764	2.510907
0.760	7.323582	-1.664908	592.570636	14.871932	-14.254615	-0.507517	2.405555	2.509731
0.770	7.428073	-1.665457	591.511418	14.853066	-14.344506	-0.521387	2.425060	2.511036
0.780	7.497598	-1.618186	590.519743	14.848585	-14.384321	-0.535170	2.435875	2.514494
0.790	7.521683	-1.530646	589.653478	14.858582	-14.374564	-0.546860	2.437799	2.519884
0.800	7.496733	-1.418479	588.980477	14.883698	-14.317947	-0.554621	2.430971	2.527027
0.810	7.429950	-1.303491	588.574216	14.924176	-14.219846	-0.557304	2.415982	2.535649
0.820	7.338677	-1.208465	588.504489	14.978823	-14.088025	-0.554751	2.393869	2.545235
0.830	7.245938	-1.150408	588.826374	15.044529	-13.931607	-0.547750	2.365996	2.555003
0.840	7.174139	-1.135037	589.569558	15.116756	-13.759551	-0.537690	2.333830	2.564033
0.850	7.139256	-1.154921	590.728804	15.190930	-13.579039	-0.526102	2.298693	2.571557
0.860	7.147276	-1.192238	592.256967	15.264178	-13.394182	-0.514227	2.261549	2.577290
0.870	7.193431	-1.225199	594.063468	15.336614	-13.205412	-0.502757	2.222896	2.581646
0.880	7.263702	-1.235557	596.020873	15.411623	-13.009769	-0.491830	2.182771	2.585752
0.890	7.337381	-1.214147	597.979182	15.495073	-12.801963	-0.481274	2.140871	2.591240
0.900	7.389739	-1.162569	599.784071	15.593924	-12.575816	-0.470973	2.096724	2.599923
0.910	7.394654	-1.090974	601.294744	15.714624	-12.325702	-0.461142	2.049860	2.613464
0.920	7.327888	-1.013268	602.399363	15.861460	-12.047824	-0.452317	1.999973	2.633047
0.930	7.171561	-0.941629	603.028040	16.035055	-11.741391	-0.445058	1.947072	2.659090
0.940	6.919296	-0.882200	603.163005	16.231516	-11.409639	-0.439514	1.891634	2.691066
0.950	6.580346	-0.833271	602.843733	16.442895	-11.060363	-0.435085	1.834698	2.727555
0.960	6.180697	-0.786131	602.163666	16.659181	-10.705455	-0.430359	1.777831	2.766554
0.970	5.759928	-0.727755	601.255870	16.871201	-10.359238	-0.423392	1.722933	2.805993
0.980	5.363873	-0.644209	600.268320	17.073142	-10.035874	-0.412331	1.671898	2.844252
0.990	5.034501	-0.524062	599.334360	17.263570	-9.746508	-0.396186	1.626222	2.880457
1.000	4.799698	-0.361622	598.547142	17.444554	-9.496940	-0.375432	1.586665	2.914483
1.010	4.666340	-0.159684	597.945894	17.619461	-9.286505	-0.352176	1.553068	2.946665
1.020	4.619220	0.069032	597.517630	17.790508	-9.108534	-0.329711	1.524396	2.977403
1.030	4.626150	0.302796	597.212934	17.957123	-8.952178	-0.311593	1.498993	3.006821
1.040	4.647102	0.514478	596.969835	18.115782	-8.804969	-0.300545	1.474944	3.034623
1.050	4.644216	0.677127	596.736837	18.261332	-8.655364	-0.297674	1.450449	3.060198
1.060	4.590021	0.770239	596.486981	18.389213	-8.494731	-0.302365	1.424127	3.082919
1.070	4.472459	0.785322	596.219856	18.497598	-8.318400	-0.312860	1.395190	3.102479
1.080	4.296159	0.729328	595.954381	18.588502	-8.125637	-0.327185	1.363466	3.119115
1.090	4.079794	0.624527	595.717665	18.667381	-7.918586	-0.343931	1.329251	3.133595
1.100	3.849828	0.504081	595.533921	18.741423	-7.700527	-0.362602	1.293046	3.146995
1.110	3.631856	0.404009	595.415495	18.817284	-7.473912	-0.383508	1.255243	3.160362
1.120	3.442051	0.353982	595.357685	18.899164	-7.238661	-0.407312	1.215851	3.174422
1.130	3.281871	0.370251	595.339802	18.987986	-6.991296	-0.434422	1.174337	3.189437
1.140	3.138358	0.453205	595.334499	19.081984	-6.725470	-0.464415	1.129696	3.205254
1.150	2.990105	0.589958	595.324680	19.178506	-6.434148	-0.495718	1.080780	3.221520
1.160	2.816555	0.760108	595.322864	19.276184	-6.112882	-0.525723	1.026818	3.237938
1.170	2.606904	0.941812	595.384240	19.376433	-5.762930	-0.551340	0.967935	3.254442
1.180	2.365094	1.116041	595.604635	19.483549	-5.392873	-0.569758	0.905445	3.271222
1.190	2.108959	1.268554	596.099791	19.603378	-5.018049	-0.579083	0.841814	3.288607
1.200	1.864065	1.390522	596.971000	19.741195	-4.658025	-0.578623	0.780277	3.306893
1.210	1.655117	1.478787	598.269005	19.899717	-4.332994	-0.568770	0.724255	3.326216
1.220	1.498722	1.536052	599.968752	20.078057	-4.060146	-0.550656	0.676726	3.346517
1.230	1.400281	1.570630	601.962586	20.271975	-3.850840	-0.525811	0.639714	3.367647
1.240	1.355379	1.595294	604.072875	20.475121	-3.709060	-0.496009	0.614009	3.389512
1.250	1.353891	1.625051	606.080089	20.680597	-3.631279	-0.463306	0.599142	3.412189
1.260	1.384293	1.674169	607.759268	20.882271	-3.607669	-0.430143	0.593602	3.435944
1.270	1.436571	1.753278	608.916165	21.075592	-3.624350	-0.399341	0.595213	3.461165
1.280	1.503489	1.867495	609.415063	21.258007	-3.666182	-0.373837	0.601590	3.488264
1.290	1.580766	2.016057	609.193496	21.429003	-3.719396	-0.356144	0.610544	3.517602
1.300	1.666825	2.193294	608.262983	21.589707	-3.773409	-0.347738	0.620358	3.549403
1.310	1.762202	2.390337	606.697824	21.741861	-3.821436	-0.348711	0.629875	3.583639
1.320	1.868137	2.596938	604.616000	21.886349	-3.860029	-0.357939	0.638427	3.619876
1.330	1.984099	2.802982	602.157896	22.021930	-3.887926	-0.373661	0.645665	3.657169
1.340	2.105134	2.999426	599.469184	22.145016	-3.904655	-0.394055	0.651352	3.694104
1.350	2.220780	3.178524	596.692251	22.250731	-3.909327	-0.417486	0.655166	3.729013
1.360	2.316765	3.333448	593.966284	22.334725	-3.900005	-0.442368	0.656604	3.760268
1.370	2.379109	3.457770	591.432071	22.394857	-3.873987	-0.466943	0.655018	3.786548
1.380	2.398973	3.545312	589.235344	22.432142	-3.828914	-0.489244	0.649811	3.806992
1.390	2.376319	3.590534	587.522572	22.450741	-3.764099	-0.507361	0.640673	3.821256
1.400	2.320964	3.589273	586.426245	22.456987	-3.681294	-0.519871	0.627751	3.829465
1.410	2.250610	3.539607	586.042724	22.457691	-3.584372	-0.526195	0.611623	3.832091
1.420	2.186376	3.442877	586.410846	22.458368	-3.477993	-0.526670	0.593098	3.829801
1.430	2.146918	3.304978	587.498875	22.462137	-3.365826	-0.522277	0.572908	3.823350
1.440	2.142355	3.137704	589.202231	22.469690	-3.249029	-0.514160	0.551429	3.813579
1.450	2.169460	2.959485	591.350803	22.480089	-3.125552	-0.503165	0.528545	3.801481
1.460	2.209788	2.794659	593.725413	22.491839	-2.990434	-0.489608	0.503673	3.788256
1.470	2.232234	2.670767	596.084385	22.503700	-2.836976	-0.473402	0.475935	3.775254
1.480	2.200514	2.613960	598.198582	22.514926	-2.658489	-0.454500	0.444416	3.763788
1.490	2.084338	2.643397	599.888173	22.524818	-2.450286	-0.433370	0.408457	3.754836
1.500	1.871267	2.766189	601.051269	22.531856	-2.211648	-0.411218	0.367963	3.748741
1.510	1.575133	2.974577	601.675965	22.532991	-1.947343	-0.389805	0.323653	3.745038
1.520	1.237230	3.246529	601.831921	22.523748	-1.668107	-0.370998	0.277172	3.742531
1.530	0.918472	3.549655	601.643785	22.499360	-1.389392	-0.356286	0.230933	3.739648
1.540	0.683941	3.847383	601.254648	22.456463	-1.128257	-0.346398	0.187650	3.734934
1.550	0.584469	4.106006	600.791037	22.394410	-0.899132	-0.341115	0.149658	3.727487
1.560	0.641514	4.301098	600.339470	22.315437	-0.710021	-0.339285	0.118270	3.717136
1.570	0.840724	4.421551	599.939537	22.223555	-0.560729	-0.339088	0.093464	3.704299
1.580	1.136571	4.469670	599.592797	22.122719	-0.443949	-0.338487	0.074042	3.689624
1.590	1.466438	4.457150	599.282290	22.015063	-0.348808	-0.335728	0.058204	3.673572
1.600	1.769166	4.398748	598.994574	21.899790	-0.265357	-0.329700	0.044300	3.656092
1.610	2.001658	4.306517	598.735807	21.772959	-0.188090	-0.320075	0.031415	3.636489
1.620	2.148283	4.186956	598.536537	21.628188	-0.117080	-0.307255	0.019561	3.613512
1.630	2.220703	4.041708	598.444841	21.458107	-0.056580	-0.292221	0.009455	3.585645
1.640	2.249115	3.870638	598.511071	21.256229	-0.012109	-0.276374	0.002023	3.551518
1.650	2.268496	3.674995	598.768469	21.018599	0.012410	-0.261354	-0.002073	3.510305
1.660	2.304733	3.458720	599.214301	20.744493	0.016301	-0.248773	-0.002720	3.461949
1.670	2.365063	3.227348	599.797287	20.435737	0.002271	-0.239855	-0.000379	3.407107
1.680	2.435501	2.985523	600.417004	20.094887	-0.024539	-0.235040	0.004087	3.346822
1.690	2.485475	2.734650	600.937202	19.723184	-0.057944	-0.233697	0.009642	3.282071
1.700	2.477686	2.471674	601.209585	19.319397	-0.091996	-0.234023	0.015302	3.213421
1.710	2.379908	2.189200	601.101651	18.880260	-0.121799	-0.233216	0.020263	3.140943
1.720	2.175210	1.876871	600.523189	18.402366	-0.143759	-0.227981	0.023939	3.064389
1.730	1.867685	1.523866	599.447799	17.884656	-0.155373	-0.215290	0.025919	2.983522
1.740	1.482099	1.122095	597.925728	17.330563	-0.154812	-0.193217	0.025892	2.898447
1.750	1.057742	0.669465	596.083623	16.749223	-0.140579	-0.161574	0.023584	2.809878
1.760	0.638643	0.172636	594.108589	16.155567	-0.111367	-0.122201	0.018745	2.719295
1.770	0.263290	-0.351103	592.218645	15.569222	-0.066120	-0.078858	0.011165	2.628965
1.780	-0.043166	-0.873358	590.626737	15.012156	-0.004199	-0.036724	0.000711	2.541733
1.790	-0.272219	-1.356310	589.507780	14.505217	0.074483	-0.001483	-0.012635	2.460564
1.800	-0.430221	-1.757284	588.976449	14.064235	0.169331	0.021874	-0.028750	2.387911
1.810	-0.532617	-2.036300	589.079031	13.696901	0.278857	0.030183	-0.047338	2.325138
1.820	-0.596701	-2.165362	589.798314	13.401666	0.400307	0.022756	-0.067872	2.272246
1.830	-0.635815	-2.136758	591.067580	13.169153	0.529283	0.001352	-0.089547	2.228028
1.840	-0.656918	-1.967049	592.788303	12.985398	0.659674	-0.030439	-0.111283	2.190562
1.850	-0.661552	-1.694676	594.846259	12.835482	0.784098	-0.068094	-0.131815	2.157781
1.860	-0.648445	-1.371610	597.122557	12.706289	0.894762	-0.107073	-0.149846	2.127920
1.870	-0.615614	-1.051745	599.499190	12.587849	0.984386	-0.143550	-0.164201	2.099727
1.880	-0.561058	-0.779624	601.861059	12.473458	1.046790	-0.174791	-0.173925	2.072481
1.890	-0.482817	-0.582583	604.096481	12.358996	1.076984	-0.199205	-0.178280	2.045865
1.900	-0.379698	-0.468050	606.097519	12.241898	1.070901	-0.216208	-0.176688	2.019790
1.910	-0.253005	-0.426005	607.761937	12.120142	1.025129	-0.226108	-0.168673	1.994225
1.920	-0.108020	-0.435191	608.998761	11.991548	0.936979	-0.230089	-0.153856	1.969060
1.930	0.046529	-0.470837	609.737003	11.853439	0.804902	-0.230135	-0.132008	1.944025
1.940	0.201540	-0.511706	609.933962	11.702570	0.629030	-0.228772	-0.103131	1.918662
1.950	0.351704	-0.544837	609.579364	11.535266	0.411511	-0.228570	-0.067507	1.892332
1.960	0.498283	-0.567176	608.694830	11.347789	0.156443	-0.231563	-0.025701	1.864282
1.970	0.648829	-0.584237	607.331486	11.136911	-0.130644	-0.238846	0.021511	1.833745
1.980	0.814235	-0.606924	605.568568	10.900577	-0.443548	-0.250542	0.073245	1.800057
1.990	1.004895	-0.648138	603.512362	10.638397	-0.776097	-0.266104	0.128597	1.762747
2.000	1.227712	-0.720413	601.291649	10.351641	-1.122547	-0.284736	0.186689	1.721567
2.010	1.484485	-0.834767	599.046701	10.042626	-1.477507	-0.305670	0.246643	1.676435
2.020	1.771177	-1.000041	596.912805	9.713752	-1.835406	-0.328131	0.307483	1.627332
2.030	2.077471	-1.222010	595.002437	9.366762	-2.189738	-0.351083	0.368022	1.574239
2.040	2.386676	-1.502350	593.390836	9.002613	-2.532489	-0.372960	0.426783	1.517147
2.050	2.676636	-1.838330	592.109259	8.621860	-2.854161	-0.391665	0.482033	1.456126
2.060	2.922271	-2.223732	591.148935	8.225146	-3.144579	-0.404957	0.531944	1.391383
2.070	3.099697	-2.650378	590.475429	7.813544	-3.394347	-0.411113	0.574850	1.323263
2.080	3.191078	-3.108892	590.048219	7.388839	-3.596541	-0.409535	0.609533	1.252243
2.090	3.188814	-3.587980	589.837072	6.953951	-3.748057	-0.401016	0.635439	1.178961
2.100	3.097536	-4.073142	589.828620	6.513364	-3.850085	-0.387539	0.652746	1.104281
2.110	2.932711	-4.546706	590.022412	6.073110	-3.907450	-0.371739	0.662255	1.029302
2.120	2.715811	-4.990207	590.421228	5.639851	-3.927021	-0.356241	0.665122	0.955225
2.130	2.467803	-5.388063	591.021837	5.219244	-3.915832	-0.343100	0.662553	0.883088
2.140	2.203903	-5.730368	591.809756	4.814409	-3.879774	-0.333466	0.655578	0.813506
2.150	1.932044	-6.013470	592.758518	4.425448	-3.823379	-0.327476	0.645015	0.746585
2.160	1.655421	-6.238736	593.832771	4.050329	-3.750609	-0.324326	0.631593	0.682066
2.170	1.377206	-6.410721	594.994127	3.686646	-3.666033	-0.322495	0.616146	0.619611
2.180	1.104518	-6.535491	596.207736	3.333371	-3.575820	-0.320171	0.599761	0.559095
2.190	0.849553	-6.619306	597.447086	2.991857	-3.488211	-0.315827	0.583853	0.500774
2.200	0.627726	-6.667849	598.695366	2.665917	-3.413466	-0.308747	0.570151	0.445288
2.210	0.454415	-6.686210	599.942978	2.361144	-3.363264	-0.299235	0.560597	0.393561
2.220	0.342095	-6.679587	601.181900	2.083838	-3.349493	-0.288384	0.557151	0.346624
2.230	0.298554	-6.654185	602.398482	1.839750	-3.382447	-0.277562	0.561497	0.305404
2.240	0.325760	-6.617702	603.566709	1.632855	-3.468756	-0.267921	0.574710	0.270534
2.250	0.419032	-6.579021	604.643612	1.464489	-3.609691	-0.260122	0.596995	0.242207
2.260	0.566838	-6.547033	605.567696	1.333184	-3.800542	-0.254342	0.627600	0.220154
2.270	0.751904	-6.528761	606.261280	1.235314	-4.031487	-0.250509	0.664975	0.203759
2.280	0.953913	-6.527243	606.638247	1.166208	-4.289823	-0.248645	0.707147	0.192241
2.290	1.153392	-6.539985	606.618313	1.121152	-4.562855	-0.249109	0.752179	0.184820
2.300	1.335740	-6.558977	606.146367	1.095849	-4.840489	-0.252555	0.798568	0.180790
2.310	1.494037	-6.572934	605.211965	1.086386	-5.116725	-0.259652	0.845444	0.179505
2.320	1.629499	-6.571276	603.861899	1.089072	-5.389753	-0.270722	0.892547	0.180351
2.330	1.749210	-6.548225	602.199737	1.100597	-5.660871	-0.285543	0.940032	0.182763
2.340	1.861872	-6.505109	600.370748	1.118629	-5.932887	-0.303395	0.988204	0.186323
2.350	1.973168	-6.449757	598.536755	1.142709	-6.208667	-0.323273	1.037308	0.190917
2.360	2.082516	-6.393212	596.849640	1.175022	-6.490229	-0.344157	1.087414	0.196871
2.370	2.182481	-6.345070	595.431517	1.220520	-6.778447	-0.365212	1.138409	0.204981
2.380	2.261189	-6.309207	594.364890	1.286043	-7.073199	-0.385878	1.190043	0.216373
