Time[s]	Fx[N]	Fy[N]	Fz[N]	Mx[Nm]	My[Nm]	Mz[Nm]	COPx[cm]	COPy[cm]
0.010	2.150469	-2.433841	653.633148	-2.600641	3.348413	-0.071649	-0.512277	-0.397875
0.020	2.397872	-2.425894	653.703626	-2.639662	3.083894	-0.092232	-0.471757	-0.403801
0.030	2.640769	-2.421137	653.804879	-2.669347	2.827392	-0.107532	-0.432452	-0.408279
0.040	2.874552	-2.420103	653.960416	-2.681851	2.585435	-0.114104	-0.395350	-0.410094
0.050	3.095578	-2.419069	654.178005	-2.671484	2.361438	-0.111539	-0.360978	-0.408373
0.060	3.301054	-2.410731	654.446959	-2.635426	2.155483	-0.102399	-0.329359	-0.402695
0.070	3.488969	-2.386410	654.738596	-2.574123	1.964973	-0.090963	-0.300116	-0.393153
0.080	3.658367	-2.338753	655.009841	-2.491166	1.785849	-0.081338	-0.272645	-0.380325
0.090	3.809787	-2.263984	655.210260	-2.392601	1.614006	-0.075733	-0.246334	-0.365165
0.100	3.945324	-2.163140	655.291640	-2.285824	1.446659	-0.073686	-0.220766	-0.348825
0.110	4.067929	-2.042001	655.217950	-2.178384	1.283362	-0.072558	-0.195868	-0.332467
0.120	4.179921	-1.909874	654.973588	-2.076988	1.126469	-0.069033	-0.171987	-0.317110
0.130	4.281206	-1.777791	654.568768	-1.986833	0.980933	-0.060860	-0.149859	-0.303533
0.140	4.368062	-1.656686	654.041102	-1.911381	0.853567	-0.047981	-0.130507	-0.292242
0.150	4.433383	-1.555809	653.452393	-1.852535	0.751927	-0.032497	-0.115070	-0.283500
0.160	4.468757	-1.481426	652.880650	-1.811001	0.682992	-0.017603	-0.104612	-0.277386
0.170	4.467986	-1.436039	652.409237	-1.786471	0.651834	-0.006096	-0.099912	-0.273827
0.180	4.430844	-1.418373	652.115595	-1.777414	0.660481	0.000749	-0.101283	-0.272561
0.190	4.365399	-1.424203	652.060386	-1.780732	0.707148	0.003458	-0.108448	-0.273093
0.200	4.287414	-1.447734	652.276426	-1.791823	0.786006	0.003794	-0.120502	-0.274703
0.210	4.216569	-1.482940	652.758109	-1.805380	0.887634	0.003733	-0.135982	-0.276577
0.220	4.170808	-1.524157	653.455513	-1.816666	1.000234	0.004506	-0.153068	-0.278009
0.230	4.161068	-1.565569	654.278486	-1.822611	1.111444	0.006095	-0.169873	-0.278568
0.240	4.188392	-1.600112	655.111870	-1.822195	1.210358	0.007307	-0.184756	-0.278150
0.250	4.244308	-1.619036	655.837143	-1.816023	1.289275	0.006347	-0.196585	-0.276902
0.260	4.313951	-1.613220	656.353620	-1.805486	1.344812	0.001612	-0.204891	-0.275078
0.270	4.380464	-1.576365	656.594653	-1.792060	1.378225	-0.007594	-0.209905	-0.272933
0.280	4.429055	-1.508831	656.537317	-1.777093	1.394973	-0.020719	-0.212474	-0.270677
0.290	4.449619	-1.419905	656.205075	-1.762008	1.403587	-0.036119	-0.213895	-0.268515
0.300	4.437510	-1.326518	655.662738	-1.748646	1.414023	-0.051629	-0.215663	-0.266699
0.310	4.392578	-1.248309	655.003695	-1.739408	1.435834	-0.065311	-0.219210	-0.265557
0.320	4.317271	-1.201120	654.331881	-1.736964	1.476591	-0.076066	-0.225664	-0.265456
0.330	4.214952	-1.191998	653.743469	-1.743552	1.540921	-0.083897	-0.235707	-0.266703
0.340	4.089252	-1.217788	653.313316	-1.760213	1.630320	-0.089700	-0.249546	-0.269429
0.350	3.944547	-1.267521	653.088335	-1.786392	1.743554	-0.094734	-0.266971	-0.273530
0.360	3.787099	-1.327126	653.086609	-1.820100	1.877327	-0.100064	-0.287455	-0.278692
0.370	3.626288	-1.384344	653.299738	-1.858478	2.026932	-0.106199	-0.310261	-0.284476
0.380	3.475074	-1.432026	653.696504	-1.898443	2.186817	-0.112996	-0.334531	-0.290417
0.390	3.348829	-1.468911	654.227130	-1.937216	2.351050	-0.119752	-0.359363	-0.296108
0.400	3.262393	-1.498032	654.828453	-1.972657	2.513669	-0.125431	-0.383867	-0.301248
0.410	3.226212	-1.523776	655.430619	-2.003463	2.668884	-0.129011	-0.407195	-0.305671
0.420	3.242806	-1.549082	655.964844	-2.029296	2.811320	-0.129841	-0.428578	-0.309360
0.430	3.304674	-1.574099	656.370576	-2.050899	2.936509	-0.127826	-0.447386	-0.312461
0.440	3.394513	-1.596760	656.600717	-2.070116	3.041679	-0.123315	-0.463246	-0.315278
0.450	3.488131	-1.614599	656.625495	-2.089522	3.126594	-0.116766	-0.476161	-0.318221
0.460	3.559623	-1.626582	656.436864	-2.111519	3.194085	-0.108442	-0.486579	-0.321664
0.470	3.587315	-1.633837	656.053642	-2.137141	3.249979	-0.098358	-0.495383	-0.325757
0.480	3.558383	-1.639037	655.524234	-2.165264	3.302326	-0.086529	-0.503769	-0.330310
0.490	3.470477	-1.645140	654.922396	-2.192798	3.360021	-0.073361	-0.513041	-0.334818
0.500	3.330028	-1.654435	654.334500	-2.215912	3.431115	-0.059936	-0.524367	-0.338651
0.510	3.148468	-1.668307	653.841614	-2.231674	3.521252	-0.047952	-0.538548	-0.341317
0.520	2.938339	-1.687363	653.502420	-2.239217	3.632698	-0.039230	-0.555881	-0.342649
0.530	2.710858	-1.711443	653.342080	-2.239865	3.764197	-0.035002	-0.576145	-0.342832
0.540	2.475444	-1.739437	653.349669	-2.236176	3.911574	-0.035332	-0.598695	-0.342263
0.550	2.240664	-1.769250	653.484566	-2.230388	4.068746	-0.039011	-0.622623	-0.341307
0.560	2.015463	-1.798226	653.690482	-2.223032	4.228818	-0.043999	-0.646914	-0.340074
0.570	1.809527	-1.823870	653.913270	-2.212451	4.385073	-0.048213	-0.670589	-0.338340
0.580	1.632347	-1.844314	654.115762	-2.195554	4.531754	-0.050286	-0.692806	-0.335652
0.590	1.491529	-1.858040	654.282738	-2.169425	4.664585	-0.049967	-0.712931	-0.331573
0.600	1.391340	-1.863015	654.414148	-2.132839	4.781051	-0.048033	-0.730585	-0.325916
0.610	1.332070	-1.855998	654.511796	-2.086880	4.880536	-0.045871	-0.745676	-0.318845
0.620	1.309938	-1.832893	654.568507	-2.034461	4.964453	-0.044973	-0.758431	-0.310809
0.630	1.317019	-1.790363	654.566710	-1.979252	5.036351	-0.046461	-0.769418	-0.302376
0.640	1.341199	-1.727982	654.487316	-1.924719	5.101809	-0.050720	-0.779512	-0.294080
0.650	1.366899	-1.649770	654.323697	-1.873601	5.167863	-0.057206	-0.789802	-0.286342
0.660	1.377381	-1.564218	654.092637	-1.827631	5.241817	-0.064553	-0.801388	-0.279415
0.670	1.358577	-1.482592	653.835482	-1.787105	5.329551	-0.071014	-0.815121	-0.273326
0.680	1.303168	-1.416042	653.607477	-1.750273	5.433798	-0.075135	-0.831355	-0.267787
0.690	1.213105	-1.372543	653.459222	-1.713166	5.553048	-0.076355	-0.849793	-0.262169
0.700	1.099215	-1.354698	653.418514	-1.670474	5.681604	-0.075244	-0.869520	-0.255652
0.710	0.977806	-1.358970	653.481312	-1.617473	5.810872	-0.073271	-0.889218	-0.247516
0.720	0.865426	-1.376405	653.616276	-1.552174	5.931367	-0.072261	-0.907469	-0.237475
0.730	0.773675	-1.394790	653.780346	-1.476626	6.034746	-0.073829	-0.923054	-0.225860
0.740	0.705951	-1.401865	653.937097	-1.396618	6.115222	-0.078999	-0.935139	-0.213571
0.750	0.657272	-1.388588	654.068574	-1.319762	6.170140	-0.088107	-0.943348	-0.201777
0.760	0.617270	-1.351162	654.175354	-1.252758	6.199788	-0.100866	-0.947726	-0.191502
0.770	0.575327	-1.291175	654.266582	-1.199110	6.206651	-0.116488	-0.948643	-0.183275
0.780	0.525980	-1.214186	654.347601	-1.158328	6.194376	-0.133795	-0.946649	-0.177020
0.790	0.472372	-1.127636	654.413576	-1.126814	6.166755	-0.151337	-0.942333	-0.172187
0.800	0.426110	-1.038927	654.452351	-1.099699	6.127069	-0.167602	-0.936213	-0.168033
0.810	0.403346	-0.954159	654.453239	-1.072644	6.077973	-0.181285	-0.928710	-0.163899
0.820	0.418744	-0.877632	654.415354	-1.042984	6.021821	-0.191538	-0.920183	-0.159376
0.830	0.480044	-0.811950	654.350620	-1.010111	5.961118	-0.198099	-0.910997	-0.154368
0.840	0.585434	-0.758392	654.279902	-0.975270	5.898716	-0.201224	-0.901559	-0.149060
0.850	0.724397	-0.717398	654.224104	-0.940893	5.837598	-0.201413	-0.892293	-0.143818
0.860	0.881056	-0.689242	654.194677	-0.909560	5.780307	-0.199063	-0.883576	-0.139035
0.870	1.038420	-0.674718	654.188853	-0.882787	5.728280	-0.194264	-0.875631	-0.134944
0.880	1.182202	-0.675170	654.192691	-0.860091	5.681340	-0.186868	-0.868450	-0.131474
0.890	1.303513	-0.691401	654.190618	-0.838879	5.637568	-0.176798	-0.861762	-0.128232
0.900	1.399968	-0.721997	654.176346	-0.815360	5.593723	-0.164423	-0.855079	-0.124639
0.910	1.474872	-0.762297	654.159169	-0.786188	5.546162	-0.150790	-0.847831	-0.120183
0.920	1.534727	-0.804955	654.161942	-0.750106	5.491969	-0.137573	-0.839543	-0.114667
0.930	1.586199	-0.841925	654.211592	-0.708795	5.429807	-0.126648	-0.829977	-0.108343
0.940	1.633996	-0.866923	654.326914	-0.666633	5.360063	-0.119402	-0.819172	-0.101881
0.950	1.680399	-0.877400	654.509165	-0.629515	5.284212	-0.116048	-0.807355	-0.096181
0.960	1.726055	-0.875501	654.738545	-0.603215	5.203772	-0.115320	-0.794786	-0.092131
0.970	1.771127	-0.867757	654.976942	-0.591777	5.119488	-0.114804	-0.781629	-0.090351
0.980	1.816116	-0.863244	655.175922	-0.596433	5.031302	-0.111822	-0.767931	-0.091034
0.990	1.862117	-0.870362	655.288155	-0.615483	4.939106	-0.104486	-0.753730	-0.093926
1.000	1.910676	-0.893368	655.279805	-0.645315	4.843809	-0.092442	-0.739197	-0.098479
1.010	1.963536	-0.930443	655.140879	-0.682164	4.748080	-0.076998	-0.724742	-0.104125
1.020	2.022444	-0.974418	654.890586	-0.723753	4.656253	-0.060640	-0.710997	-0.110515
1.030	2.088783	-1.015710	654.575664	-0.769921	4.573249	-0.046177	-0.698659	-0.117621
1.040	2.162802	-1.045888	654.261192	-0.821967	4.502879	-0.035847	-0.688239	-0.125633
1.050	2.242616	-1.060329	654.015335	-0.881114	4.446282	-0.030718	-0.679844	-0.134724
1.060	2.323568	-1.059335	653.891659	-0.947018	4.401271	-0.030595	-0.673089	-0.144828
1.070	2.398414	-1.047832	653.914482	-1.017060	4.362927	-0.034401	-0.667201	-0.155534
1.080	2.458461	-1.033894	654.072545	-1.086793	4.325184	-0.040791	-0.661270	-0.166158
1.090	2.495637	-1.026290	654.323055	-1.151367	4.282699	-0.048667	-0.654524	-0.175963
1.100	2.505207	-1.031699	654.603707	-1.207373	4.232212	-0.057359	-0.646530	-0.184443
1.110	2.488308	-1.052744	654.847671	-1.254256	4.172937	-0.066535	-0.637238	-0.191534
1.120	2.453048	-1.087853	654.997164	-1.294582	4.105946	-0.075999	-0.626865	-0.197647
1.130	2.413205	-1.132891	655.013658	-1.332962	4.033013	-0.085562	-0.615714	-0.203501
1.140	2.384575	-1.183387	654.884423	-1.374095	3.955454	-0.094957	-0.603993	-0.209823
1.150	2.380331	-1.235977	654.624871	-1.420802	3.873448	-0.103786	-0.591705	-0.217041
1.160	2.407416	-1.288392	654.275613	-1.473012	3.786028	-0.111480	-0.578659	-0.225136
1.170	2.465495	-1.338510	653.894035	-1.528216	3.691676	-0.117381	-0.564568	-0.233710
1.180	2.548563	-1.383722	653.542225	-1.583112	3.589261	-0.120943	-0.549201	-0.242236
1.190	2.647965	-1.421515	653.274034	-1.635438	3.478895	-0.122002	-0.532532	-0.250345
1.200	2.755239	-1.451012	653.123639	-1.684961	3.362284	-0.120949	-0.514800	-0.257985
1.210	2.863668	-1.474206	653.097737	-1.733187	3.242375	-0.118700	-0.496461	-0.265379
1.220	2.968455	-1.495655	653.173871	-1.782136	3.122427	-0.116452	-0.478039	-0.272843
1.230	3.066185	-1.520496	653.306843	-1.832935	3.004968	-0.115292	-0.459963	-0.280563
1.240	3.154275	-1.551746	653.442607	-1.884933	2.891246	-0.115796	-0.442464	-0.288462
1.250	3.230558	-1.588398	653.535686	-1.935731	2.781550	-0.117760	-0.425616	-0.296194
1.260	3.292777	-1.625451	653.564076	-1.982186	2.676293	-0.120177	-0.409492	-0.303289
1.270	3.337861	-1.656054	653.536508	-2.022035	2.577253	-0.121495	-0.394355	-0.309399
1.280	3.361206	-1.674820	653.490457	-2.055414	2.488230	-0.120158	-0.380760	-0.314529
1.290	3.356313	-1.680715	653.482855	-2.085457	2.414676	-0.115237	-0.369509	-0.319130
1.300	3.315204	-1.678116	653.576826	-2.117531	2.362386	-0.106874	-0.361455	-0.323991
1.310	3.230016	-1.675513	653.826560	-2.157307	2.335714	-0.096274	-0.357238	-0.329951
1.320	3.095861	-1.682396	654.261002	-2.208448	2.335968	-0.085190	-0.357039	-0.337548
1.330	2.914382	-1.705678	654.867790	-2.270782	2.360503	-0.075187	-0.360455	-0.346754
1.340	2.696802	-1.747110	655.582532	-2.339738	2.402827	-0.067047	-0.366518	-0.356894
1.350	2.464901	-1.802644	656.291178	-2.407341	2.453703	-0.060621	-0.373874	-0.366810
1.360	2.248818	-1.863723	656.850694	-2.464552	2.502994	-0.055114	-0.381060	-0.375207
1.370	2.081640	-1.919631	657.125143	-2.504123	2.541726	-0.049574	-0.386795	-0.381072
1.380	1.992017	-1.959874	657.025936	-2.522863	2.563811	-0.043275	-0.390215	-0.383982
1.390	1.996938	-1.976038	656.541593	-2.522373	2.566986	-0.035860	-0.390986	-0.384191
1.400	2.096882	-1.963182	655.745757	-2.507999	2.552802	-0.027310	-0.389297	-0.382465
1.410	2.274776	-1.920919	654.780339	-2.486556	2.525839	-0.017872	-0.385754	-0.379754
1.420	2.499051	-1.853969	653.819193	-2.463916	2.492539	-0.007997	-0.381228	-0.376850
1.430	2.730034	-1.771706	653.023365	-2.443449	2.460026	0.001737	-0.376713	-0.374175
1.440	2.928208	-1.686353	652.501561	-2.425755	2.435076	0.010690	-0.373191	-0.371762
1.450	3.062283	-1.610023	652.288563	-2.409423	2.423264	0.018210	-0.371502	-0.369380
1.460	3.114727	-1.551502	652.348544	-2.392163	2.428295	0.023651	-0.372239	-0.366700
1.470	3.083249	-1.514200	652.600529	-2.371815	2.451603	0.026456	-0.375667	-0.363441
1.480	2.978554	-1.496316	652.954584	-2.347061	2.492265	0.026322	-0.381690	-0.359452
1.490	2.820179	-1.493105	653.344133	-2.317836	2.547203	0.023400	-0.389872	-0.354765
1.500	2.632267	-1.499920	653.742603	-2.285406	2.611529	0.018389	-0.399474	-0.349588
1.510	2.440039	-1.514342	654.159337	-2.252095	2.678975	0.012401	-0.409529	-0.344273
1.520	2.266898	-1.536451	654.617980	-2.220753	2.742396	0.006641	-0.418931	-0.339244
1.530	2.132127	-1.567479	655.127423	-2.194112	2.794379	0.002035	-0.426540	-0.334914
1.540	2.049537	-1.607769	655.658637	-2.174126	2.827874	-0.001017	-0.431303	-0.331594
1.550	2.027220	-1.655020	656.138708	-2.161444	2.836763	-0.002708	-0.432342	-0.329419
1.560	2.067886	-1.703532	656.466671	-2.155346	2.816464	-0.003739	-0.429034	-0.328325
1.570	2.168902	-1.744947	656.546395	-2.154449	2.764765	-0.005145	-0.421107	-0.328149
1.580	2.321802	-1.770608	656.323907	-2.157997	2.682841	-0.008060	-0.408768	-0.328801
1.590	2.512002	-1.774894	655.814013	-2.166901	2.576003	-0.013483	-0.392795	-0.330414
1.600	2.719759	-1.758172	655.105358	-2.183643	2.453538	-0.022057	-0.374526	-0.333327
1.610	2.922819	-1.727843	654.341539	-2.210860	2.327303	-0.033909	-0.355671	-0.337876
1.620	3.100241	-1.696739	653.684235	-2.249418	2.209315	-0.048530	-0.337979	-0.344114
1.630	3.236364	-1.679455	653.269792	-2.297238	2.109078	-0.064722	-0.322849	-0.351652
1.640	3.323865	-1.688053	653.172329	-2.349670	2.031484	-0.080680	-0.311018	-0.359732
1.650	3.365113	-1.728624	653.384461	-2.401131	1.975902	-0.094337	-0.302410	-0.367491
1.660	3.371259	-1.799588	653.821797	-2.447015	1.936691	-0.103949	-0.296211	-0.374263
1.670	3.359001	-1.891949	654.350368	-2.484850	1.905019	-0.108716	-0.291131	-0.379743
1.680	3.345955	-1.991317	654.828423	-2.514319	1.871488	-0.109129	-0.285798	-0.383966
1.690	3.346393	-2.081337	655.148389	-2.536410	1.828855	-0.106856	-0.279151	-0.387150
1.700	3.368872	-2.147948	655.264438	-2.552315	1.773969	-0.104231	-0.270726	-0.389509
1.710	3.415970	-2.183293	655.196868	-2.562670	1.708339	-0.103562	-0.260737	-0.391130
1.720	3.485161	-2.187726	655.014055	-2.567462	1.637268	-0.106507	-0.249959	-0.391970
1.730	3.569669	-2.168966	654.801493	-2.566524	1.568080	-0.113685	-0.239474	-0.391954
1.740	3.658969	-2.138830	654.631524	-2.560133	1.508194	-0.124619	-0.230388	-0.391080
1.750	3.739525	-2.109122	654.544803	-2.549188	1.463652	-0.137955	-0.223614	-0.389460
1.760	3.796454	-2.088251	654.547219	-2.534837	1.438353	-0.151874	-0.219748	-0.387266
1.770	3.816212	-2.079444	654.618458	-2.517852	1.433947	-0.164560	-0.219051	-0.384629
1.780	3.789630	-2.080649	654.725196	-2.498190	1.450154	-0.174598	-0.221490	-0.381563
1.790	3.714382	-2.085872	654.833439	-2.474983	1.485297	-0.181218	-0.226821	-0.377956
1.800	3.596204	-2.087555	654.917465	-2.446953	1.536849	-0.184368	-0.234663	-0.373628
1.810	3.448422	-2.079412	654.964216	-2.413138	1.601808	-0.184627	-0.244564	-0.368438
1.820	3.289604	-2.058800	654.972588	-2.373573	1.676790	-0.182949	-0.256009	-0.362393
1.830	3.139649	-2.027667	654.948606	-2.329570	1.757879	-0.180324	-0.268400	-0.355688
1.840	3.015380	-1.991653	654.899412	-2.283469	1.840616	-0.177483	-0.281053	-0.348675
1.850	2.927072	-1.957812	654.829196	-2.238040	1.920401	-0.174747	-0.293267	-0.341775
1.860	2.876936	-1.932002	654.738594	-2.195852	1.993276	-0.172072	-0.304438	-0.335378
1.870	2.859807	-1.916919	654.626965	-2.158730	2.056700	-0.169222	-0.314179	-0.329765
1.880	2.865422	-1.911364	654.495563	-2.127292	2.109971	-0.165962	-0.322381	-0.325028
1.890	2.881339	-1.911002	654.349448	-2.100633	2.154143	-0.162137	-0.329204	-0.321026
1.900	2.895564	-1.910448	654.197356	-2.076390	2.191485	-0.157587	-0.334988	-0.317395
1.910	2.898418	-1.905911	654.050259	-2.051303	2.224717	-0.152023	-0.340145	-0.313631
1.920	2.883561	-1.897127	653.919818	-2.022040	2.256325	-0.145046	-0.345046	-0.309218
1.930	2.848418	-1.887553	653.817244	-1.985878	2.288275	-0.136354	-0.349987	-0.303736
1.940	2.794108	-1.882675	653.752487	-1.941001	2.322066	-0.125987	-0.355190	-0.296901
1.950	2.724856	-1.887224	653.733476	-1.886459	2.358874	-0.114419	-0.360831	-0.288567
1.960	2.646810	-1.902378	653.765134	-1.821967	2.399526	-0.102412	-0.367032	-0.278688
1.970	2.566513	-1.924029	653.848387	-1.747663	2.444332	-0.090745	-0.373838	-0.267289
1.980	2.489378	-1.942857	653.979795	-1.663997	2.493013	-0.079986	-0.381206	-0.254442
1.990	2.418428	-1.946556	654.151578	-1.571846	2.544817	-0.070429	-0.389026	-0.240288
2.000	2.353597	-1.923657	654.350563	-1.472804	2.598707	-0.062157	-0.397143	-0.225079
2.010	2.292086	-1.867417	654.555834	-1.369440	2.653373	-0.055163	-0.405370	-0.209217
2.020	2.230212	-1.777973	654.738166	-1.265222	2.707040	-0.049440	-0.413454	-0.193241
2.030	2.166319	-1.661925	654.865407	-1.163943	2.757337	-0.045001	-0.421054	-0.177738
2.040	2.103259	-1.530054	654.913801	-1.068768	2.801549	-0.041839	-0.427774	-0.163192
2.050	2.048667	-1.394541	654.879314	-0.981401	2.837304	-0.039854	-0.433256	-0.149860
2.060	2.012358	-1.266651	654.781349	-0.901863	2.863328	-0.038742	-0.437295	-0.137735
2.070	2.002088	-1.155114	654.655775	-0.828967	2.879734	-0.037943	-0.439885	-0.126626
2.080	2.020090	-1.065168	654.541191	-0.761057	2.887653	-0.036738	-0.441172	-0.116273
2.090	2.062275	-0.998217	654.465873	-0.696534	2.888508	-0.034554	-0.441354	-0.106428
2.100	2.120154	-0.952151	654.440885	-0.634040	2.883406	-0.031312	-0.440591	-0.096883
2.110	2.184011	-0.922307	654.459986	-0.572550	2.872920	-0.027583	-0.438976	-0.087484
2.120	2.245714	-0.902837	654.503764	-0.511595	2.857220	-0.024439	-0.436548	-0.078165
2.130	2.300227	-0.888037	654.545471	-0.451559	2.836288	-0.023088	-0.433322	-0.068988
2.140	2.345733	-0.873163	654.557619	-0.393736	2.810142	-0.024467	-0.429319	-0.060153
2.150	2.382686	-0.854657	654.519062	-0.339951	2.779138	-0.028972	-0.424608	-0.051939
2.160	2.412300	-0.830140	654.421869	-0.291906	2.744396	-0.036366	-0.419362	-0.044605
2.170	2.435050	-0.798688	654.276484	-0.250611	2.708151	-0.045901	-0.413915	-0.038304
2.180	2.449811	-0.761542	654.113008	-0.216231	2.673682	-0.056554	-0.408749	-0.033057
2.190	2.454143	-0.722682	653.976364	-0.188366	2.644617	-0.067302	-0.404390	-0.028803
2.200	2.445739	-0.688390	653.914848	-0.166519	2.623717	-0.077313	-0.401232	-0.025465
2.210	2.424362	-0.665426	653.964810	-0.150364	2.611560	-0.086030	-0.399343	-0.022993
2.220	2.393192	-0.658422	654.136860	-0.139603	2.605729	-0.093152	-0.398346	-0.021342
2.230	2.358909	-0.667763	654.409311	-0.133553	2.600891	-0.098548	-0.397441	-0.020408
2.240	2.330684	-0.689080	654.732312	-0.130827	2.589695	-0.102165	-0.395535	-0.019982
2.250	2.318847	-0.714789	655.041762	-0.129493	2.564047	-0.104004	-0.391433	-0.019769
2.260	2.333788	-0.737103	655.277178	-0.127706	2.516358	-0.104186	-0.384014	-0.019489
2.270	2.385016	-0.751094	655.395484	-0.124531	2.440630	-0.103048	-0.372390	-0.019001
2.280	2.479908	-0.756333	655.376155	-0.120529	2.333586	-0.101130	-0.356068	-0.018391
2.290	2.621769	-0.756422	655.219847	-0.117815	2.195895	-0.099040	-0.335139	-0.017981
2.300	2.807393	-0.756836	654.946502	-0.119536	2.033240	-0.097234	-0.310444	-0.018251
2.310	3.025228	-0.762318	654.596051	-0.128937	1.856610	-0.095843	-0.283627	-0.019697
2.320	3.255662	-0.775022	654.228308	-0.148309	1.681211	-0.094667	-0.256976	-0.022669
2.330	3.474294	-0.794024	653.915633	-0.178103	1.523812	-0.093333	-0.233029	-0.027236
2.340	3.657640	-0.816094	653.726206	-0.216438	1.399102	-0.091514	-0.214020	-0.033108
