Time[s]	Fx[N]	Fy[N]	Fz[N]	Mx[Nm]	My[Nm]	Mz[Nm]	COPx[cm]	COPy[cm]
0.010	5.334564	-1.992184	752.011666	0.734231	-25.467882	-0.415006	3.386634	0.097636
0.020	5.179484	-1.889832	752.509529	1.235368	-25.346913	-0.409121	3.368318	0.164166
0.030	5.041224	-1.739782	753.017506	1.736060	-25.235303	-0.401409	3.351224	0.230547
0.040	4.927158	-1.501376	753.534978	2.236649	-25.139274	-0.390563	3.336179	0.296821
0.050	4.831474	-1.147950	754.041611	2.738837	-25.060089	-0.375924	3.323436	0.363221
0.060	4.737555	-0.673114	754.497738	3.244664	-24.994566	-0.357272	3.312742	0.430043
0.070	4.626122	-0.093797	754.851007	3.755237	-24.937432	-0.334383	3.303623	0.497481
0.080	4.485504	0.551766	755.047758	4.270014	-24.884216	-0.306752	3.295714	0.565529
0.090	4.318949	1.211093	755.046577	4.786817	-24.833288	-0.273817	3.288974	0.633976
0.100	4.144739	1.827759	754.829508	5.302255	-24.786244	-0.235644	3.283688	0.702444
0.110	3.988456	2.352278	754.406415	5.812188	-24.746777	-0.193655	3.280298	0.770432
0.120	3.871208	2.751099	753.811159	6.312120	-24.718762	-0.150869	3.279172	0.837361
0.130	3.799965	3.011890	753.092082	6.797586	-24.704494	-0.111443	3.280408	0.902623
0.140	3.764590	3.144125	752.301463	7.264518	-24.703812	-0.079663	3.283765	0.965639
0.150	3.742184	3.175044	751.488710	7.709439	-24.714445	-0.058760	3.288731	1.025889
0.160	3.705890	3.142384	750.699802	8.129481	-24.733395	-0.049993	3.294712	1.082920
0.170	3.634310	3.086311	749.981512	8.522363	-24.758776	-0.052274	3.301251	1.136343
0.180	3.518537	3.043033	749.385515	8.886604	-24.791348	-0.062446	3.308224	1.185852
0.190	3.365221	3.041254	748.967214	9.222105	-24.835034	-0.076104	3.315904	1.231310
0.200	3.195243	3.100800	748.776977	9.530938	-24.896090	-0.088738	3.324901	1.272867
0.210	3.038456	3.231847	748.845764	9.817857	-24.981172	-0.096919	3.335957	1.311065
0.220	2.925867	3.433800	749.170965	10.089990	-25.095057	-0.099137	3.349710	1.346821
0.230	2.881253	3.694325	749.709812	10.355547	-25.238947	-0.096001	3.366495	1.381274
0.240	2.914532	3.989974	750.385204	10.621928	-25.409947	-0.089724	3.386254	1.415530
0.250	3.018858	4.289571	751.102762	10.894024	-25.601767	-0.083167	3.408557	1.450404
0.260	3.172418	4.560229	751.772462	11.173358	-25.806238	-0.078881	3.432719	1.486269
0.270	3.344264	4.774480	752.327001	11.458250	-26.015146	-0.078478	3.457957	1.523041
0.280	3.502052	4.916248	752.731591	11.744647	-26.222021	-0.082530	3.483582	1.560270
0.290	3.619085	4.983737	752.983383	12.027089	-26.423540	-0.090911	3.509180	1.597258
0.300	3.678845	4.988470	753.101990	12.299439	-26.620229	-0.103277	3.534744	1.633170
0.310	3.676599	4.951253	753.115138	12.555369	-26.816100	-0.119335	3.560691	1.667125
0.320	3.618579	4.896925	753.044583	12.788808	-27.017125	-0.138737	3.587719	1.698280
0.330	3.519438	4.849822	752.897222	12.994709	-27.228911	-0.160757	3.616551	1.725961
0.340	3.398670	4.830961	752.664684	13.170256	-27.454390	-0.184065	3.647626	1.749817
0.350	3.276900	4.856534	752.331690	13.316196	-27.692516	-0.206864	3.680892	1.769990
0.360	3.172894	4.936589	751.889594	13.437591	-27.938679	-0.227436	3.715795	1.787176
0.370	3.101838	5.073216	751.348992	13.543389	-28.186776	-0.244797	3.751489	1.802543
0.380	3.074964	5.258977	750.745851	13.644768	-28.431961	-0.259031	3.787162	1.817495
0.390	3.100194	5.477310	750.138746	13.752761	-28.672724	-0.271093	3.822323	1.833362
0.400	3.182780	5.706010	749.598233	13.875820	-28.911392	-0.282164	3.856918	1.851101
0.410	3.324693	5.923012	749.191082	14.017952	-29.153050	-0.292942	3.891270	1.871078
0.420	3.522431	6.112037	748.962938	14.177862	-29.403586	-0.303195	3.925907	1.892999
0.430	3.764665	6.265686	748.924726	14.349283	-29.667808	-0.311773	3.961387	1.915985
0.440	4.032160	6.385079	749.049816	14.522250	-29.948380	-0.317043	3.998183	1.938756
0.450	4.301403	6.476827	749.286735	14.684722	-30.245913	-0.317570	4.036627	1.959827
0.460	4.550939	6.548851	749.584362	14.823974	-30.560045	-0.312709	4.076932	1.977626
0.470	4.767540	6.606320	749.917775	14.927455	-30.890927	-0.302877	4.119242	1.990546
0.480	4.949359	6.648483	750.300366	14.983114	-31.240383	-0.289426	4.163717	1.996949
0.490	5.105140	6.667175	750.774706	14.979422	-31.612169	-0.274222	4.210607	1.995195
0.500	5.250672	6.647707	751.386170	14.905359	-32.011224	-0.259149	4.260289	1.983715
0.510	5.404447	6.572234	752.151905	14.750751	-32.442147	-0.245718	4.313244	1.961140
0.520	5.583847	6.424603	753.038901	14.507333	-32.907259	-0.234851	4.369928	1.926505
0.530	5.802044	6.194919	753.959344	14.170598	-33.404548	-0.226881	4.430550	1.879491
0.540	6.065335	5.882188	754.783225	13.742015	-33.926013	-0.221761	4.494802	1.820657
0.550	6.370778	5.494399	755.362103	13.230672	-34.457168	-0.219411	4.561676	1.751567
0.560	6.704678	5.046663	755.557012	12.653281	-34.978508	-0.220062	4.629499	1.674696
0.570	7.043147	4.558774	755.265854	12.032045	-35.469012	-0.224387	4.696229	1.593087
0.580	7.356025	4.053281	754.447112	11.390932	-35.910877	-0.233300	4.759893	1.509838
0.590	7.614307	3.554193	753.135187	10.751748	-36.293878	-0.247495	4.819039	1.427599
0.600	7.799162	3.085634	751.441133	10.131401	-36.617757	-0.266950	4.873004	1.348263
0.610	7.909078	2.669582	749.535172	9.541055	-36.891704	-0.290710	4.921944	1.272930
0.620	7.961812	2.322348	747.614095	8.986936	-37.131094	-0.317108	4.966612	1.202082
0.630	7.989830	2.050437	745.862906	8.471909	-37.352723	-0.344352	5.007988	1.135853
0.640	8.030497	1.847261	744.422222	7.996853	-37.570261	-0.371199	5.046902	1.074236
0.650	8.114466	1.692447	743.370764	7.561330	-37.791511	-0.397397	5.083804	1.017168
0.660	8.256515	1.554680	742.726800	7.163432	-38.018171	-0.423711	5.118729	0.964477
0.670	8.452329	1.397651	742.465281	6.799033	-38.247624	-0.451526	5.151436	0.915737
0.680	8.682299	1.187650	742.541666	6.460797	-38.475498	-0.482116	5.181594	0.870092
0.690	8.920302	0.900948	742.911861	6.137552	-38.697701	-0.515829	5.208922	0.826148
0.700	9.143139	0.529172	743.541311	5.814790	-38.911471	-0.551514	5.233263	0.782040
0.710	9.336428	0.081304	744.403086	5.476824	-39.115645	-0.586479	5.254632	0.735734
0.720	9.495080	-0.418210	745.470728	5.110481	-39.310591	-0.617083	5.273257	0.685537
0.730	9.619323	-0.934627	746.713080	4.709295	-39.498092	-0.639756	5.289594	0.630670
0.740	9.709192	-1.429947	748.094964	4.276578	-39.681308	-0.652076	5.304314	0.571662
0.750	9.760829	-1.870262	749.582453	3.825756	-39.864877	-0.653450	5.318278	0.510385
0.760	9.766912	-2.231905	751.147996	3.377245	-40.055139	-0.645132	5.332523	0.449611
0.770	9.721384	-2.505108	752.770678	2.952604	-40.260229	-0.629615	5.348273	0.392231
0.780	9.626429	-2.694693	754.429823	2.568019	-40.489567	-0.609725	5.366910	0.340392
0.790	9.498132	-2.818267	756.093621	2.229712	-40.752284	-0.587804	5.389846	0.294899
0.800	9.366976	-2.902548	757.706729	1.933167	-41.054601	-0.565310	5.418271	0.255134
0.810	9.270876	-2.977826	759.181958	1.666510	-41.396836	-0.542957	5.452821	0.219514
0.820	9.242102	-3.070604	760.401719	1.416644	-41.771309	-0.521209	5.493321	0.186302
0.830	9.293955	-3.195546	761.232785	1.175678	-42.162461	-0.500747	5.538708	0.154444
0.840	9.415041	-3.349241	761.551809	0.945158	-42.549723	-0.482595	5.587239	0.124109
0.850	9.575826	-3.508537	761.272125	0.736612	-42.912289	-0.467869	5.636918	0.096761
0.860	9.744865	-3.635156	760.360981	0.568444	-43.233937	-0.457406	5.685975	0.074760
0.870	9.905654	-3.686197	758.841575	0.460604	-43.505882	-0.451440	5.733197	0.060698
0.880	10.064482	-3.627774	756.781525	0.428969	-43.726700	-0.449422	5.777982	0.056683
0.890	10.245406	-3.447243	754.274375	0.481019	-43.899708	-0.450002	5.820124	0.063772
0.900	10.476156	-3.159246	751.422580	0.613728	-44.029282	-0.451236	5.859457	0.081675
0.910	10.772944	-2.802733	748.328721	0.813962	-44.117773	-0.451009	5.895507	0.108771
0.920	11.131138	-2.429467	745.096545	1.061202	-44.164156	-0.447564	5.927307	0.142425
0.930	11.524608	-2.087962	741.837502	1.331809	-44.164669	-0.439970	5.953416	0.179528
0.940	11.912661	-1.809019	738.676108	1.603601	-44.114843	-0.428397	5.972150	0.217091
0.950	12.251272	-1.598661	735.749965	1.859340	-44.011888	-0.414098	5.981908	0.252714
0.960	12.504454	-1.441103	733.204120	2.088249	-43.856427	-0.399067	5.981476	0.284811
0.970	12.651811	-1.309601	731.181433	2.285512	-43.653013	-0.385363	5.970203	0.312578
0.980	12.689489	-1.179454	729.811284	2.450409	-43.409410	-0.374308	5.948032	0.335759
0.990	12.624341	-1.037109	729.199610	2.583870	-43.135075	-0.365879	5.915400	0.354343
1.000	12.464114	-0.882451	729.422507	2.686057	-42.839438	-0.358663	5.873062	0.368244
1.010	12.208608	-0.725417	730.522881	2.754480	-42.530579	-0.350479	5.821937	0.377056
1.020	11.846549	-0.580654	732.506971	2.783169	-42.214649	-0.339370	5.763037	0.379951
1.030	11.360364	-0.463527	735.337964	2.763337	-41.896125	-0.324534	5.697533	0.375791
1.040	10.737284	-0.388322	738.927242	2.685623	-41.578743	-0.306787	5.626906	0.363449
1.050	9.982039	-0.367197	743.127136	2.543404	-41.266699	-0.288404	5.553114	0.342257
1.060	9.125310	-0.408159	747.730069	2.336044	-40.965530	-0.272437	5.478652	0.312418
1.070	8.223631	-0.511857	752.477694	2.070732	-40.681987	-0.261788	5.406404	0.275188
1.080	7.349813	-0.668816	757.081624	1.761961	-40.422536	-0.258411	5.339257	0.232731
1.090	6.576505	-0.859453	761.254427	1.428635	-40.190900	-0.262879	5.279562	0.187669
1.100	5.958178	-1.058381	764.745118	1.089675	-39.985783	-0.274363	5.228642	0.142489
1.110	5.517676	-1.242235	767.368833	0.759556	-39.800056	-0.290926	5.186561	0.098982
1.120	5.242212	-1.397831	769.020023	0.445200	-39.621974	-0.310019	5.152268	0.057892
1.130	5.090406	-1.526699	769.665247	0.145161	-39.438039	-0.329066	5.124051	0.018860
1.140	5.007721	-1.643686	769.322824	-0.148762	-39.236453	-0.345968	5.100129	-0.019337
1.150	4.944367	-1.770366	768.043927	-0.448051	-39.009984	-0.359385	5.079135	-0.058337
1.160	4.868879	-1.926312	765.906781	-0.763236	-38.757390	-0.368747	5.060327	-0.099651
1.170	4.772934	-2.121897	763.024759	-1.100132	-38.483215	-0.374050	5.043508	-0.144180
1.180	4.667259	-2.355026	759.559191	-1.457716	-38.196432	-0.375616	5.028763	-0.191916
1.190	4.572292	-2.612150	755.725011	-1.828153	-37.908728	-0.373944	5.016207	-0.241907
1.200	4.508609	-2.872467	751.781775	-2.198716	-37.633051	-0.369723	5.005848	-0.292467
1.210	4.490597	-3.113658	748.009402	-2.554740	-37.382512	-0.363913	4.997599	-0.341538
1.220	4.524058	-3.317619	744.674019	-2.882716	-37.169269	-0.357684	4.991348	-0.387111
1.230	4.606276	-3.474745	741.993467	-3.172837	-37.003118	-0.352095	4.986987	-0.427610
1.240	4.726878	-3.585768	740.113530	-3.420603	-36.890072	-0.347578	4.984380	-0.462173
1.250	4.869071	-3.661007	739.102397	-3.627219	-36.831655	-0.343545	4.983295	-0.490760
1.260	5.012106	-3.717658	738.962629	-3.798628	-36.825473	-0.338424	4.983401	-0.514049
1.270	5.135798	-3.775927	739.651353	-3.943361	-36.866865	-0.330273	4.984357	-0.533138
1.280	5.226383	-3.854701	741.096154	-4.069819	-36.950684	-0.317815	4.985950	-0.549162
1.290	5.281192	-3.967346	743.198491	-4.183876	-37.072144	-0.301430	4.988189	-0.562955
1.300	5.309312	-4.118339	745.825758	-4.287692	-37.226312	-0.283533	4.991288	-0.574892
1.310	5.327377	-4.301711	748.801788	-4.380181	-37.406666	-0.268006	4.995536	-0.584959
1.320	5.352540	-4.502197	751.908248	-4.458827	-37.603780	-0.258847	5.001113	-0.593001
1.330	5.396137	-4.699223	754.904092	-4.521780	-37.805288	-0.258674	5.007959	-0.598987
1.340	5.460691	-4.872516	757.559924	-4.569035	-37.997765	-0.267792	5.015810	-0.603125
1.350	5.540959	-5.007267	759.695332	-4.602110	-38.170175	-0.284240	5.024406	-0.605784
1.360	5.628092	-5.096958	761.204925	-4.622671	-38.317443	-0.304687	5.033788	-0.607283
1.370	5.714992	-5.143144	762.063936	-4.631215	-38.442274	-0.325717	5.044495	-0.607720
1.380	5.800338	-5.152833	762.313200	-4.626678	-38.553974	-0.344929	5.057498	-0.606926
1.390	5.889203	-5.135069	762.030929	-4.607067	-38.664532	-0.361460	5.073880	-0.604577
1.400	5.990040	-5.098419	761.301705	-4.570532	-38.783621	-0.375890	5.094383	-0.600358
1.410	6.110018	-5.050070	760.192363	-4.516135	-38.914691	-0.389708	5.119058	-0.594078
1.420	6.251449	-4.995910	758.741859	-4.443806	-39.053672	-0.404627	5.147162	-0.585681
1.430	6.410923	-4.940399	756.967867	-4.353463	-39.190542	-0.421976	5.177306	-0.575119
1.440	6.581050	-4.885445	754.886500	-4.243925	-39.312783	-0.442285	5.207774	-0.562194
1.450	6.753726	-4.828527	752.535427	-4.112511	-39.409120	-0.465078	5.236846	-0.546487
1.460	6.923534	-4.761233	749.988944	-3.955887	-39.472116	-0.488835	5.263026	-0.527459
1.470	7.089816	-4.669579	747.358145	-3.771709	-39.498924	-0.511177	5.285140	-0.504672
1.480	7.256076	-4.536719	744.777123	-3.559988	-39.490352	-0.529373	5.302305	-0.477994
1.490	7.426407	-4.347427	742.382639	-3.323243	-39.449046	-0.541106	5.313843	-0.447646
1.500	7.600421	-4.092921	740.297270	-3.065382	-39.377856	-0.545185	5.319195	-0.414074
1.510	7.769486	-3.774526	738.623810	-2.790043	-39.279441	-0.541816	5.317922	-0.377735
1.520	7.916814	-3.405076	737.452252	-2.499461	-39.157583	-0.532322	5.309847	-0.338932
1.530	8.022174	-3.007617	736.872438	-2.194552	-39.019621	-0.518509	5.295302	-0.297820
1.540	8.069900	-2.611703	736.980290	-1.876188	-38.878473	-0.502007	5.275375	-0.254578
1.550	8.057373	-2.248291	737.867515	-1.547029	-38.752627	-0.483934	5.251976	-0.209662
1.560	8.000660	-1.944586	739.593607	-1.212992	-38.663386	-0.464976	5.227653	-0.164008
1.570	7.934377	-1.719997	742.149140	-0.883561	-38.629982	-0.445768	5.205151	-0.119054
1.580	7.904393	-1.583741	745.424969	-0.570611	-38.664116	-0.427259	5.186856	-0.076548
1.590	7.954581	-1.533896	749.200835	-0.286111	-38.765777	-0.410767	5.174284	-0.038189
1.600	8.111760	-1.557666	753.160573	-0.039632	-38.921804	-0.397658	5.167796	-0.005262
1.610	8.374538	-1.632944	756.932575	0.163429	-39.107752	-0.388833	5.166610	0.021591
1.620	8.710763	-1.731501	760.146505	0.322415	-39.292565	-0.384333	5.169078	0.042415
1.630	9.064992	-1.823699	762.493078	0.440796	-39.444795	-0.383255	5.173135	0.057810
1.640	9.373452	-1.883926	763.773661	0.524770	-39.538883	-0.383961	5.176780	0.068707
1.650	9.581234	-1.895498	763.929269	0.581736	-39.560088	-0.384390	5.178501	0.076150
1.660	9.656176	-1.853631	763.042949	0.619241	-39.506990	-0.382382	5.177558	0.081154
1.670	9.595678	-1.765625	761.315356	0.644581	-39.391049	-0.376046	5.174078	0.084667
1.680	9.425295	-1.648249	759.019311	0.664728	-39.233338	-0.364245	5.168951	0.087577
1.690	9.190137	-1.523032	756.443895	0.686092	-39.059190	-0.347140	5.163528	0.090700
1.700	8.941714	-1.410464	753.841144	0.713912	-38.891935	-0.326558	5.159169	0.094703
1.710	8.723926	-1.324422	751.388455	0.751500	-38.747261	-0.305867	5.156755	0.100015
1.720	8.562585	-1.268482	749.176364	0.799833	-38.629829	-0.289231	5.156306	0.106762
1.730	8.462196	-1.235449	747.223567	0.857928	-38.533199	-0.280443	5.156850	0.114815
1.740	8.411174	-1.210329	745.510837	0.924055	-38.443046	-0.281762	5.156605	0.123949
1.750	8.392670	-1.175676	744.017716	0.997240	-38.342343	-0.293201	5.153418	0.134034
1.760	8.395243	-1.117590	742.745450	1.078273	-38.216490	-0.312553	5.145301	0.145174
1.770	8.417614	-1.030584	741.717750	1.169709	-38.056470	-0.336151	5.130856	0.157703
1.780	8.464975	-0.919797	740.963289	1.274937	-37.859055	-0.360139	5.109437	0.172065
1.790	8.538943	-0.799605	740.493193	1.396889	-37.624360	-0.381807	5.080987	0.188643
1.800	8.626893	-0.688925	740.287423	1.536947	-37.352237	-0.400519	5.045640	0.207615
1.810	8.697003	-0.604950	740.297355	1.694193	-37.039546	-0.417816	5.003334	0.228853
1.820	8.702769	-0.557742	740.463803	1.864699	-36.679921	-0.436554	4.953641	0.251829
1.830	8.596489	-0.547568	740.744281	2.040771	-36.266515	-0.459269	4.895956	0.275503
1.840	8.347257	-0.565493	741.139663	2.210505	-35.796762	-0.486287	4.829962	0.298258
1.850	7.956446	-0.596489	741.708811	2.358411	-35.277115	-0.514409	4.756195	0.317970
1.860	7.463306	-0.623606	742.562567	2.467598	-34.725438	-0.536953	4.676433	0.332308
1.870	6.936261	-0.631778	743.835743	2.523361	-34.169462	-0.545521	4.593684	0.339236
1.880	6.451728	-0.610641	745.643721	2.517251	-33.641287	-0.532999	4.511711	0.337594
1.890	6.069057	-0.556767	748.036081	2.450227	-33.169707	-0.496577	4.434239	0.327555
1.900	5.812828	-0.475731	750.961746	2.333524	-32.773212	-0.439454	4.364165	0.310738
1.910	5.669884	-0.383437	754.257383	2.186502	-32.456221	-0.370403	4.303070	0.289888
1.920	5.600516	-0.305188	757.663394	2.031888	-32.209528	-0.301329	4.251166	0.268178
1.930	5.556643	-0.271434	760.863233	1.889958	-32.014145	-0.243778	4.207608	0.248397
1.940	5.498148	-0.310660	763.535745	1.773813	-31.846671	-0.205736	4.170947	0.232316
1.950	5.401600	-0.441491	765.407820	1.687438	-31.684394	-0.189896	4.139544	0.220463
1.960	5.260567	-0.666676	766.295696	1.626944	-31.509071	-0.193904	4.111868	0.212313
1.970	5.080679	-0.971182	766.127314	1.583966	-31.309031	-0.212249	4.086662	0.206750
1.980	4.873891	-1.325307	764.943800	1.549400	-31.079755	-0.238715	4.063011	0.202551
1.990	4.655043	-1.691922	762.882979	1.515928	-30.823107	-0.268320	4.040345	0.198710
2.000	4.441062	-2.035215	760.150303	1.478751	-30.545456	-0.298113	4.018344	0.194534
2.010	4.250684	-2.327721	756.983473	1.435074	-30.255019	-0.326920	3.996787	0.189578
2.020	4.102001	-2.553434	753.617703	1.383447	-29.959037	-0.354512	3.975363	0.183574
2.030	4.006819	-2.706843	750.258910	1.323888	-29.661493	-0.380677	3.953501	0.176458
2.040	3.963371	-2.789476	747.070074	1.258960	-29.361846	-0.404557	3.930267	0.168520
2.050	3.950947	-2.806274	744.171543	1.195205	-29.055021	-0.424507	3.904345	0.160609
2.060	3.930198	-2.763680	741.651535	1.143913	-28.732637	-0.438620	3.874142	0.154239
2.070	3.851433	-2.670057	739.580933	1.120191	-28.385381	-0.445729	3.838036	0.151463
2.080	3.670271	-2.537541	738.026440	1.139877	-28.006193	-0.446330	3.794741	0.154449
2.090	3.366235	-2.383700	737.057422	1.214850	-27.593525	-0.442747	3.743742	0.164824
2.100	2.956780	-2.231356	736.743934	1.348427	-27.153635	-0.438248	3.685627	0.183025
2.110	2.499013	-2.105529	737.146496	1.533042	-26.700897	-0.435476	3.622197	0.207970
2.120	2.075568	-2.027459	738.300880	1.751815	-26.255606	-0.435063	3.556220	0.237277
2.130	1.768313	-2.007143	740.202107	1.983900	-25.839638	-0.435272	3.490890	0.268021
2.140	1.629846	-2.037242	742.791352	2.211605	-25.471290	-0.432949	3.429131	0.297742
2.150	1.664205	-2.091656	745.948954	2.426313	-25.161056	-0.425326	3.373027	0.325265
2.160	1.823988	-2.130817	749.496831	2.630692	-24.909774	-0.411717	3.323533	0.350994
2.170	2.024154	-2.112971	753.212445	2.836351	-24.709686	-0.394207	3.280573	0.376567
2.180	2.166888	-2.007943	756.852829	3.057964	-24.547930	-0.377008	3.243422	0.404037
2.190	2.169415	-1.808448	760.182753	3.306278	-24.411066	-0.364882	3.211210	0.434932
2.200	1.986869	-1.534532	762.998897	3.582720	-24.288865	-0.361454	3.183342	0.469558
2.210	1.624107	-1.228953	765.143243	3.877597	-24.176011	-0.368170	3.159671	0.506780
2.220	1.133187	-0.944827	766.503918	4.172450	-24.071431	-0.384212	3.140419	0.544348
2.230	0.597450	-0.730025	767.008451	4.445532	-23.976059	-0.407179	3.125919	0.579594
2.240	0.107683	-0.614029	766.618719	4.678188	-23.890400	-0.434062	3.116334	0.610237
2.250	-0.261297	-0.601564	765.334469	4.859790	-23.813054	-0.462056	3.111457	0.634989
2.260	-0.466115	-0.674284	763.204266	4.989671	-23.740640	-0.488948	3.110654	0.653779
2.270	-0.498825	-0.798837	760.335830	5.075829	-23.668771	-0.513122	3.112936	0.667577
2.280	-0.380887	-0.937701	756.897516	5.131370	-23.593279	-0.533408	3.117104	0.677948
2.290	-0.151915	-1.059023	753.107931	5.170299	-23.511037	-0.549038	3.121868	0.686528
2.300	0.141764	-1.142935	749.215801	5.204121	-23.420142	-0.559776	3.125954	0.694609
2.310	0.455855	-1.183580	745.474713	5.240011	-23.319652	-0.566075	3.128161	0.702909
2.320	0.753940	-1.187311	742.118304	5.280488	-23.209263	-0.569048	3.127434	0.711543
2.330	1.011425	-1.168051	739.341345	5.324172	-23.089290	-0.570118	3.122954	0.720124
2.340	1.218006	-1.141167	737.289389	5.367226	-22.961105	-0.570389	3.114259	0.727967
2.350	1.377729	-1.117662	736.055371	5.405046	-22.827698	-0.569938	3.101356	0.734326
2.360	1.505154	-1.100725	735.679124	5.433806	-22.693650	-0.567349	3.084721	0.738611
