Time[s]	Fx[N]	Fy[N]	Fz[N]	Mx[Nm]	My[Nm]	Mz[Nm]	COPx[cm]	COPy[cm]
0.010	6.584079	-0.847777	709.742511	-17.082847	-21.145093	-0.245840	2.979263	-2.406908
0.020	6.836011	-0.822878	710.776979	-17.160855	-21.285528	-0.242801	2.994685	-2.414380
0.030	7.075429	-0.812937	711.844255	-17.242503	-21.437347	-0.240350	3.011522	-2.422230
0.040	7.289201	-0.829979	712.960505	-17.330185	-21.608310	-0.239122	3.030786	-2.430736
0.050	7.466003	-0.879589	714.114112	-17.423816	-21.801131	-0.239515	3.052892	-2.439920
0.060	7.599405	-0.959414	715.268751	-17.520243	-22.014180	-0.241513	3.077749	-2.449463
0.070	7.691703	-1.059474	716.372023	-17.613527	-22.243756	-0.244614	3.105056	-2.458712
0.080	7.756518	-1.164189	717.363260	-17.696086	-22.486327	-0.247931	3.134580	-2.466824
0.090	7.818109	-1.255652	718.178129	-17.760361	-22.739525	-0.250394	3.166279	-2.472974
0.100	7.906503	-1.317395	718.751584	-17.800534	-23.001668	-0.251007	3.200225	-2.476591
0.110	8.049411	-1.337955	719.021830	-17.813863	-23.270437	-0.249079	3.236402	-2.477513
0.120	8.263632	-1.313654	718.936743	-17.801288	-23.541677	-0.244386	3.274513	-2.476058
0.130	8.549366	-1.250128	718.462061	-17.767154	-23.809016	-0.237185	3.313886	-2.472943
0.140	8.889794	-1.162151	717.588721	-17.718121	-24.064523	-0.228079	3.353526	-2.469119
0.150	9.255975	-1.071404	716.336379	-17.661593	-24.300014	-0.217847	3.392263	-2.465545
0.160	9.614840	-1.002301	714.752072	-17.604110	-24.508350	-0.207306	3.428930	-2.462967
0.170	9.937305	-0.976499	712.905347	-17.550125	-24.684170	-0.197218	3.462475	-2.461775
0.180	10.204167	-1.007201	710.881990	-17.501446	-24.823915	-0.188151	3.491988	-2.461934
0.190	10.408581	-1.094776	708.777786	-17.457353	-24.925418	-0.180298	3.516676	-2.463022
0.200	10.554979	-1.225204	706.692953	-17.415257	-24.987469	-0.173429	3.535831	-2.464331
0.210	10.655060	-1.372230	704.727388	-17.371559	-25.009596	-0.167098	3.548833	-2.465004
0.220	10.722157	-1.502841	702.976437	-17.322432	-24.991995	-0.161019	3.555168	-2.464155
0.230	10.765663	-1.584401	701.526734	-17.264375	-24.935473	-0.155309	3.554458	-2.460972
0.240	10.787365	-1.591242	700.451720	-17.194668	-24.841342	-0.150322	3.546475	-2.454797
0.250	10.780965	-1.509104	699.806516	-17.111912	-24.711211	-0.146072	3.531149	-2.445235
0.260	10.734952	-1.337190	699.622092	-17.016625	-24.546584	-0.141610	3.508549	-2.432260
0.270	10.637477	-1.088447	699.899270	-16.911597	-24.348243	-0.134818	3.478821	-2.416290
0.280	10.480764	-0.788632	700.603927	-16.801665	-24.115535	-0.122955	3.442107	-2.398169
0.290	10.262541	-0.473955	701.665460	-16.692838	-23.845843	-0.103837	3.398463	-2.379031
0.300	9.983632	-0.186586	702.980743	-16.591023	-23.534530	-0.077170	3.347820	-2.360096
0.310	9.643530	0.032470	704.424541	-16.500703	-23.175547	-0.045454	3.289997	-2.342437
0.320	9.237574	0.152212	705.864973	-16.423839	-22.762682	-0.013951	3.224793	-2.326768
0.330	8.758435	0.159628	707.181285	-16.359274	-22.291214	0.010389	3.152122	-2.313307
0.340	8.201576	0.063651	708.281749	-16.303061	-21.759723	0.020791	3.072185	-2.301776
0.350	7.571617	-0.106859	709.120333	-16.249936	-21.171805	0.012628	2.985643	-2.291563
0.360	6.886165	-0.310684	709.709723	-16.195638	-20.537378	-0.015214	2.893772	-2.282009
0.370	6.175292	-0.504835	710.126234	-16.139205	-19.873192	-0.060079	2.798544	-2.272723
0.380	5.477081	-0.654678	710.501817	-16.084342	-19.202200	-0.116459	2.702625	-2.263800
0.390	4.831157	-0.740615	711.001053	-16.039273	-18.551594	-0.177682	2.609222	-2.255872
0.400	4.272308	-0.760109	711.785730	-16.014952	-17.949486	-0.237727	2.521754	-2.249968
0.410	3.825396	-0.725724	712.973798	-16.022055	-17.420574	-0.292593	2.443368	-2.247215
0.420	3.501775	-0.660693	714.602216	-16.067638	-16.981653	-0.340857	2.376378	-2.248473
0.430	3.297230	-0.593086	716.604687	-16.152602	-16.638212	-0.383364	2.321812	-2.254046
0.440	3.192114	-0.549259	718.814074	-16.270863	-16.383426	-0.422255	2.279230	-2.263570
0.450	3.154779	-0.547657	720.992936	-16.410502	-16.200251	-0.459735	2.246936	-2.276097
0.460	3.148723	-0.594645	722.885114	-16.556451	-16.066202	-0.497088	2.222511	-2.290330
0.470	3.142085	-0.683880	724.272054	-16.693783	-15.959359	-0.534316	2.203503	-2.304905
0.480	3.116506	-0.799432	725.015344	-16.810409	-15.863641	-0.570473	2.188042	-2.318628
0.490	3.072101	-0.921126	725.073275	-16.898345	-15.771726	-0.604350	2.175191	-2.330571
0.500	3.026636	-1.029779	724.490577	-16.953423	-15.684944	-0.635042	2.164962	-2.340047
0.510	3.009097	-1.110615	723.370461	-16.974119	-15.610564	-0.662069	2.158032	-2.346532
0.520	3.049784	-1.154654	721.841608	-16.960412	-15.557749	-0.685074	2.155286	-2.349603
0.530	3.170179	-1.158849	720.029915	-16.913368	-15.533618	-0.703403	2.157357	-2.348981
0.540	3.375803	-1.125735	718.040016	-16.835498	-15.540511	-0.715909	2.164296	-2.344646
0.550	3.654074	-1.062844	715.948000	-16.731499	-15.574924	-0.721213	2.175427	-2.336971
0.560	3.977320	-0.981665	713.804553	-16.608590	-15.627991	-0.718329	2.189394	-2.326770
0.570	4.309446	-0.895878	711.645934	-16.475815	-15.686994	-0.707349	2.204326	-2.315170
0.580	4.613751	-0.819014	709.508508	-16.342161	-15.737313	-0.689817	2.218058	-2.303307
0.590	4.859539	-0.762110	707.441679	-16.214086	-15.764477	-0.668599	2.228378	-2.291933
0.600	5.026255	-0.731889	705.514885	-16.093443	-15.756132	-0.647297	2.233281	-2.281092
0.610	5.105127	-0.729617	703.816768	-15.976710	-15.703838	-0.629378	2.231240	-2.270010
0.620	5.099009	-0.750710	702.447167	-15.855986	-15.604466	-0.617310	2.221443	-2.257250
0.630	5.020987	-0.785174	701.504163	-15.721629	-15.460980	-0.611909	2.203975	-2.241131
0.640	4.891985	-0.818976	701.068907	-15.565780	-15.282335	-0.612081	2.179862	-2.220292
0.650	4.737386	-0.836326	701.191397	-15.385477	-15.082207	-0.615000	2.150940	-2.194191
0.660	4.582753	-0.822692	701.880881	-15.183992	-14.876443	-0.616738	2.119511	-2.163329
0.670	4.449020	-0.768021	703.103280	-14.969725	-14.679677	-0.613245	2.087841	-2.129093
0.680	4.348060	-0.669159	704.784674	-14.753073	-14.502064	-0.601457	2.057659	-2.093274
0.690	4.279960	-0.530544	706.817661	-14.542598	-14.347265	-0.580168	2.029840	-2.057475
0.700	4.233331	-0.362901	709.068600	-14.342011	-14.212339	-0.550425	2.004367	-2.022655
0.710	4.189078	-0.180667	711.386143	-14.149115	-14.089474	-0.515334	1.980566	-1.988950
0.720	4.126754	0.000824	713.611690	-13.957014	-13.968913	-0.479402	1.957495	-1.955828
0.730	4.031517	0.167648	715.591299	-13.757011	-13.842057	-0.447603	1.934352	-1.922468
0.740	3.899262	0.308978	717.188475	-13.542061	-13.703839	-0.424361	1.910772	-1.888215
0.750	3.738138	0.418200	718.297922	-13.309487	-13.553733	-0.412647	1.886924	-1.852920
0.760	3.566002	0.493508	718.859243	-13.062099	-13.395212	-0.413373	1.863399	-1.817059
0.770	3.404882	0.537914	718.866584	-12.807454	-13.233889	-0.425267	1.840938	-1.781618
0.780	3.274420	0.558616	718.368391	-12.555671	-13.075004	-0.445309	1.820097	-1.747804
0.790	3.186376	0.565564	717.454007	-12.316691	-12.921260	-0.469614	1.800988	-1.716722
0.800	3.141901	0.569428	716.230473	-12.098034	-12.771816	-0.494440	1.783199	-1.689126
0.810	3.132510	0.579704	714.799174	-11.903771	-12.622802	-0.516905	1.765923	-1.665331
0.820	3.144385	0.603948	713.242814	-11.734690	-12.469032	-0.535192	1.748217	-1.645259
0.830	3.164083	0.648389	711.627123	-11.589065	-12.306066	-0.548321	1.729286	-1.628530
0.840	3.182937	0.719081	710.012250	-11.463391	-12.131668	-0.555836	1.708656	-1.614534
0.850	3.197830	0.822099	708.463115	-11.352841	-11.945937	-0.557704	1.686176	-1.602460
0.860	3.207812	0.961809	707.050579	-11.251662	-11.750084	-0.554467	1.661845	-1.591352
0.870	3.208285	1.137698	705.843377	-11.153836	-11.544543	-0.547472	1.635567	-1.580214
0.880	3.186226	1.341613	704.897033	-11.054112	-11.327429	-0.538934	1.606962	-1.568188
0.890	3.119557	1.557430	704.246445	-10.949216	-11.094171	-0.531669	1.575325	-1.554742
0.900	2.981719	1.763950	703.905369	-10.838871	-10.838649	-0.528513	1.539788	-1.539819
0.910	2.749989	1.940116	703.871955	-10.726251	-10.555508	-0.531540	1.499635	-1.523892
0.920	2.414634	2.070478	704.137121	-10.617663	-10.242867	-0.541301	1.454669	-1.507897
0.930	1.985794	2.148834	704.692393	-10.521492	-9.904470	-0.556268	1.405503	-1.493062
0.940	1.495435	2.178835	705.534460	-10.446621	-9.550426	-0.572705	1.353644	-1.480668
0.950	0.992557	2.171468	706.664067	-10.400573	-9.195991	-0.585187	1.301324	-1.471785
0.960	0.531689	2.140551	708.078272	-10.387692	-8.858457	-0.587880	1.251056	-1.467026
0.970	0.157584	2.098080	709.758423	-10.407754	-8.553124	-0.576345	1.205075	-1.466380
0.980	-0.108366	2.051068	711.659531	-10.455415	-8.289954	-0.549233	1.164876	-1.469160
0.990	-0.274094	2.000564	713.706631	-10.520710	-8.072336	-0.509113	1.131044	-1.474094
1.000	-0.372048	1.942681	715.800099	-10.590581	-7.898366	-0.461975	1.103432	-1.479544
1.010	-0.445279	1.871214	717.826784	-10.651159	-7.763718	-0.415517	1.081559	-1.483806
1.020	-0.530400	1.781351	719.671088	-10.690353	-7.664405	-0.376859	1.064987	-1.485450
1.030	-0.644802	1.673485	721.221983	-10.700080	-7.598024	-0.350511	1.053493	-1.483604
1.040	-0.783088	1.555575	722.377270	-10.677448	-7.563254	-0.337295	1.046995	-1.478099
1.050	-0.923029	1.442658	723.050341	-10.624533	-7.558569	-0.334505	1.045372	-1.469404
1.060	-1.037005	1.353304	723.183518	-10.546946	-7.581554	-0.337162	1.048358	-1.458405
1.070	-1.102804	1.304150	722.766456	-10.451856	-7.629679	-0.339893	1.055622	-1.446090
1.080	-1.108901	1.304405	721.852337	-10.346186	-7.702301	-0.338720	1.067019	-1.433283
1.090	-1.052799	1.352120	720.562294	-10.235378	-7.802723	-0.332110	1.082866	-1.420471
1.100	-0.934967	1.433445	719.070883	-10.122848	-7.938855	-0.321003	1.104043	-1.407768
1.110	-0.753145	1.525409	717.571999	-10.009989	-8.121580	-0.308028	1.131814	-1.394980
1.120	-0.501201	1.601812	716.233341	-9.896595	-8.361068	-0.296344	1.167367	-1.381756
1.130	-0.173631	1.640806	715.154524	-9.781485	-8.662392	-0.288612	1.211262	-1.367744
1.140	0.227061	1.631845	714.345321	-9.663162	-9.022394	-0.286359	1.263030	-1.352730
1.150	0.685019	1.579485	713.734158	-9.540418	-9.429307	-0.289823	1.321123	-1.336691
1.160	1.171669	1.502339	713.204547	-9.412715	-9.865417	-0.298205	1.383252	-1.319778
1.170	1.653084	1.427302	712.644414	-9.280303	-10.311734	-0.310159	1.446968	-1.302235
1.180	2.101119	1.381135	711.987934	-9.144135	-10.752887	-0.324311	1.510263	-1.284310
1.190	2.503196	1.382499	711.235353	-9.005774	-11.180518	-0.339661	1.571986	-1.266216
1.200	2.865990	1.437060	710.448114	-8.867388	-11.594147	-0.355761	1.631948	-1.248140
1.210	3.211157	1.536925	709.725820	-8.731816	-11.999487	-0.372684	1.690721	-1.230308
1.220	3.564987	1.664077	709.174449	-8.602571	-12.405092	-0.390832	1.749230	-1.213040
1.230	3.946437	1.796185	708.874885	-8.483645	-12.818680	-0.410647	1.808314	-1.196776
1.240	4.358607	1.912593	708.860170	-8.378989	-13.244389	-0.432330	1.868406	-1.182037
1.250	4.787371	1.998704	709.107862	-8.291716	-13.681690	-0.455693	1.929423	-1.169317
1.260	5.207808	2.047945	709.548775	-8.223303	-14.125954	-0.480165	1.990836	-1.158948
1.270	5.595390	2.061515	710.087117	-8.173249	-14.570110	-0.504871	2.051876	-1.151021
1.280	5.936431	2.046490	710.623869	-8.139404	-15.006561	-0.528685	2.111745	-1.145389
1.290	6.232829	2.012911	711.076583	-8.118862	-15.428658	-0.550296	2.169760	-1.141770
1.300	6.499395	1.970578	711.391610	-8.109014	-15.831330	-0.568363	2.225403	-1.139880
1.310	6.755769	1.926584	711.546415	-8.108479	-16.210796	-0.581749	2.278249	-1.139557
1.320	7.016892	1.884484	711.541301	-8.117799	-16.563620	-0.589686	2.327851	-1.140875
1.330	7.285894	1.845073	711.383723	-8.139807	-16.885638	-0.591770	2.373633	-1.144222
1.340	7.551783	1.807828	711.073122	-8.179402	-17.171379	-0.587846	2.414854	-1.150290
1.350	7.792472	1.771807	710.595546	-8.242450	-17.414447	-0.577967	2.450683	-1.159935
1.360	7.981948	1.735515	709.932760	-8.333916	-17.608864	-0.562578	2.480357	-1.173902
1.370	8.099101	1.696144	709.081908	-8.455767	-17.750867	-0.542808	2.503359	-1.192495
1.380	8.135206	1.649071	708.074562	-8.605454	-17.840366	-0.520630	2.519560	-1.215332
1.390	8.097319	1.588334	706.983468	-8.775545	-17.881320	-0.498600	2.529242	-1.241266
1.400	8.006073	1.508481	705.912205	-8.954735	-17.880802	-0.479195	2.533006	-1.268534
1.410	7.888508	1.407552	704.972501	-9.129966	-17.847145	-0.464019	2.531609	-1.295081
1.420	7.768667	1.290077	704.260170	-9.289048	-17.787976	-0.453291	2.525768	-1.318980
1.430	7.659621	1.168260	703.840073	-9.422924	-17.708939	-0.445869	2.516046	-1.338788
1.440	7.559916	1.059933	703.744045	-9.526837	-17.613533	-0.439829	2.502832	-1.353736
1.450	7.455627	0.983575	703.977949	-9.600194	-17.503838	-0.433311	2.486419	-1.363707
1.460	7.327052	0.952441	704.530255	-9.645409	-17.381396	-0.425258	2.467090	-1.369055
1.470	7.157159	0.970240	705.376334	-9.666353	-17.247573	-0.415738	2.445159	-1.370382
1.480	6.938193	1.029951	706.477275	-9.666989	-17.103299	-0.405783	2.420927	-1.368337
1.490	6.673831	1.116048	707.775985	-9.650599	-16.948630	-0.396861	2.394632	-1.363510
1.500	6.376762	1.209274	709.195181	-9.619690	-16.782686	-0.390225	2.366441	-1.356423
1.510	6.063841	1.292361	710.641490	-9.576276	-16.604309	-0.386416	2.336524	-1.347554
1.520	5.751677	1.354678	712.017527	-9.522005	-16.413300	-0.385074	2.305182	-1.337327
1.530	5.454419	1.394186	713.239724	-9.457781	-16.211688	-0.385075	2.272965	-1.326031
1.540	5.183669	1.416328	714.255542	-9.383097	-16.004400	-0.384906	2.240711	-1.313689
1.550	4.949318	1.430932	715.051989	-9.295695	-15.798900	-0.383114	2.209476	-1.300003
1.560	4.760065	1.448910	715.650170	-9.192100	-15.603854	-0.378740	2.180375	-1.284440
1.570	4.622955	1.479949	716.086964	-9.068975	-15.427204	-0.371636	2.154376	-1.266463
1.580	4.541694	1.531223	716.391439	-8.924865	-15.274222	-0.362551	2.132106	-1.245808
1.590	4.514153	1.606505	716.566796	-8.761687	-15.146252	-0.352915	2.113725	-1.222731
1.600	4.530382	1.705226	716.586589	-8.585474	-15.040689	-0.344352	2.098935	-1.198107
1.610	4.573008	1.821705	716.407603	-8.406104	-14.952240	-0.338146	2.087113	-1.173369
1.620	4.621036	1.945302	715.994009	-8.235992	-14.875011	-0.334897	2.077533	-1.150288
1.630	4.656013	2.062001	715.342241	-8.087976	-14.804676	-0.334503	2.069593	-1.130644
1.640	4.667719	2.157123	714.496061	-7.972846	-14.740005	-0.336405	2.062993	-1.115870
1.650	4.656506	2.218293	713.545595	-7.897176	-14.683245	-0.339931	2.057787	-1.106751
1.660	4.631227	2.237730	712.609614	-7.862225	-14.639164	-0.344579	2.054303	-1.103300
1.670	4.604085	2.213143	711.805344	-7.864362	-14.613063	-0.350124	2.052958	-1.104847
1.680	4.584923	2.146871	711.215317	-7.896896	-14.608550	-0.356551	2.054026	-1.110338
1.690	4.577298	2.043682	710.864400	-7.952665	-14.625919	-0.363922	2.057484	-1.118732
1.700	4.577484	1.908472	710.717691	-8.026467	-14.661712	-0.372303	2.062945	-1.129347
1.710	4.576352	1.745165	710.700347	-8.116504	-14.709426	-0.381823	2.069709	-1.142043
1.720	4.563156	1.557125	710.729259	-8.224389	-14.760906	-0.392794	2.076868	-1.157176
1.730	4.529784	1.348344	710.741311	-8.353879	-14.807891	-0.405771	2.083443	-1.175375
1.740	4.474029	1.124421	710.706771	-8.508982	-14.843378	-0.421423	2.088538	-1.197256
1.750	4.400715	0.892949	710.625795	-8.692221	-14.862624	-0.440171	2.091484	-1.223178
1.760	4.320199	0.663462	710.514743	-8.903553	-14.863670	-0.461738	2.091958	-1.253113
1.770	4.244832	0.446946	710.392726	-9.140110	-14.847310	-0.484855	2.090014	-1.286628
1.780	4.184923	0.254597	710.276317	-9.396633	-14.816637	-0.507368	2.086038	-1.322955
1.790	4.146086	0.095568	710.183481	-9.666250	-14.776365	-0.526752	2.080640	-1.361092
1.800	4.129076	-0.025836	710.140690	-9.941089	-14.732152	-0.540819	2.074540	-1.399876
1.810	4.131712	-0.112247	710.185040	-10.212409	-14.690006	-0.548305	2.068476	-1.437993
1.820	4.151344	-0.173209	710.357186	-10.470435	-14.655754	-0.549165	2.063153	-1.473968
1.830	4.186421	-0.222571	710.687367	-10.704558	-14.634451	-0.544552	2.059197	-1.506226
1.840	4.236371	-0.274180	711.180712	-10.904453	-14.629516	-0.536543	2.057074	-1.533289
1.850	4.299902	-0.337736	711.808092	-11.062100	-14.641679	-0.527660	2.056970	-1.554085
1.860	4.372589	-0.416628	712.506399	-11.173976	-14.668154	-0.520261	2.058670	-1.568263
1.870	4.445350	-0.508544	713.188898	-11.242369	-14.702720	-0.515965	2.061546	-1.576352
1.880	4.505341	-0.608066	713.763322	-11.275100	-14.737054	-0.515290	2.064698	-1.579669
1.890	4.539647	-0.709374	714.153527	-11.283607	-14.763078	-0.517592	2.067213	-1.579997
1.900	4.540463	-0.807391	714.319113	-11.279969	-14.775478	-0.521269	2.068470	-1.579122
1.910	4.509364	-0.897028	714.266077	-11.273784	-14.773457	-0.524181	2.068341	-1.578373
1.920	4.458418	-0.971724	714.042678	-11.269858	-14.761022	-0.524238	2.067246	-1.578317
1.930	4.407172	-1.022925	713.720579	-11.267417	-14.745641	-0.520053	2.066024	-1.578687
1.940	4.376411	-1.041059	713.369086	-11.261121	-14.735653	-0.511386	2.065642	-1.578583
1.950	4.381007	-1.017173	713.033738	-11.243482	-14.737358	-0.499121	2.066853	-1.576851
1.960	4.424502	-0.944128	712.727248	-11.207637	-14.752891	-0.484747	2.069921	-1.572500
1.970	4.497188	-0.817244	712.433880	-11.149204	-14.779657	-0.469644	2.074530	-1.564946
1.980	4.578204	-0.635125	712.122998	-11.066501	-14.811402	-0.454597	2.079894	-1.554015
1.990	4.641047	-0.401099	711.765776	-10.959475	-14.840398	-0.439713	2.085011	-1.539759
2.000	4.661147	-0.124710	711.349597	-10.828476	-14.859949	-0.424677	2.088980	-1.522244
2.010	4.623483	0.177917	710.886161	-10.673824	-14.866405	-0.409120	2.091250	-1.501481
2.020	4.527881	0.485559	710.411342	-10.496445	-14.860024	-0.392874	2.091749	-1.477516
2.030	4.389912	0.774827	709.977166	-10.299169	-14.844491	-0.376087	2.090841	-1.450634
2.040	4.236598	1.023455	709.638319	-10.087952	-14.825373	-0.359218	2.089145	-1.421562
2.050	4.098074	1.212953	709.437408	-9.872246	-14.808150	-0.343012	2.087309	-1.391560
2.060	3.998086	1.330450	709.394227	-9.664076	-14.796521	-0.328440	2.085797	-1.362300
2.070	3.946952	1.370013	709.503212	-9.475929	-14.791511	-0.316585	2.084770	-1.335572
2.080	3.939767	1.333728	709.739630	-9.318091	-14.791608	-0.308468	2.084089	-1.312889
2.090	3.960541	1.232425	710.070705	-9.196377	-14.793785	-0.304864	2.083424	-1.295135
2.100	3.990313	1.085475	710.465887	-9.111090	-14.795001	-0.306169	2.082437	-1.282411
2.110	4.015466	0.918871	710.902112	-9.057555	-14.793603	-0.312317	2.080962	-1.274093
2.120	4.032606	0.761186	711.363190	-9.027979	-14.789949	-0.322744	2.079100	-1.269110
2.130	4.048298	0.638040	711.834562	-9.013961	-14.785906	-0.336447	2.077155	-1.266300
2.140	4.074307	0.566731	712.295764	-9.008879	-14.783367	-0.352144	2.075453	-1.264767
2.150	4.120658	0.552860	712.714090	-9.009474	-14.782565	-0.368504	2.074123	-1.264108
2.160	4.189250	0.590083	713.043321	-9.016114	-14.781103	-0.384390	2.072960	-1.264455
2.170	4.270478	0.663010	713.229618	-9.031524	-14.774244	-0.399064	2.071457	-1.266286
2.180	4.344384	0.752287	713.223681	-9.058393	-14.756339	-0.412305	2.068964	-1.270063
2.190	4.386289	0.840113	712.995799	-9.096914	-14.722719	-0.424399	2.064910	-1.275872
2.200	4.375031	0.914134	712.549121	-9.143522	-14.671333	-0.436001	2.058992	-1.283213
2.210	4.300690	0.968433	711.926619	-9.191507	-14.603588	-0.447925	2.051277	-1.291075
2.220	4.168742	1.001882	711.208687	-9.233207	-14.524178	-0.460881	2.042182	-1.298242
2.230	3.999012	1.015537	710.500723	-9.262720	-14.439904	-0.475214	2.032356	-1.303689
2.240	3.819820	1.010901	709.912676	-9.278020	-14.357818	-0.490702	2.022477	-1.306924
2.250	3.659488	0.989751	709.535182	-9.281692	-14.283273	-0.506509	2.013046	-1.308137
2.260	3.538217	0.954909	709.418682	-9.280146	-14.218642	-0.521343	2.004267	-1.308134
2.270	3.463074	0.910804	709.562042	-9.281738	-14.163249	-0.533777	1.996055	-1.308094
2.280	3.427630	0.862970	709.915537	-9.294609	-14.114485	-0.542662	1.988192	-1.309256
2.290	3.415914	0.816325	710.398646	-9.324924	-14.069453	-0.547515	1.980501	-1.312633
2.300	3.408656	0.772951	710.926411	-9.375844	-14.026277	-0.548710	1.972958	-1.318821
2.310	3.389068	0.730613	711.433247	-9.447206	-13.984646	-0.547383	1.965700	-1.327912
