Time[s]	Fx[N]	Fy[N]	Fz[N]	Mx[Nm]	My[Nm]	Mz[Nm]	COPx[cm]	COPy[cm]
0.010	5.414893	-5.178071	670.164280	-4.917725	32.749842	-0.471652	-4.886838	-0.733809
0.020	5.084709	-5.067962	669.934594	-4.801737	33.141844	-0.530331	-4.947027	-0.716747
0.030	4.739479	-4.938493	669.895522	-4.681235	33.554846	-0.589245	-5.008967	-0.698801
0.040	4.376835	-4.777887	670.203746	-4.555372	34.002712	-0.647568	-5.073489	-0.679700
0.050	4.012551	-4.585088	670.953893	-4.428345	34.487741	-0.703205	-5.140106	-0.660007
0.060	3.674354	-4.367790	672.158583	-4.308268	34.999894	-0.753334	-5.207089	-0.640960
0.070	3.388635	-4.137674	673.743697	-4.204127	35.519619	-0.795404	-5.271978	-0.623995
0.080	3.168137	-3.906217	675.563021	-4.122355	36.022862	-0.827962	-5.332273	-0.610210
0.090	3.007399	-3.683114	677.429696	-4.064522	36.486385	-0.850936	-5.386003	-0.599992
0.100	2.887696	-3.477193	679.155224	-4.026979	36.891818	-0.865441	-5.432016	-0.592939
0.110	2.787853	-3.298056	680.584192	-4.002468	37.227737	-0.873385	-5.469968	-0.588093
0.120	2.694759	-3.156483	681.615350	-3.982889	37.489819	-0.877048	-5.500143	-0.584331
0.130	2.608250	-3.062823	682.205447	-3.961938	37.679643	-0.878657	-5.523210	-0.580754
0.140	2.538686	-3.024080	682.358876	-3.936600	37.802761	-0.879952	-5.540012	-0.576911
0.150	2.499567	-3.041168	682.110746	-3.907229	37.866624	-0.881833	-5.551389	-0.572814
0.160	2.499735	-3.107561	681.511582	-3.876719	37.878861	-0.884253	-5.558066	-0.568841
0.170	2.539131	-3.209939	680.618881	-3.849422	37.846272	-0.886440	-5.560567	-0.565577
0.180	2.609592	-3.330677	679.496636	-3.830159	37.774565	-0.887340	-5.559198	-0.563676
0.190	2.699488	-3.451601	678.220030	-3.823332	37.668610	-0.886120	-5.554040	-0.563730
0.200	2.799322	-3.558173	676.879574	-3.832052	37.532939	-0.882538	-5.544995	-0.566135
0.210	2.905410	-3.643123	675.578329	-3.857376	37.372298	-0.877035	-5.531897	-0.570974
0.220	3.020105	-3.708378	674.419500	-3.897977	37.192059	-0.870474	-5.514677	-0.577975
0.230	3.148963	-3.764295	673.488222	-3.950466	36.998366	-0.863643	-5.493543	-0.586568
0.240	3.296761	-3.826021	672.835896	-4.010309	36.797971	-0.856821	-5.469086	-0.596031
0.250	3.464569	-3.907962	672.474313	-4.072893	36.597853	-0.849683	-5.442268	-0.605658
0.260	3.649124	-4.018247	672.381170	-4.134298	36.404708	-0.841566	-5.414296	-0.614874
0.270	3.844095	-4.155081	672.512656	-4.191548	36.224305	-0.831893	-5.386412	-0.623267
0.280	4.041968	-4.306207	672.816539	-4.242488	36.060706	-0.820547	-5.359664	-0.630556
0.290	4.235553	-4.451762	673.241080	-4.285573	35.915470	-0.808049	-5.334712	-0.636558
0.300	4.419028	-4.569736	673.739160	-4.319735	35.787159	-0.795595	-5.311723	-0.641158
0.310	4.588878	-4.642212	674.269908	-4.344345	35.671332	-0.784898	-5.290364	-0.644304
0.320	4.744896	-4.660141	674.799932	-4.359242	35.561094	-0.777829	-5.269872	-0.646005
0.330	4.890727	-4.625067	675.303927	-4.364785	35.448120	-0.775842	-5.249210	-0.646344
0.340	5.033213	-4.547616	675.763364	-4.361830	35.324127	-0.779400	-5.227292	-0.645467
0.350	5.180268	-4.443936	676.163545	-4.351587	35.182584	-0.787662	-5.203265	-0.643570
0.360	5.338024	-4.331794	676.490937	-4.335433	35.020271	-0.798588	-5.176754	-0.640871
0.370	5.508493	-4.227551	676.731921	-4.314842	34.838137	-0.809394	-5.147997	-0.637600
0.380	5.688850	-4.144204	676.872138	-4.291369	34.641106	-0.817150	-5.117821	-0.634000
0.390	5.872544	-4.090061	676.895645	-4.266516	34.436885	-0.819351	-5.087473	-0.630306
0.400	6.051519	-4.067848	676.784921	-4.241319	34.234309	-0.814370	-5.058373	-0.626686
0.410	6.218207	-4.074470	676.523476	-4.215712	34.041925	-0.801758	-5.031891	-0.623143
0.420	6.366260	-4.101868	676.101337	-4.187871	33.867177	-0.782353	-5.009187	-0.619415
0.430	6.490093	-4.138973	675.521900	-4.153922	33.716101	-0.758161	-4.991119	-0.614920
0.440	6.584462	-4.174200	674.808254	-4.108446	33.593225	-0.731989	-4.978188	-0.608832
0.450	6.645326	-4.197436	674.007749	-4.045971	33.501448	-0.706875	-4.970484	-0.600286
0.460	6.671968	-4.200798	673.193343	-3.963149	33.441897	-0.685380	-4.967651	-0.588709
0.470	6.668945	-4.178455	672.459083	-3.860706	33.413912	-0.668873	-4.968914	-0.574118
0.480	6.646139	-4.126733	671.907441	-3.744157	33.415378	-0.657094	-4.973212	-0.557243
0.490	6.616196	-4.045434	671.629522	-3.622751	33.443442	-0.648292	-4.979448	-0.539397
0.500	6.590221	-3.939871	671.683067	-3.507023	33.495392	-0.640007	-4.986785	-0.522125
0.510	6.573672	-3.821900	672.074970	-3.406051	33.569289	-0.630182	-4.994873	-0.506796
0.520	6.564295	-3.708570	672.754463	-3.325627	33.663974	-0.618046	-5.003902	-0.494330
0.530	6.552945	-3.618463	673.621090	-3.267935	33.778498	-0.604314	-5.014466	-0.485130
0.540	6.526817	-3.567036	674.547150	-3.232499	33.911249	-0.590690	-5.027261	-0.479210
0.550	6.473793	-3.562614	675.408235	-3.217597	34.059190	-0.579022	-5.042756	-0.476393
0.560	6.386457	-3.604325	676.111616	-3.221262	34.217484	-0.570612	-5.060922	-0.476439
0.570	6.264669	-3.682800	676.613396	-3.241396	34.379624	-0.565947	-5.081133	-0.479062
0.580	6.116334	-3.783513	676.919998	-3.275122	34.538055	-0.564847	-5.102236	-0.483827
0.590	5.956415	-3.891428	677.074652	-3.318000	34.685176	-0.566854	-5.122799	-0.490049
0.600	5.804124	-3.995025	677.134284	-3.363904	34.814552	-0.571604	-5.141455	-0.496785
0.610	5.678133	-4.088244	677.145935	-3.406015	34.922169	-0.578966	-5.157259	-0.502996
0.620	5.590426	-4.170104	677.131806	-3.438801	35.007332	-0.588848	-5.169944	-0.507848
0.630	5.540916	-4.242849	677.087211	-3.460113	35.072775	-0.600771	-5.179949	-0.511029
0.640	5.515639	-4.309875	676.989305	-3.472217	35.123778	-0.613496	-5.188232	-0.512891
0.650	5.490289	-4.374462	676.811086	-3.480926	35.166678	-0.624994	-5.195937	-0.514313
0.660	5.438268	-4.439446	676.535367	-3.493092	35.207430	-0.632828	-5.204078	-0.516321
0.670	5.340137	-4.507237	676.164817	-3.513793	35.250672	-0.634842	-5.213325	-0.519665
0.680	5.190576	-4.579582	675.725431	-3.544705	35.299287	-0.629864	-5.223910	-0.524578
0.690	5.000132	-4.657168	675.262599	-3.584301	35.354244	-0.618200	-5.235629	-0.530801
0.700	4.791270	-4.739601	674.831498	-3.629427	35.414739	-0.601757	-5.247938	-0.537827
0.710	4.590491	-4.825940	674.485306	-3.677127	35.478717	-0.583680	-5.260117	-0.545175
0.720	4.419595	-4.915249	674.264759	-3.725717	35.543693	-0.567565	-5.271474	-0.552560
0.730	4.289383	-5.006491	674.191535	-3.774716	35.607468	-0.556448	-5.281506	-0.559888
0.740	4.197979	-5.097562	674.266771	-3.824003	35.668344	-0.552000	-5.289945	-0.567135
0.750	4.133885	-5.184144	674.474757	-3.872933	35.724806	-0.554290	-5.296685	-0.574215
0.760	4.081810	-5.259490	674.789846	-3.920001	35.774953	-0.562174	-5.301644	-0.580922
0.770	4.028480	-5.315858	675.183018	-3.963084	35.816065	-0.574029	-5.304645	-0.586964
0.780	3.966355	-5.347234	675.625022	-3.999943	35.844557	-0.588387	-5.305392	-0.592036
0.790	3.894716	-5.352107	676.085671	-4.028679	35.856411	-0.604172	-5.303531	-0.595883
0.800	3.818663	-5.334920	676.531327	-4.048037	35.848029	-0.620536	-5.298798	-0.598352
0.810	3.746763	-5.305382	676.923389	-4.057623	35.817254	-0.636569	-5.291183	-0.599421
0.820	3.687904	-5.275750	677.220091	-4.058164	35.764041	-0.651160	-5.281007	-0.599239
0.830	3.647895	-5.256917	677.382902	-4.051756	35.690370	-0.663116	-5.268862	-0.598149
0.840	3.626889	-5.254661	677.387275	-4.041868	35.599354	-0.671471	-5.255392	-0.596685
0.850	3.619026	-5.267467	677.234979	-4.032753	35.494014	-0.675825	-5.241019	-0.595473
0.860	3.615028	-5.286921	676.962414	-4.028138	35.376303	-0.676530	-5.225741	-0.595031
0.870	3.607004	-5.300679	676.638258	-4.029525	35.246738	-0.674615	-5.209096	-0.595521
0.880	3.593248	-5.296930	676.347099	-4.034862	35.104510	-0.671499	-5.190310	-0.596567
0.890	3.580526	-5.268561	676.163326	-4.038401	34.947793	-0.668568	-5.168543	-0.597252
0.900	3.582440	-5.215347	676.126721	-4.032162	34.773985	-0.666746	-5.143116	-0.596362
0.910	3.614509	-5.143446	676.231805	-4.008536	34.579954	-0.666139	-5.113624	-0.592775
0.920	3.688220	-5.062757	676.435685	-3.962787	34.362466	-0.665903	-5.079931	-0.585834
0.930	3.806806	-4.983540	676.679430	-3.894173	34.118892	-0.664470	-5.042106	-0.575483
0.940	3.964649	-4.913527	676.912177	-3.805214	33.848006	-0.660135	-5.000354	-0.562143
0.950	4.150457	-4.856065	677.107780	-3.699763	33.550467	-0.651750	-4.954967	-0.546407
0.960	4.352456	-4.809313	677.268867	-3.581025	33.228739	-0.639196	-4.906285	-0.528745
0.970	4.562860	-4.766515	677.418550	-3.450348	32.886483	-0.623381	-4.854677	-0.509338
0.980	4.779565	-4.717523	677.583332	-3.307093	32.527737	-0.605863	-4.800551	-0.488072
0.990	5.004796	-4.651498	677.773097	-3.149429	32.156189	-0.588346	-4.744389	-0.464673
1.000	5.242154	-4.560210	677.966219	-2.975710	31.774706	-0.572284	-4.686768	-0.438917
1.010	5.494069	-4.440754	678.107647	-2.785916	31.385152	-0.558637	-4.628344	-0.410837
1.020	5.760965	-4.296529	678.122926	-2.582618	30.988501	-0.547729	-4.569747	-0.380848
1.030	6.042013	-4.136055	677.943573	-2.371046	30.585214	-0.539247	-4.511469	-0.349741
1.040	6.336235	-3.970374	677.533658	-2.158167	30.175813	-0.532423	-4.453773	-0.318533
1.050	6.642670	-3.810365	676.906514	-1.951148	29.761513	-0.526381	-4.396695	-0.288245
1.060	6.959292	-3.665076	676.124515	-1.755876	29.344791	-0.520422	-4.340146	-0.259697
1.070	7.281454	-3.541325	675.282164	-1.576205	28.929795	-0.514096	-4.284105	-0.233414
1.080	7.601021	-3.444084	674.480209	-1.414133	28.522398	-0.507059	-4.228797	-0.209663
1.090	7.906892	-3.376911	673.801597	-1.270589	28.129713	-0.498893	-4.174777	-0.188570
1.100	8.186823	-3.341993	673.296787	-1.146202	27.758903	-0.489068	-4.122833	-0.170237
1.110	8.430020	-3.339682	672.979507	-1.041607	27.415508	-0.477109	-4.073751	-0.154775
1.120	8.629813	-3.367825	672.830181	-0.957194	27.101968	-0.462857	-4.028055	-0.142264
1.130	8.785599	-3.421452	672.804760	-0.892547	26.817239	-0.446673	-3.985887	-0.132661
1.140	8.903032	-3.493444	672.847871	-0.846001	26.557902	-0.429438	-3.947089	-0.125734
1.150	8.991648	-3.576212	672.907835	-0.814709	26.320353	-0.412273	-3.911435	-0.121073
1.160	9.060211	-3.663707	672.948863	-0.795316	26.103104	-0.396087	-3.878913	-0.118184
1.170	9.111565	-3.752843	672.955890	-0.784996	25.908189	-0.381191	-3.849909	-0.116649
1.180	9.139579	-3.843730	672.930765	-0.782265	25.741146	-0.367238	-3.825230	-0.116247
1.190	9.130063	-3.938594	672.882622	-0.787005	25.609601	-0.353600	-3.805954	-0.116960
1.200	9.065940	-4.039703	672.818049	-0.799494	25.520952	-0.339988	-3.793143	-0.118828
1.210	8.935054	-4.147090	672.736870	-0.818869	25.479922	-0.326986	-3.787502	-0.121722
1.220	8.737604	-4.257155	672.636192	-0.841910	25.486816	-0.316135	-3.789094	-0.125166
1.230	8.489813	-4.362884	672.519920	-0.863050	25.537034	-0.309498	-3.797216	-0.128331
1.240	8.221535	-4.455535	672.407196	-0.875798	25.622034	-0.308896	-3.810494	-0.130248
1.250	7.968064	-4.526819	672.334078	-0.874855	25.731434	-0.315200	-3.827180	-0.130122
1.260	7.759064	-4.570648	672.346947	-0.857833	25.855571	-0.327975	-3.845570	-0.127588
1.270	7.609158	-4.584180	672.490252	-0.825819	25.987561	-0.345596	-3.864377	-0.122800
1.280	7.514122	-4.568381	672.793813	-0.782738	26.124024	-0.365710	-3.882917	-0.116342
1.290	7.454112	-4.528261	673.265077	-0.733952	26.264163	-0.385773	-3.901014	-0.109014
1.300	7.402228	-4.472592	673.889004	-0.684726	26.407757	-0.403476	-3.918710	-0.101608
1.310	7.334414	-4.412844	674.633917	-0.639041	26.553217	-0.417035	-3.935945	-0.094724
1.320	7.236530	-4.361328	675.458907	-0.598980	26.696704	-0.425462	-3.952380	-0.088677
1.330	7.106226	-4.328892	676.319255	-0.564796	26.832558	-0.428796	-3.967440	-0.083510
1.340	6.950076	-4.322711	677.169166	-0.535576	26.954496	-0.428142	-3.980467	-0.079090
1.350	6.778586	-4.344837	677.963234	-0.510167	27.056798	-0.425335	-3.990895	-0.075250
1.360	6.601961	-4.392040	678.658042	-0.487755	27.135042	-0.422243	-3.998338	-0.071871
1.370	6.428188	-4.456970	679.214389	-0.467644	27.186335	-0.419980	-4.002615	-0.068851
1.380	6.263304	-4.530229	679.600271	-0.448352	27.209227	-0.418454	-4.003710	-0.065973
1.390	6.112795	-4.602653	679.794935	-0.426680	27.203513	-0.416485	-4.001723	-0.062766
1.400	5.982874	-4.667131	679.793855	-0.397532	27.170072	-0.412452	-3.996811	-0.058478
1.410	5.880692	-4.719272	679.613005	-0.354887	27.110722	-0.405146	-3.989141	-0.052219
1.420	5.813264	-4.756729	679.289377	-0.293568	27.027957	-0.394463	-3.978858	-0.043217
1.430	5.785679	-4.777659	678.875049	-0.210933	26.924459	-0.381673	-3.966040	-0.031071
1.440	5.799624	-4.779142	678.425308	-0.107550	26.802437	-0.369200	-3.950684	-0.015853
1.450	5.852972	-4.756260	677.985925	0.013503	26.663087	-0.360061	-3.932690	0.001992
1.460	5.940453	-4.702240	677.586267	0.148335	26.506463	-0.357182	-3.911895	0.021892
1.470	6.054889	-4.609805	677.240840	0.294093	26.331874	-0.362756	-3.888111	0.043425
1.480	6.188512	-4.473550	676.955318	0.449972	26.138609	-0.377734	-3.861201	0.066470
1.490	6.334080	-4.292622	676.730329	0.616810	25.926670	-0.401466	-3.831167	0.091146
1.500	6.485620	-4.072635	676.559856	0.795502	25.697217	-0.431629	-3.798218	0.117580
1.510	6.638598	-3.825726	676.427109	0.985156	25.452568	-0.464549	-3.762795	0.145641
1.520	6.789689	-3.568330	676.303483	1.182047	25.195805	-0.495943	-3.725518	0.174781
1.530	6.936630	-3.317561	676.153949	1.379792	24.930196	-0.521887	-3.687059	0.204065
1.540	7.078541	-3.087963	675.947865	1.570462	24.658688	-0.539698	-3.648016	0.232335
1.550	7.216414	-2.890102	675.670565	1.746037	24.383684	-0.548471	-3.608813	0.258415
1.560	7.353000	-2.730908	675.329929	1.899690	24.107173	-0.549149	-3.569688	0.281298
1.570	7.491693	-2.614508	674.954086	2.026706	23.831100	-0.544135	-3.530773	0.300273
1.580	7.634907	-2.542467	674.581095	2.125083	23.557764	-0.536517	-3.492206	0.315023
1.590	7.783042	-2.513398	674.246135	2.195906	23.289993	-0.529063	-3.454227	0.325683
1.600	7.934737	-2.522651	673.972780	2.243387	23.031008	-0.523326	-3.417202	0.332860
1.610	8.088049	-2.562669	673.771428	2.274213	22.784048	-0.519219	-3.381569	0.337535
1.620	8.241599	-2.624056	673.642962	2.296025	22.551855	-0.515302	-3.347746	0.340837
1.630	8.394958	-2.697003	673.583627	2.315422	22.336154	-0.509579	-3.316018	0.343747
1.640	8.548193	-2.772619	673.588528	2.336269	22.137257	-0.500406	-3.286466	0.346839
1.650	8.701131	-2.843834	673.653284	2.358975	21.954054	-0.487080	-3.258954	0.350176
1.660	8.852946	-2.905926	673.773847	2.380785	21.784542	-0.469986	-3.233213	0.353351
1.670	9.002320	-2.956981	673.944169	2.396736	21.626756	-0.450369	-3.208983	0.355628
1.680	9.147917	-2.998491	674.151918	2.400919	21.479669	-0.429870	-3.186176	0.356139
1.690	9.288810	-3.035749	674.374258	2.387938	21.343676	-0.409914	-3.164960	0.354097
1.700	9.424581	-3.077355	674.577365	2.354356	21.220507	-0.391154	-3.145748	0.349012
1.710	9.555099	-3.133386	674.723152	2.299664	21.112653	-0.373259	-3.129084	0.340831
1.720	9.680141	-3.212583	674.782934	2.226408	21.022506	-0.355220	-3.115447	0.329944
1.730	9.799107	-3.319836	674.752084	2.139507	20.951517	-0.336007	-3.105069	0.317080
1.740	9.910990	-3.455261	674.656579	2.045207	20.899622	-0.315210	-3.097816	0.303148
1.750	10.014628	-3.615055	674.545644	1.950031	20.865131	-0.293308	-3.093213	0.289088
1.760	10.109149	-3.793061	674.472594	1.859820	20.845158	-0.271433	-3.090586	0.275744
1.770	10.194368	-3.981729	674.472887	1.778828	20.836555	-0.250848	-3.089310	0.263736
1.780	10.270707	-4.172213	674.549928	1.708875	20.837040	-0.232500	-3.089029	0.253336
1.790	10.338489	-4.354409	674.675002	1.648807	20.846054	-0.216897	-3.089792	0.244385
1.800	10.396931	-4.517838	674.801047	1.594693	20.864903	-0.204234	-3.092008	0.236321
1.810	10.443662	-4.653607	674.883972	1.541008	20.896092	-0.194551	-3.096250	0.228337
1.820	10.475384	-4.756870	674.902164	1.482427	20.942217	-0.187798	-3.103000	0.219651
1.830	10.489588	-4.828797	674.865987	1.415462	21.004959	-0.183789	-3.112464	0.209740
1.840	10.486412	-4.877046	674.813771	1.339271	21.084574	-0.182110	-3.124503	0.198465
1.850	10.469602	-4.914154	674.796779	1.255540	21.179826	-0.182068	-3.138697	0.186062
1.860	10.446000	-4.954148	674.859890	1.167697	21.288131	-0.182753	-3.154452	0.173028
1.870	10.423679	-5.008503	675.025125	1.079849	21.405822	-0.183263	-3.171115	0.159972
1.880	10.409283	-5.082924	675.282771	0.995767	21.528668	-0.182999	-3.188097	0.147459
1.890	10.405417	-5.175946	675.592193	0.918206	21.652727	-0.181913	-3.205000	0.135911
1.900	10.409074	-5.279466	675.892419	0.848710	21.775350	-0.180551	-3.221718	0.125569
1.910	10.412054	-5.380781	676.119774	0.787874	21.895963	-0.179885	-3.238474	0.116529
1.920	10.403712	-5.465541	676.226655	0.735811	22.016244	-0.181011	-3.255749	0.108811
1.930	10.375242	-5.521074	676.194657	0.692537	22.139526	-0.184846	-3.274135	0.102417
1.940	10.323790	-5.539438	676.037949	0.658093	22.269618	-0.191829	-3.294137	0.097346
1.950	10.254661	-5.519537	675.796466	0.632418	22.409506	-0.201665	-3.316014	0.093581
1.960	10.180522	-5.467777	675.520908	0.615179	22.560474	-0.213193	-3.339715	0.091067
1.970	10.117383	-5.397019	675.252729	0.605872	22.722091	-0.224602	-3.364976	0.089725
1.980	10.078038	-5.323825	675.003680	0.604394	22.893298	-0.234096	-3.391581	0.089539
1.990	10.064617	-5.264278	674.740976	0.612090	23.074517	-0.240837	-3.419759	0.090715
2.000	10.062612	-5.229210	674.384515	0.632866	23.270172	-0.245763	-3.450579	0.093844
2.010	10.038907	-5.220298	673.820779	0.673661	23.490592	-0.251815	-3.486178	0.099976
2.020	9.945700	-5.228809	672.934080	0.743580	23.752147	-0.263344	-3.529639	0.110498
2.030	9.730982	-5.237898	671.650485	0.851477	24.074997	-0.284804	-3.584453	0.126774
2.040	9.354501	-5.227760	669.983986	1.002448	24.478661	-0.319128	-3.653619	0.149623
2.050	8.805605	-5.181617	668.069566	1.194389	24.976576	-0.366357	-3.738619	0.178782
2.060	8.116525	-5.090357	666.166553	1.416236	25.571438	-0.423018	-3.838595	0.212595
2.070	7.363535	-4.954419	664.622254	1.649335	26.253060	-0.482585	-3.950072	0.248161
2.080	6.651182	-4.782613	663.800410	1.872334	26.999728	-0.537042	-4.067447	0.282063
2.090	6.081930	-4.588801	663.994566	2.068124	27.782721	-0.579197	-4.184179	0.311467
2.100	5.721685	-4.388049	665.353421	2.229927	28.572454	-0.604969	-4.294327	0.335149
2.110	5.575896	-4.193836	667.840286	2.363652	29.344073	-0.614728	-4.393876	0.353925
2.120	5.587681	-4.016981	671.236181	2.485321	30.080651	-0.613012	-4.481381	0.370260
2.130	5.659447	-3.865855	675.182576	2.614685	30.773232	-0.606635	-4.557765	0.387256
2.140	5.688393	-3.746819	679.250243	2.767818	31.418406	-0.601995	-4.625454	0.407481
2.150	5.600548	-3.664161	683.016436	2.951545	32.014952	-0.602748	-4.687289	0.432134
2.160	5.370448	-3.619533	686.132747	3.161460	32.560997	-0.608791	-4.745583	0.460765
2.170	5.021687	-3.611348	688.369957	3.383684	33.052539	-0.616843	-4.801566	0.491550
2.180	4.612117	-3.634538	689.633118	3.599374	33.483520	-0.622175	-4.855266	0.521926
2.190	4.212088	-3.680949	689.948088	3.790284	33.847195	-0.620679	-4.905760	0.549358
2.200	3.883925	-3.740532	689.427202	3.943571	34.138155	-0.610436	-4.951669	0.572007
2.210	3.667695	-3.803277	688.225715	4.054363	34.354222	-0.592266	-4.991709	0.589104
2.220	3.575405	-3.861373	686.501998	4.125547	34.497607	-0.569170	-5.025128	0.600952
2.230	3.593600	-3.910951	684.392540	4.165247	34.575056	-0.545025	-5.051933	0.608605
2.240	3.692515	-3.953019	682.007080	4.183256	34.597041	-0.523114	-5.072827	0.613374
2.250	3.838053	-3.993321	679.441122	4.187841	34.576336	-0.505113	-5.088938	0.616366
2.260	4.002254	-4.040991	676.796330	4.183972	34.526468	-0.490870	-5.101456	0.618203
2.270	4.168999	-4.106058	674.197043	4.173296	34.460596	-0.478930	-5.111354	0.619002
2.280	4.334110	-4.196260	671.793630	4.155484	34.391049	-0.467472	-5.119288	0.618566
2.290	4.501107	-4.313965	669.749431	4.130080	34.329407	-0.455241	-5.125709	0.616660
2.300	4.675121	-4.454212	668.215244	4.097943	34.286553	-0.442111	-5.131064	0.613267
2.310	4.857554	-4.604645	667.300865	4.061845	34.272175	-0.429130	-5.135940	0.608698
2.320	5.043342	-4.747604	667.054283	4.026268	34.293601	-0.418104	-5.141051	0.603589
2.330	5.221401	-4.863814	667.455267	3.996858	34.354382	-0.411015	-5.147069	0.598820
