Time[s]	Fx[N]	Fy[N]	Fz[N]	Mx[Nm]	My[Nm]	Mz[Nm]	COPx[cm]	COPy[cm]
0.010	3.332495	0.017586	715.622699	-4.512826	16.897545	-0.383298	-2.361237	-0.630615
0.020	3.352520	-0.001143	715.724836	-4.430859	16.899918	-0.368823	-2.361231	-0.619073
0.030	3.379676	-0.004262	715.802854	-4.342970	16.901416	-0.356337	-2.361183	-0.606727
0.040	3.416609	0.020396	715.836623	-4.244127	16.901606	-0.347399	-2.361098	-0.592890
0.050	3.458486	0.080253	715.815711	-4.131479	16.900677	-0.343109	-2.361037	-0.577171
0.060	3.494629	0.175603	715.742325	-4.005312	16.899606	-0.343899	-2.361130	-0.559602
0.070	3.513237	0.298690	715.630816	-3.869256	16.900018	-0.349431	-2.361555	-0.540678
0.080	3.506895	0.435352	715.503957	-3.729397	16.903731	-0.358650	-2.362493	-0.521227
0.090	3.476421	0.569029	715.387518	-3.592442	16.912146	-0.370014	-2.364054	-0.502167
0.100	3.431284	0.685762	715.304404	-3.463635	16.925725	-0.381834	-2.366227	-0.484218
0.110	3.386261	0.778388	715.269425	-3.345359	16.943810	-0.392656	-2.368871	-0.467706
0.120	3.355787	0.848367	715.286285	-3.236973	16.964894	-0.401537	-2.371763	-0.452542
0.130	3.348590	0.904321	715.347905	-3.135817	16.987236	-0.408116	-2.374682	-0.438362
0.140	3.365111	0.957565	715.439189	-3.038717	17.009467	-0.412406	-2.377486	-0.424734
0.150	3.398721	1.016395	715.540199	-2.943330	17.030884	-0.414444	-2.380144	-0.411344
0.160	3.439817	1.081805	715.628808	-2.848940	17.051296	-0.414017	-2.382701	-0.398103
0.170	3.480399	1.146874	715.683510	-2.756758	17.070520	-0.410661	-2.385205	-0.385192
0.180	3.516728	1.200211	715.687262	-2.669880	17.087795	-0.403981	-2.387606	-0.373051
0.190	3.549042	1.231563	715.631983	-2.592885	17.101430	-0.394086	-2.389696	-0.362321
0.200	3.579052	1.236416	715.522070	-2.530936	17.108961	-0.381846	-2.391116	-0.353719
0.210	3.607044	1.217159	715.375050	-2.488459	17.107855	-0.368804	-2.391453	-0.347854
0.220	3.630405	1.180597	715.218611	-2.467886	17.096528	-0.356819	-2.390392	-0.345053
0.230	3.644463	1.133752	715.084762	-2.469073	17.075306	-0.347649	-2.387872	-0.345284
0.240	3.645108	1.080471	715.002868	-2.489630	17.046928	-0.342646	-2.384176	-0.348199
0.250	3.631690	1.020467	714.993244	-2.525884	17.016300	-0.342572	-2.379925	-0.353274
0.260	3.608504	0.950776	715.062257	-2.573884	16.989445	-0.347507	-2.375939	-0.359952
0.270	3.583945	0.868438	715.199481	-2.629946	16.971858	-0.356822	-2.373024	-0.367722
0.280	3.567571	0.773021	715.377916	-2.690681	16.966798	-0.369241	-2.371725	-0.376120
0.290	3.566377	0.668143	715.558645	-2.752843	16.974119	-0.383023	-2.372149	-0.384712
0.300	3.582103	0.561577	715.700262	-2.813487	16.990170	-0.396233	-2.373923	-0.393110
0.310	3.610901	0.463722	715.771105	-2.870601	17.008919	-0.407052	-2.376307	-0.401050
0.320	3.645504	0.384588	715.760136	-2.923861	17.024021	-0.414092	-2.378453	-0.408497
0.330	3.678699	0.330204	715.681742	-2.974963	17.031039	-0.416639	-2.379694	-0.415682
0.340	3.706338	0.299897	715.571524	-3.027177	17.028879	-0.414806	-2.379759	-0.423043
0.350	3.728537	0.285685	715.473870	-3.084234	17.019840	-0.409522	-2.378821	-0.431076
0.360	3.748691	0.274328	715.426239	-3.148947	17.008340	-0.402351	-2.377372	-0.440150
0.370	3.771011	0.251661	715.447060	-3.221941	16.999013	-0.395167	-2.375999	-0.450340
0.380	3.797923	0.207846	715.532196	-3.300856	16.995110	-0.389762	-2.375171	-0.461315
0.390	3.828572	0.141385	715.660280	-3.380414	16.997902	-0.387439	-2.375136	-0.472349
0.400	3.858845	0.059987	715.803462	-3.453622	17.007233	-0.388672	-2.375964	-0.482482
0.410	3.882489	-0.022199	715.939005	-3.513897	17.022652	-0.392917	-2.377668	-0.490810
0.420	3.892754	-0.089668	716.057436	-3.557288	17.044283	-0.398707	-2.380296	-0.496788
0.430	3.884274	-0.130795	716.163825	-3.583904	17.072913	-0.404078	-2.383940	-0.500431
0.440	3.854940	-0.141319	716.271205	-3.597976	17.109341	-0.407175	-2.388668	-0.502320
0.450	3.807166	-0.125131	716.389150	-3.606496	17.153501	-0.406826	-2.394439	-0.503427
0.460	3.747943	-0.092426	716.513590	-3.616719	17.203829	-0.402867	-2.401047	-0.504766
0.470	3.687506	-0.056073	716.623358	-3.633301	17.257154	-0.396130	-2.408121	-0.507003
0.480	3.637068	-0.027472	716.685259	-3.656202	17.309170	-0.388137	-2.415170	-0.510154
0.490	3.606361	-0.013185	716.665343	-3.680457	17.355377	-0.380592	-2.421685	-0.513553
0.500	3.601556	-0.013282	716.541678	-3.698067	17.392190	-0.374841	-2.427240	-0.516099
0.510	3.623666	-0.021878	716.313602	-3.701217	17.417804	-0.371488	-2.431589	-0.516703
0.520	3.667363	-0.029603	716.003661	-3.685312	17.432532	-0.370269	-2.434699	-0.514706
0.530	3.720581	-0.027133	715.651499	-3.650506	17.438480	-0.370247	-2.436728	-0.510096
0.540	3.765849	-0.008574	715.302932	-3.601232	17.438794	-0.370194	-2.437959	-0.503456
0.550	3.784088	0.026480	714.999361	-3.544242	17.436855	-0.369025	-2.438723	-0.495699
0.560	3.760323	0.072924	714.770876	-3.486250	17.435788	-0.366127	-2.439353	-0.487744
0.570	3.689255	0.122088	714.633585	-3.432133	17.438351	-0.361523	-2.440181	-0.480265
0.580	3.578106	0.164850	714.590339	-3.384090	17.446887	-0.355853	-2.441523	-0.473571
0.590	3.445315	0.194712	714.633722	-3.341659	17.462964	-0.350151	-2.443624	-0.467604
0.600	3.315553	0.209709	714.749625	-3.302345	17.486663	-0.345421	-2.446544	-0.462028
0.610	3.212874	0.212530	714.919652	-3.262582	17.515975	-0.342195	-2.450062	-0.456356
0.620	3.154071	0.209063	715.122074	-3.218794	17.546864	-0.340275	-2.453688	-0.450104
0.630	3.144126	0.206157	715.333018	-3.168340	17.574251	-0.338865	-2.456793	-0.442918
0.640	3.175261	0.209544	715.529592	-3.110240	17.593546	-0.337039	-2.458815	-0.434677
0.650	3.230149	0.222546	715.694184	-3.045607	17.602026	-0.334311	-2.459434	-0.425546
0.660	3.288347	0.245835	715.817217	-2.977690	17.599430	-0.330959	-2.458649	-0.415985
0.670	3.333509	0.278047	715.896814	-2.911366	17.587555	-0.327931	-2.456717	-0.406674
0.680	3.358574	0.316596	715.936481	-2.852059	17.569189	-0.326379	-2.454015	-0.398368
0.690	3.366920	0.358163	715.942791	-2.804354	17.546968	-0.327109	-2.450890	-0.391701
0.700	3.369275	0.398921	715.923965	-2.770732	17.522748	-0.330250	-2.447571	-0.387015
0.710	3.377975	0.434916	715.889023	-2.750858	17.497618	-0.335313	-2.444180	-0.384258
0.720	3.401312	0.462715	715.847237	-2.741589	17.472372	-0.341567	-2.440796	-0.382985
0.730	3.440499	0.480047	715.808138	-2.737697	17.448061	-0.348459	-2.437533	-0.382462
0.740	3.490291	0.486180	715.781909	-2.733202	17.426293	-0.355803	-2.434581	-0.381848
0.750	3.542486	0.482070	715.778768	-2.722970	17.409043	-0.363621	-2.432182	-0.380421
0.760	3.590221	0.470423	715.805944	-2.704008	17.397971	-0.371830	-2.430543	-0.377757
0.770	3.630878	0.455759	715.862841	-2.675883	17.393569	-0.380044	-2.429735	-0.373798
0.780	3.666385	0.444215	715.937330	-2.640116	17.394634	-0.387607	-2.429631	-0.368764
0.790	3.701172	0.442706	716.006413	-2.598916	17.398489	-0.393755	-2.429935	-0.362974
0.800	3.739078	0.457399	716.042230	-2.553855	17.401952	-0.397786	-2.430297	-0.356663
0.810	3.780719	0.492156	716.021182	-2.505048	17.402690	-0.399175	-2.430471	-0.349857
0.820	3.822262	0.547692	715.932373	-2.451100	17.400432	-0.397666	-2.430457	-0.342365
0.830	3.855879	0.621741	715.782424	-2.389883	17.397493	-0.393381	-2.430556	-0.333884
0.840	3.871651	0.709887	715.595512	-2.319812	17.398339	-0.386903	-2.431309	-0.324179
0.850	3.860400	0.806510	715.408585	-2.241028	17.408180	-0.379291	-2.433320	-0.313252
0.860	3.816754	0.905307	715.262194	-2.155899	17.431009	-0.371953	-2.437010	-0.301414
0.870	3.741647	0.999282	715.188683	-2.068584	17.467739	-0.366352	-2.442396	-0.289236
0.880	3.643401	1.080789	715.201766	-1.983925	17.515149	-0.363603	-2.448980	-0.277394
0.890	3.536702	1.142504	715.292376	-1.906224	17.566226	-0.364131	-2.455811	-0.266496
0.900	3.439303	1.179475	715.432975	-1.838494	17.611977	-0.367566	-2.461723	-0.256976
0.910	3.367120	1.191213	715.587797	-1.782412	17.644124	-0.372973	-2.465683	-0.249084
0.920	3.329160	1.182412	715.723819	-1.738861	17.657653	-0.379291	-2.467104	-0.242951
0.930	3.324189	1.161567	715.818202	-1.708613	17.652205	-0.385713	-2.466018	-0.238694
0.940	3.340861	1.137874	715.860600	-1.692728	17.631876	-0.391815	-2.463032	-0.236461
0.950	3.361845	1.117591	715.851108	-1.692479	17.603617	-0.397461	-2.459117	-0.236429
0.960	3.370677	1.101387	715.796367	-1.708904	17.574884	-0.402608	-2.455291	-0.238742
0.970	3.358474	1.083870	715.706694	-1.742248	17.551366	-0.407128	-2.452313	-0.243430
0.980	3.327518	1.055623	715.595137	-1.791504	17.535517	-0.410727	-2.450480	-0.250352
0.990	3.290169	1.006897	715.476616	-1.854297	17.526247	-0.412987	-2.449590	-0.259169
1.000	3.263797	0.931559	715.365093	-1.927206	17.519734	-0.413516	-2.449062	-0.269402
1.010	3.264110	0.829827	715.269605	-2.006439	17.510957	-0.412096	-2.448162	-0.280515
1.020	3.299640	0.708874	715.192322	-2.088619	17.495393	-0.408763	-2.446250	-0.292036
1.030	3.369424	0.581008	715.130664	-2.171389	17.470396	-0.403807	-2.442966	-0.303635
1.040	3.464324	0.460037	715.082441	-2.253653	17.435900	-0.397697	-2.438306	-0.315160
1.050	3.570731	0.357060	715.051332	-2.335366	17.394349	-0.390979	-2.432601	-0.326601
1.060	3.674569	0.277188	715.050083	-2.417019	17.349957	-0.384174	-2.426397	-0.338021
1.070	3.764056	0.218479	715.099193	-2.499003	17.307632	-0.377685	-2.420312	-0.349462
1.080	3.830923	0.173691	715.219886	-2.581006	17.271903	-0.371682	-2.414908	-0.360869
1.090	3.870680	0.134255	715.422744	-2.661517	17.246067	-0.365947	-2.410612	-0.372020
1.100	3.882704	0.094671	715.696834	-2.737556	17.231544	-0.359849	-2.407660	-0.382502
1.110	3.870560	0.055119	716.005666	-2.804888	17.227467	-0.352546	-2.406052	-0.391741
1.120	3.842231	0.021110	716.293918	-2.858904	17.230682	-0.343449	-2.405532	-0.399124
1.130	3.809378	0.000568	716.503859	-2.896075	17.236324	-0.332681	-2.405615	-0.404195
1.140	3.784943	-0.000225	716.595806	-2.915376	17.238960	-0.321231	-2.405674	-0.406837
1.150	3.779393	0.019829	716.564557	-2.918946	17.233973	-0.310685	-2.405083	-0.407353
1.160	3.797042	0.055074	716.444290	-2.911548	17.218748	-0.302660	-2.403362	-0.406389
1.170	3.834268	0.094430	716.298343	-2.899068	17.193238	-0.298272	-2.400290	-0.404729
1.180	3.880822	0.125364	716.196965	-2.886763	17.159690	-0.297899	-2.395946	-0.403068
1.190	3.924161	0.138715	716.191858	-2.877946	17.121665	-0.301264	-2.390653	-0.401840
1.200	3.955165	0.131968	716.297562	-2.873490	17.082735	-0.307710	-2.384866	-0.401159
1.210	3.972452	0.109506	716.486323	-2.872095	17.045255	-0.316488	-2.379006	-0.400858
1.220	3.982803	0.080234	716.697740	-2.871122	17.009526	-0.326974	-2.373319	-0.400604
1.230	3.997326	0.054223	716.859083	-2.867680	16.973558	-0.338778	-2.367768	-0.400034
1.240	4.025572	0.039992	716.908108	-2.859591	16.933558	-0.351725	-2.362026	-0.398878
1.250	4.070856	0.043153	716.809555	-2.845808	16.885136	-0.365710	-2.355596	-0.397010
1.260	4.128939	0.066165	716.560551	-2.826053	16.825016	-0.380482	-2.348024	-0.394391
1.270	4.190098	0.108649	716.186552	-2.799897	16.752798	-0.395481	-2.339167	-0.390945
1.280	4.242865	0.168074	715.733233	-2.765928	16.672119	-0.409883	-2.329376	-0.386447
1.290	4.277394	0.241053	715.258645	-2.721705	16.590567	-0.422850	-2.319520	-0.380520
1.300	4.287408	0.325064	714.825948	-2.664751	16.518144	-0.433817	-2.310792	-0.372783
1.310	4.270879	0.419534	714.494598	-2.594119	16.464705	-0.442638	-2.304385	-0.363071
1.320	4.230068	0.525010	714.309089	-2.511612	16.437265	-0.449509	-2.301142	-0.351614
1.330	4.171203	0.640445	714.288223	-2.421840	16.438037	-0.454713	-2.301317	-0.339056
1.340	4.103638	0.760265	714.420430	-2.331013	16.463715	-0.458307	-2.304486	-0.326280
1.350	4.038309	0.873551	714.668653	-2.245137	16.506158	-0.459918	-2.309624	-0.314151
1.360	3.985654	0.966435	714.982290	-2.168611	16.554285	-0.458840	-2.315342	-0.303310
1.370	3.953585	1.026792	715.309508	-2.103879	16.596693	-0.454455	-2.320211	-0.294122
1.380	3.946108	1.048921	715.604972	-2.052021	16.624277	-0.446775	-2.323108	-0.286753
1.390	3.962831	1.035826	715.833286	-2.013715	16.632158	-0.436714	-2.323468	-0.281311
1.400	3.999258	0.997825	715.971361	-1.989954	16.620443	-0.425892	-2.321384	-0.277938
1.410	4.047790	0.948023	716.011641	-1.982132	16.593632	-0.416040	-2.317509	-0.276830
1.420	4.099512	0.896939	715.965215	-1.991452	16.558791	-0.408348	-2.312793	-0.278149
1.430	4.146591	0.849136	715.862098	-2.018000	16.523079	-0.403103	-2.308137	-0.281898
1.440	4.184547	0.803554	715.745946	-2.060113	16.491576	-0.399780	-2.304110	-0.287827
1.450	4.213321	0.756836	715.662628	-2.114530	16.466294	-0.397500	-2.300846	-0.295465
1.460	4.236513	0.707096	715.645632	-2.177304	16.446628	-0.395579	-2.298153	-0.304243
1.470	4.259082	0.655655	715.704285	-2.244860	16.430750	-0.393922	-2.295746	-0.313657
1.480	4.284604	0.606116	715.820344	-2.314527	16.417125	-0.393082	-2.293470	-0.323339
1.490	4.313376	0.562070	715.954673	-2.384351	16.405521	-0.393958	-2.291419	-0.333031
1.500	4.342119	0.525223	716.061241	-2.452528	16.397281	-0.397288	-2.289927	-0.342503
1.510	4.365212	0.494949	716.103041	-2.517006	16.394899	-0.403175	-2.289461	-0.351487
1.520	4.376810	0.469111	716.064200	-2.575555	16.401139	-0.410854	-2.290456	-0.359682
1.530	4.373103	0.445426	715.954346	-2.626198	16.418031	-0.418818	-2.293167	-0.366811
1.540	4.354036	0.422780	715.804486	-2.667587	16.446084	-0.425274	-2.297567	-0.372670
1.550	4.324101	0.402313	715.656739	-2.699049	16.483965	-0.428730	-2.303334	-0.377143
1.560	4.292011	0.387983	715.551454	-2.720401	16.528715	-0.428492	-2.309927	-0.380182
1.570	4.269119	0.385913	715.515156	-2.731989	16.576442	-0.424894	-2.316714	-0.381821
1.580	4.266429	0.402109	715.552546	-2.735166	16.623329	-0.419177	-2.323146	-0.382245
1.590	4.290628	0.439225	715.645445	-2.732953	16.666680	-0.413021	-2.328902	-0.381886
1.600	4.340524	0.494098	715.759605	-2.730188	16.705702	-0.407887	-2.333982	-0.381439
1.610	4.405611	0.557512	715.856821	-2.732728	16.741666	-0.404441	-2.338689	-0.381742
1.620	4.467911	0.616380	715.907013	-2.745785	16.777271	-0.402377	-2.343499	-0.383539
1.630	4.506871	0.657427	715.895374	-2.772115	16.815378	-0.400755	-2.348860	-0.387223
1.640	4.505871	0.671071	715.823260	-2.810969	16.857695	-0.398664	-2.355008	-0.392690
1.650	4.458055	0.654358	715.705090	-2.858425	16.904085	-0.395864	-2.361879	-0.399386
1.660	4.369121	0.612012	715.564155	-2.909026	16.952780	-0.392997	-2.369149	-0.406536
1.670	4.255627	0.555211	715.428347	-2.957994	17.001301	-0.391253	-2.376381	-0.413458
1.680	4.139252	0.498299	715.325146	-3.003074	17.047566	-0.391671	-2.383191	-0.419819
1.690	4.039351	0.454335	715.275607	-3.045302	17.090720	-0.394494	-2.389389	-0.425752
1.700	3.966985	0.430807	715.288790	-3.088518	17.131367	-0.398988	-2.395028	-0.431786
1.710	3.922900	0.427050	715.359168	-3.137925	17.171217	-0.403838	-2.400363	-0.438650
1.720	3.899890	0.434488	715.468501	-3.198270	17.212423	-0.407864	-2.405756	-0.447018
1.730	3.887672	0.439786	715.591348	-3.272257	17.256915	-0.410588	-2.411560	-0.457280
1.740	3.877412	0.429682	715.702011	-3.359728	17.305886	-0.412338	-2.418029	-0.469431
1.750	3.863908	0.395353	715.781146	-3.457823	17.359464	-0.413861	-2.425247	-0.483084
1.760	3.845337	0.334397	715.821172	-3.562001	17.416627	-0.415789	-2.433098	-0.497610
1.770	3.821974	0.249873	715.829374	-3.667495	17.475482	-0.418278	-2.441292	-0.512342
1.780	3.795437	0.147522	715.826676	-3.770595	17.533897	-0.420998	-2.449461	-0.526747
1.790	3.768899	0.033100	715.840763	-3.869280	17.590173	-0.423385	-2.457275	-0.540522
1.800	3.747290	-0.088746	715.895306	-3.963025	17.643318	-0.424956	-2.464511	-0.553576
1.810	3.736196	-0.213780	716.000111	-4.052131	17.692745	-0.425518	-2.471053	-0.565940
1.820	3.739265	-0.336602	716.147034	-4.137027	17.737774	-0.425190	-2.476834	-0.577678
1.830	3.755445	-0.449816	716.313027	-4.217854	17.777451	-0.424275	-2.481799	-0.588828
1.840	3.777985	-0.545115	716.467626	-4.294375	17.810917	-0.423052	-2.485935	-0.599382
1.850	3.796355	-0.616028	716.580799	-4.366147	17.837963	-0.421585	-2.489316	-0.609303
1.860	3.800623	-0.660795	716.628957	-4.432886	17.859265	-0.419656	-2.492122	-0.618575
1.870	3.786276	-0.683768	716.599155	-4.494875	17.876113	-0.416897	-2.494576	-0.627251
1.880	3.756868	-0.694685	716.491833	-4.553136	17.889914	-0.413076	-2.496876	-0.635476
1.890	3.722811	-0.706104	716.321730	-4.609084	17.901861	-0.408367	-2.499137	-0.643438
1.900	3.696798	-0.729861	716.116754	-4.663725	17.912905	-0.403402	-2.501395	-0.651252
1.910	3.688361	-0.773653	715.914876	-4.716871	17.923860	-0.399047	-2.503630	-0.658859
1.920	3.700538	-0.838776	715.758166	-4.766981	17.935330	-0.396049	-2.505781	-0.666004
1.930	3.730157	-0.919677	715.682647	-4.811865	17.947383	-0.394796	-2.507729	-0.672346
1.940	3.770969	-1.005395	715.705220	-4.849770	17.959209	-0.395319	-2.509303	-0.677621
1.950	3.817335	-1.082407	715.813136	-4.880057	17.969150	-0.397482	-2.510313	-0.681750
1.960	3.866211	-1.138009	715.962822	-4.903051	17.975256	-0.401135	-2.510641	-0.684819
1.970	3.916639	-1.163154	716.090916	-4.919249	17.976136	-0.406088	-2.510315	-0.686959
1.980	3.967538	-1.153969	716.133908	-4.928441	17.971692	-0.411936	-2.509543	-0.688201
1.990	4.015562	-1.111828	716.048992	-4.929225	17.963377	-0.417920	-2.508680	-0.688392
2.000	4.054603	-1.042483	715.829279	-4.919186	17.953882	-0.422964	-2.508123	-0.687201
2.010	4.077447	-0.954865	715.508940	-4.895738	17.946351	-0.425895	-2.508194	-0.684231
2.020	4.078804	-0.859779	715.156025	-4.857311	17.943456	-0.425710	-2.509027	-0.679196
2.030	4.058130	-0.768448	714.853578	-4.804374	17.946732	-0.421756	-2.510547	-0.672078
2.040	4.020608	-0.690792	714.673848	-4.739762	17.956417	-0.413774	-2.512533	-0.663206
2.050	3.975611	-0.633554	714.654051	-4.668137	17.971729	-0.401896	-2.514745	-0.653202
2.060	3.933502	-0.598618	714.783254	-4.594875	17.991301	-0.386670	-2.517029	-0.642835
2.070	3.902530	-0.582297	715.007189	-4.524934	18.013600	-0.369128	-2.519359	-0.632852
2.080	3.887255	-0.576436	715.250655	-4.462134	18.037295	-0.350816	-2.521815	-0.623856
2.090	3.888729	-0.571451	715.447991	-4.408918	18.061543	-0.333666	-2.524508	-0.616246
2.100	3.905768	-0.560216	715.566844	-4.366356	18.086011	-0.319643	-2.527508	-0.610195
2.110	3.936418	-0.540880	715.613963	-4.334125	18.110536	-0.310260	-2.530769	-0.605651
2.120	3.978892	-0.517023	715.622068	-4.310386	18.134576	-0.306158	-2.534100	-0.602327
2.130	4.031607	-0.495060	715.627361	-4.291855	18.156933	-0.306987	-2.537205	-0.599733
2.140	4.092504	-0.480432	715.651077	-4.274429	18.176108	-0.311656	-2.539800	-0.597278
2.150	4.158133	-0.474796	715.693733	-4.254433	18.191198	-0.318786	-2.541757	-0.594449
2.160	4.223115	-0.475646	715.741474	-4.229993	18.202764	-0.327060	-2.543204	-0.590994
2.170	4.280411	-0.478256	715.777594	-4.201728	18.213149	-0.335330	-2.544526	-0.587016
2.180	4.322599	-0.478558	715.792068	-4.172233	18.226034	-0.342561	-2.546275	-0.582883
2.190	4.343874	-0.475128	715.785603	-4.144410	18.245452	-0.347785	-2.549011	-0.579002
2.200	4.342009	-0.469059	715.768067	-4.119446	18.274624	-0.350199	-2.553149	-0.575528
2.210	4.319364	-0.461696	715.752887	-4.095481	18.314944	-0.349369	-2.558836	-0.572192
2.220	4.282285	-0.451634	715.750071	-4.067789	18.365406	-0.345439	-2.565897	-0.568325
2.230	4.238991	-0.433064	715.761357	-4.030453	18.422722	-0.339245	-2.573864	-0.563100
2.240	4.196781	-0.396908	715.779963	-3.978692	18.482232	-0.332234	-2.582111	-0.555854
2.250	4.159835	-0.334391	715.794437	-3.910654	18.539412	-0.326149	-2.590047	-0.546338
2.260	4.128473	-0.241151	715.793732	-3.827888	18.591433	-0.322570	-2.597317	-0.534775
2.270	4.099901	-0.119681	715.771040	-3.734436	18.638074	-0.322474	-2.603916	-0.521736
2.280	4.069892	0.021054	715.725724	-3.635083	18.681565	-0.325963	-2.610157	-0.507888
2.290	4.034690	0.168676	715.663702	-3.533485	18.725444	-0.332262	-2.616514	-0.493735
2.300	3.992540	0.311939	715.596485	-3.430814	18.772982	-0.339954	-2.623403	-0.479434
2.310	3.944206	0.444976	715.538706	-3.325296	18.825880	-0.347408	-2.631008	-0.464726
2.320	3.892096	0.569334	715.503644	-3.212851	18.883733	-0.353249	-2.639223	-0.449033
2.330	3.838414	0.692518	715.497100	-3.088770	18.944395	-0.356726	-2.647725	-0.431696
