Time[s]	Fx[N]	Fy[N]	Fz[N]	Mx[Nm]	My[Nm]	Mz[Nm]	COPx[cm]	COPy[cm]
0.010	4.206132	-8.159625	479.968921	-0.330762	-8.050536	1.396348	1.677304	-0.068913
0.020	4.263368	-8.207285	479.945319	-0.321721	-7.989750	1.365752	1.664721	-0.067033
0.030	4.305522	-8.250866	479.879394	-0.318350	-7.931540	1.339818	1.652819	-0.066340
0.040	4.319424	-8.285170	479.748654	-0.324502	-7.876433	1.321938	1.641783	-0.067640
0.050	4.296082	-8.304138	479.559319	-0.341436	-7.822137	1.313445	1.631109	-0.071198
0.060	4.232685	-8.303262	479.343331	-0.367804	-7.763984	1.313525	1.619712	-0.076731
0.070	4.133885	-8.282941	479.144692	-0.400565	-7.696471	1.319742	1.606294	-0.083600
0.080	4.011448	-8.250729	479.002336	-0.436423	-7.615156	1.328898	1.589795	-0.091111
0.090	3.881628	-8.220704	478.937299	-0.473070	-7.518152	1.337912	1.569757	-0.098775
0.100	3.760750	-8.209645	478.948165	-0.509662	-7.406788	1.344458	1.546470	-0.106413
0.110	3.660615	-8.231338	479.014104	-0.546319	-7.285368	1.347217	1.520909	-0.114051
0.120	3.585651	-8.291219	479.102771	-0.583050	-7.160145	1.345812	1.494490	-0.121696
0.130	3.532868	-8.383549	479.180773	-0.618811	-7.037680	1.340627	1.468690	-0.129139
0.140	3.494192	-8.492419	479.224611	-0.651337	-6.923010	1.332610	1.444627	-0.135915
0.150	3.459765	-8.596546	479.228859	-0.677806	-6.818226	1.323017	1.422750	-0.141437
0.160	3.420866	-8.676183	479.207524	-0.695849	-6.722051	1.313086	1.402743	-0.145208
0.170	3.371839	-8.719458	479.186552	-0.704326	-6.630584	1.303729	1.383717	-0.146984
0.180	3.310997	-8.725651	479.190277	-0.703509	-6.538934	1.295351	1.364580	-0.146812
0.190	3.240725	-8.704286	479.228954	-0.694682	-6.443182	1.287902	1.344489	-0.144958
0.200	3.166854	-8.670856	479.294404	-0.679316	-6.342008	1.281067	1.323197	-0.141733
0.210	3.097315	-8.641117	479.365766	-0.658186	-6.237428	1.274499	1.301183	-0.137303
0.220	3.040020	-8.625997	479.421130	-0.630853	-6.134317	1.267952	1.279526	-0.131586
0.230	3.000206	-8.628416	479.448041	-0.595847	-6.038851	1.261333	1.259542	-0.124278
0.240	2.978044	-8.642630	479.447730	-0.551435	-5.956484	1.254714	1.242364	-0.115015
0.250	2.967789	-8.656237	479.432309	-0.496538	-5.890320	1.248285	1.228603	-0.103568
0.260	2.959334	-8.654356	479.418006	-0.431295	-5.840569	1.242257	1.218262	-0.089962
0.270	2.941839	-8.624706	479.418801	-0.357174	-5.805241	1.236743	1.210891	-0.074502
0.280	2.908053	-8.561796	479.443088	-0.276825	-5.781632	1.231727	1.205906	-0.057739
0.290	2.857610	-8.468698	479.493092	-0.193865	-5.767830	1.227175	1.202902	-0.040431
0.300	2.797959	-8.355911	479.565261	-0.112581	-5.763630	1.223211	1.201845	-0.023476
0.310	2.742371	-8.237976	479.650670	-0.037306	-5.770594	1.220138	1.203083	-0.007778
0.320	2.705670	-8.129370	479.736064	0.028590	-5.791328	1.218227	1.207190	0.005960
0.330	2.699456	-8.041151	479.806661	0.083754	-5.828290	1.217368	1.214716	0.017456
0.340	2.728776	-7.979214	479.850391	0.129281	-5.882696	1.216873	1.225944	0.026942
0.350	2.791281	-7.944144	479.861249	0.168068	-5.953959	1.215630	1.240767	0.035024
0.360	2.878683	-7.932050	479.839364	0.203248	-6.039823	1.212596	1.258718	0.042357
0.370	2.979668	-7.935754	479.788128	0.236480	-6.136964	1.207399	1.279099	0.049288
0.380	3.083272	-7.946136	479.711794	0.266986	-6.241687	1.200731	1.301133	0.055655
0.390	3.181717	-7.953988	479.616679	0.291847	-6.350383	1.194268	1.324054	0.060850
0.400	3.271829	-7.952602	479.515211	0.307422	-6.459598	1.190157	1.347110	0.064111
0.410	3.354646	-7.940399	479.428750	0.311204	-6.565939	1.190289	1.369534	0.064912
0.420	3.433622	-7.922086	479.385736	0.303183	-6.666238	1.195694	1.390579	0.063244
0.430	3.512589	-7.907075	479.414893	0.286045	-6.758252	1.206231	1.409688	0.059665
0.440	3.594621	-7.905433	479.535364	0.264145	-6.841626	1.220647	1.426720	0.055084
0.450	3.682013	-7.923211	479.746232	0.241863	-6.918476	1.236942	1.442112	0.050415
0.460	3.776484	-7.959351	480.018990	0.222208	-6.993009	1.252942	1.456819	0.046291
0.470	3.878542	-8.005578	480.297865	0.206241	-7.070132	1.266924	1.472031	0.042940
0.480	3.985933	-8.049202	480.511255	0.193318	-7.153594	1.278045	1.488746	0.040232
0.490	4.092289	-8.077713	480.592038	0.181789	-7.244450	1.286416	1.507401	0.037826
0.500	4.187401	-8.083487	480.498831	0.169853	-7.340476	1.292776	1.527678	0.035349
0.510	4.259654	-8.067069	480.229293	0.156346	-7.436657	1.298038	1.548564	0.032557
0.520	4.299782	-8.037862	479.820612	0.141214	-7.526445	1.302952	1.568596	0.029431
0.530	4.304083	-8.011689	479.338165	0.125403	-7.603310	1.308029	1.586210	0.026162
0.540	4.275455	-8.005792	478.857492	0.110155	-7.662151	1.313641	1.600090	0.023004
0.550	4.221864	-8.032928	478.446504	0.096097	-7.700267	1.320138	1.609431	0.020085
0.560	4.153261	-8.096823	478.154034	0.082731	-7.717768	1.327832	1.614076	0.017302
0.570	4.078601	-8.190706	478.007239	0.068689	-7.717454	1.336860	1.614506	0.014370
0.580	4.004309	-8.299439	478.015296	0.052584	-7.704339	1.346959	1.611735	0.011000
0.590	3.934608	-8.404306	478.173748	0.033863	-7.685008	1.357331	1.607158	0.007082
0.600	3.872953	-8.488481	478.465292	0.013151	-7.666939	1.366670	1.602402	0.002749
0.610	3.823041	-8.541187	478.857226	-0.007909	-7.657665	1.373435	1.599154	-0.001652
0.620	3.788273	-8.559448	479.299636	-0.026964	-7.663531	1.376333	1.598902	-0.005626
0.630	3.769942	-8.547489	479.728840	-0.041254	-7.688069	1.374812	1.602586	-0.008599
0.640	3.765694	-8.514508	480.077854	-0.048141	-7.730604	1.369303	1.610281	-0.010028
0.650	3.769879	-8.471676	480.291809	-0.046107	-7.785992	1.361068	1.621096	-0.009600
0.660	3.776091	-8.429227	480.343077	-0.035880	-7.845985	1.351759	1.633413	-0.007470
0.670	3.780525	-8.394415	480.239655	-0.020876	-7.901775	1.342944	1.645382	-0.004347
0.680	3.784053	-8.370833	480.022236	-0.006324	-7.946584	1.335778	1.655462	-0.001317
0.690	3.791507	-8.358962	479.750160	0.002730	-7.977137	1.330896	1.662769	0.000569
0.700	3.808291	-8.357217	479.482026	0.003453	-7.993603	1.328447	1.667133	0.000720
0.710	3.836058	-8.362741	479.259590	-0.003839	-7.998447	1.328181	1.668917	-0.000801
0.720	3.869971	-8.371879	479.101585	-0.016330	-7.995020	1.329532	1.668753	-0.003408
0.730	3.899315	-8.380747	479.008369	-0.030399	-7.986560	1.331720	1.667311	-0.006346
0.740	3.911549	-8.386069	478.972471	-0.043368	-7.975840	1.333928	1.665198	-0.009054
0.750	3.898004	-8.385959	478.987817	-0.054376	-7.965350	1.335494	1.662955	-0.011352
0.760	3.858537	-8.380187	479.052589	-0.064073	-7.957633	1.336033	1.661119	-0.013375
0.770	3.802825	-8.369878	479.165426	-0.073449	-7.955385	1.335435	1.660259	-0.015329
0.780	3.747588	-8.356900	479.318784	-0.082531	-7.961083	1.333762	1.660916	-0.017218
0.790	3.710957	-8.343218	479.494641	-0.089693	-7.976320	1.331170	1.663485	-0.018706
0.800	3.706527	-8.330412	479.665988	-0.092001	-8.001273	1.327878	1.668093	-0.019180
0.810	3.739570	-8.319431	479.804084	-0.086429	-8.034613	1.324200	1.674561	-0.018013
0.820	3.806425	-8.310664	479.887943	-0.071266	-8.073872	1.320606	1.682450	-0.014851
0.830	3.896427	-8.304279	479.910721	-0.046963	-8.116078	1.317769	1.691164	-0.009786
0.840	3.995067	-8.300523	479.879312	-0.016062	-8.158453	1.316493	1.700105	-0.003347
0.850	4.087418	-8.299524	479.807790	0.017543	-8.199005	1.317478	1.708810	0.003656
0.860	4.161353	-8.300614	479.709594	0.049561	-8.236810	1.320995	1.717041	0.010331
0.870	4.210076	-8.301854	479.593946	0.076207	-8.271809	1.326648	1.724753	0.015890
0.880	4.233399	-8.300521	479.468367	0.094983	-8.304215	1.333399	1.731963	0.019810
0.890	4.237303	-8.294571	479.343949	0.105154	-8.333854	1.339845	1.738596	0.021937
0.900	4.231853	-8.284241	479.237822	0.107671	-8.359869	1.344691	1.744409	0.022467
0.910	4.228112	-8.272711	479.169676	0.104493	-8.380974	1.347214	1.749062	0.021807
0.920	4.235158	-8.265117	479.154060	0.097719	-8.396152	1.347568	1.752286	0.020394
0.930	4.258005	-8.266242	479.193339	0.089045	-8.405355	1.346766	1.754063	0.018582
0.940	4.296591	-8.278134	479.275582	0.079733	-8.409725	1.346294	1.754674	0.016636
0.950	4.345612	-8.299017	479.378436	0.070909	-8.411106	1.347507	1.754586	0.014792
0.960	4.395181	-8.324029	479.477039	0.063807	-8.411087	1.351091	1.754221	0.013308
0.970	4.432653	-8.347222	479.552808	0.059703	-8.410079	1.356838	1.753734	0.012450
0.980	4.445854	-8.363595	479.599793	0.059496	-8.406823	1.363803	1.752883	0.012405
0.990	4.427140	-8.370138	479.625797	0.063142	-8.398498	1.370691	1.751052	0.013165
1.000	4.376712	-8.365674	479.647479	0.069350	-8.381417	1.376280	1.747412	0.014459
1.010	4.303267	-8.350165	479.681486	0.075828	-8.352187	1.379766	1.741194	0.015808
1.020	4.221167	-8.324419	479.735582	0.080014	-8.309029	1.380966	1.732002	0.016679
1.030	4.145174	-8.290606	479.804045	0.079908	-8.252814	1.380304	1.720038	0.016654
1.040	4.085193	-8.253193	479.870041	0.074629	-8.187413	1.378525	1.706173	0.015552
1.050	4.043537	-8.219285	479.914094	0.064572	-8.119180	1.376260	1.691799	0.013455
1.060	4.015883	-8.197469	479.924031	0.051149	-8.055569	1.373660	1.678509	0.010658
1.070	3.995103	-8.194975	479.901186	0.036221	-8.003235	1.370328	1.667684	0.007548
1.080	3.975477	-8.214181	479.860466	0.021351	-7.966235	1.365577	1.660115	0.004449
1.090	3.954837	-8.250475	479.824827	0.007167	-7.945072	1.358884	1.655828	0.001494
1.100	3.934028	-8.293180	479.816283	-0.006871	-7.936921	1.350290	1.654158	-0.001432
1.110	3.915193	-8.329534	479.846696	-0.022147	-7.936828	1.340520	1.654034	-0.004615
1.120	3.900793	-8.349778	479.912168	-0.040129	-7.939339	1.330729	1.654332	-0.008362
1.130	3.893781	-8.350793	479.993299	-0.061530	-7.940035	1.322032	1.654197	-0.012819
1.140	3.897798	-8.336830	480.060778	-0.085737	-7.936541	1.315074	1.653237	-0.017860
1.150	3.916209	-8.317461	480.083724	-0.110754	-7.928706	1.309937	1.651526	-0.023070
1.160	3.950061	-8.303921	480.037918	-0.133776	-7.917863	1.306400	1.649424	-0.027868
1.170	3.996229	-8.305380	479.911527	-0.152344	-7.905515	1.304355	1.647286	-0.031744
1.180	4.047186	-8.326384	479.706872	-0.165700	-7.892112	1.304047	1.645195	-0.034542
1.190	4.092859	-8.366157	479.438656	-0.175615	-7.876519	1.305939	1.642863	-0.036629
1.200	4.123575	-8.419627	479.131066	-0.186070	-7.856375	1.310274	1.639713	-0.038835
1.210	4.132387	-8.479615	478.815968	-0.201780	-7.829023	1.316642	1.635080	-0.042142
1.220	4.115659	-8.539362	478.531325	-0.226308	-7.792384	1.323836	1.628396	-0.047292
1.230	4.072256	-8.594420	478.316581	-0.260674	-7.745341	1.330121	1.619292	-0.054498
1.240	4.002580	-8.643068	478.203819	-0.303019	-7.687652	1.333785	1.607610	-0.063366
1.250	3.908446	-8.685258	478.208446	-0.349256	-7.619785	1.333703	1.593402	-0.073034
1.260	3.793882	-8.721059	478.325172	-0.394341	-7.543087	1.329698	1.576979	-0.082442
1.270	3.666192	-8.749837	478.531511	-0.433654	-7.460259	1.322603	1.558990	-0.090622
1.280	3.536322	-8.770689	478.795662	-0.464115	-7.375726	1.314029	1.540475	-0.096934
1.290	3.417633	-8.783709	479.083676	-0.484732	-7.295363	1.305916	1.522774	-0.101179
1.300	3.322918	-8.791125	479.363010	-0.496405	-7.225372	1.300007	1.507286	-0.103555
1.310	3.260624	-8.797394	479.603087	-0.501018	-7.170510	1.297409	1.495092	-0.104465
1.320	3.232018	-8.807909	479.775712	-0.500127	-7.132313	1.298379	1.486593	-0.104242
1.330	3.230714	-8.826818	479.858480	-0.493832	-7.108160	1.302382	1.481303	-0.102912
1.340	3.244623	-8.854860	479.841943	-0.480462	-7.091772	1.308331	1.477939	-0.100129
1.350	3.259171	-8.888083	479.736975	-0.457369	-7.075052	1.314871	1.474777	-0.095338
1.360	3.260456	-8.917942	479.575907	-0.422536	-7.050456	1.320600	1.470144	-0.088106
1.370	3.237753	-8.933008	479.403854	-0.376104	-7.012948	1.324260	1.462848	-0.078452
1.380	3.185364	-8.922207	479.263621	-0.320878	-6.960932	1.324940	1.452422	-0.066952
1.390	3.103681	-8.878876	479.182292	-0.261484	-6.896094	1.322291	1.439138	-0.054569
1.400	2.998888	-8.804070	479.165819	-0.202760	-6.822493	1.316683	1.423827	-0.042315
1.410	2.880998	-8.707315	479.202468	-0.148353	-6.745450	1.309250	1.407641	-0.030958
1.420	2.760789	-8.603949	479.271579	-0.100120	-6.670602	1.301738	1.391821	-0.020890
1.430	2.646867	-8.510055	479.352551	-0.058246	-6.603187	1.296088	1.377522	-0.012151
1.440	2.543919	-8.437339	479.429941	-0.021664	-6.547476	1.293826	1.365679	-0.004519
1.450	2.452708	-8.390271	479.493624	0.011448	-6.506384	1.295491	1.356928	0.002387
1.460	2.371744	-8.366345	479.536334	0.043044	-6.481353	1.300405	1.351587	0.008976
1.470	2.299832	-8.358598	479.551935	0.074388	-6.472539	1.306931	1.349706	0.015512
1.480	2.238219	-8.358730	479.536087	0.105268	-6.479263	1.313128	1.351152	0.021952
1.490	2.191243	-8.359518	479.488429	0.133795	-6.500566	1.317494	1.355730	0.027904
1.500	2.165239	-8.355989	479.413889	0.157156	-6.535645	1.319440	1.363257	0.032781
1.510	2.166379	-8.345408	479.321406	0.173082	-6.583983	1.319286	1.373605	0.036110
1.520	2.198461	-8.326629	479.221258	0.181120	-6.645196	1.317845	1.386665	0.037795
1.530	2.261676	-8.299605	479.124348	0.182841	-6.718823	1.315897	1.402313	0.038161
1.540	2.352966	-8.265627	479.044986	0.180854	-6.804393	1.313866	1.420408	0.037753
1.550	2.467732	-8.228103	479.003827	0.177332	-6.901858	1.311816	1.440877	0.037021
1.560	2.601782	-8.192988	479.025189	0.173068	-7.012070	1.309686	1.463821	0.036129
1.570	2.752201	-8.167944	479.126525	0.167603	-7.136667	1.307539	1.489516	0.034981
1.580	2.916488	-8.159925	479.304832	0.160059	-7.277056	1.305659	1.518252	0.033394
1.590	3.090521	-8.171990	479.529027	0.149824	-7.432893	1.304471	1.550040	0.031244
1.600	3.266907	-8.201167	479.745269	0.136528	-7.600924	1.304379	1.584367	0.028458
1.610	3.435364	-8.239059	479.895070	0.119562	-7.774936	1.305629	1.620133	0.024914
1.620	3.585636	-8.275444	479.938299	0.097855	-7.947042	1.308262	1.655847	0.020389
1.630	3.711617	-8.303162	479.869602	0.070326	-8.109865	1.312122	1.690014	0.014655
1.640	3.814097	-8.321545	479.719754	0.036757	-8.258856	1.316914	1.721600	0.007662
1.650	3.900202	-8.336278	479.541407	-0.001514	-8.393864	1.322238	1.750394	-0.000316
1.660	3.979767	-8.355637	479.386606	-0.041495	-8.519337	1.327598	1.777133	-0.008656
1.670	4.060716	-8.385027	479.287141	-0.079010	-8.642834	1.332397	1.803268	-0.016485
1.680	4.145811	-8.422678	479.246608	-0.109455	-8.772165	1.336016	1.830407	-0.022839
1.690	4.232044	-8.458726	479.246506	-0.128694	-8.912168	1.337982	1.859621	-0.026853
1.700	4.312701	-8.478371	479.261487	-0.133907	-9.062488	1.338138	1.890928	-0.027940
1.710	4.381222	-8.467817	479.275073	-0.124229	-9.217404	1.336725	1.923197	-0.025920
1.720	4.435136	-8.420284	479.287831	-0.100990	-9.367803	1.334368	1.954525	-0.021071
1.730	4.477760	-8.339252	479.314593	-0.067553	-9.504488	1.331967	1.982933	-0.014094
1.740	4.516069	-8.237531	479.373771	-0.028815	-9.621439	1.330504	2.007085	-0.006011
1.750	4.555540	-8.132787	479.476338	0.009516	-9.717724	1.330783	2.026737	0.001985
1.760	4.595237	-8.041881	479.621060	0.041838	-9.797415	1.333186	2.042741	0.008723
1.770	4.626820	-7.976785	479.797052	0.063664	-9.867720	1.337575	2.056645	0.013269
1.780	4.638644	-7.943567	479.989429	0.072452	-9.936202	1.343413	2.070088	0.015095
1.790	4.622745	-7.943762	480.182693	0.067905	-10.008232	1.350034	2.084255	0.014141
1.800	4.580824	-7.976149	480.359947	0.051604	-10.085614	1.356936	2.099595	0.010743
1.810	4.526229	-8.037287	480.500703	0.026216	-10.166829	1.363962	2.115882	0.005456
1.820	4.481115	-8.120805	480.581176	-0.005351	-10.248670	1.371336	2.132558	-0.001114
1.830	4.469808	-8.216807	480.577798	-0.040555	-10.328388	1.379556	2.149160	-0.008439
1.840	4.510567	-8.312926	480.471592	-0.077578	-10.405143	1.389185	2.165610	-0.016146
1.850	4.608618	-8.397463	480.251918	-0.115491	-10.479989	1.400517	2.182186	-0.024048
1.860	4.753182	-8.463536	479.920784	-0.154264	-10.554450	1.413235	2.199207	-0.032144
1.870	4.919939	-8.512289	479.498726	-0.194633	-10.628660	1.426267	2.216619	-0.040591
1.880	5.078232	-8.553261	479.029313	-0.237839	-10.700224	1.438046	2.233730	-0.049650
1.890	5.200277	-8.601177	478.576195	-0.285302	-10.764469	1.447080	2.249270	-0.059615
1.900	5.268754	-8.670222	478.208901	-0.338205	-10.815847	1.452536	2.261741	-0.070723
1.910	5.279880	-8.768241	477.981170	-0.396945	-10.849619	1.454536	2.269884	-0.083046
1.920	5.241403	-8.893391	477.912515	-0.460544	-10.862931	1.454037	2.272996	-0.096366
1.930	5.167478	-9.034571	477.983840	-0.526401	-10.854897	1.452361	2.270976	-0.110130
1.940	5.073476	-9.175241	478.149982	-0.590764	-10.825999	1.450577	2.264143	-0.123552
1.950	4.972760	-9.298821	478.362198	-0.649904	-10.777524	1.449069	2.253005	-0.135860
1.960	4.875656	-9.393508	478.588399	-0.701407	-10.711582	1.447533	2.238162	-0.146557
1.970	4.789556	-9.454917	478.820905	-0.744850	-10.631622	1.445362	2.220375	-0.155559
1.980	4.719006	-9.486147	479.068688	-0.781512	-10.542833	1.442140	2.200693	-0.163132
1.990	4.665463	-9.495829	479.339912	-0.813331	-10.451739	1.437891	2.180444	-0.169677
2.000	4.627313	-9.495127	479.626097	-0.841715	-10.364877	1.432965	2.161033	-0.175494
2.010	4.600844	-9.494663	479.897731	-0.866793	-10.287059	1.427753	2.143594	-0.180620
2.020	4.582099	-9.501959	480.113579	-0.887376	-10.220073	1.422490	2.128678	-0.184826
2.030	4.568696	-9.519712	480.237729	-0.901498	-10.162403	1.417319	2.116119	-0.187719
2.040	4.560576	-9.545131	480.254972	-0.907110	-10.110090	1.412509	2.105150	-0.188881
2.050	4.559268	-9.570717	480.177321	-0.902651	-10.058342	1.408573	2.094714	-0.187983
2.060	4.566067	-9.586636	480.039601	-0.887405	-10.003233	1.406062	2.083835	-0.184861
2.070	4.579913	-9.584114	479.886887	-0.861619	-9.942825	1.405091	2.071910	-0.179546
2.080	4.595747	-9.558525	479.759260	-0.826281	-9.877307	1.404929	2.058805	-0.172228
2.090	4.604026	-9.510800	479.679942	-0.782615	-9.808258	1.404064	2.044751	-0.163154
2.100	4.591978	-9.446641	479.651600	-0.731566	-9.737567	1.400779	2.030133	-0.152520
2.110	4.546819	-9.374176	479.662277	-0.673693	-9.666641	1.393966	2.015301	-0.140452
2.120	4.460337	-9.301213	479.697046	-0.609553	-9.596220	1.383698	2.000475	-0.127070
2.130	4.333311	-9.233007	479.747769	-0.540345	-9.526674	1.371265	1.985767	-0.112631
2.140	4.177784	-9.171012	479.815189	-0.468388	-9.458479	1.358668	1.971275	-0.097618
2.150	4.015714	-9.112952	479.903772	-0.397108	-9.392691	1.347854	1.957203	-0.082747
2.160	3.873877	-9.054317	480.014479	-0.330470	-9.331355	1.340096	1.943974	-0.068846
2.170	3.776676	-8.990928	480.140082	-0.271966	-9.277787	1.335821	1.932308	-0.056643
2.180	3.739753	-8.921544	480.264213	-0.223439	-9.236618	1.334859	1.923237	-0.046524
2.190	3.766918	-8.849227	480.363265	-0.184130	-9.213447	1.336883	1.918017	-0.038332
2.200	3.851056	-8.780637	480.410567	-0.150379	-9.213994	1.341726	1.917942	-0.031302
2.210	3.977623	-8.723465	480.382810	-0.116253	-9.242741	1.349419	1.924037	-0.024200
2.220	4.128656	-8.683134	480.267888	-0.075069	-9.301314	1.359939	1.936693	-0.015631
2.230	4.285985	-8.660272	480.071637	-0.021403	-9.387097	1.372868	1.955353	-0.004458
2.240	4.433535	-8.650007	479.819938	0.047074	-9.492693	1.387207	1.978386	0.009811
2.250	4.559023	-8.643432	479.553920	0.128687	-9.606634	1.401506	2.003244	0.026835
2.260	4.654908	-8.630720	479.319102	0.218182	-9.715263	1.414259	2.026888	0.045519
2.270	4.718204	-8.604630	479.152456	0.308362	-9.805208	1.424325	2.046365	0.064356
2.280	4.749249	-8.562760	479.072344	0.392240	-9.865684	1.431167	2.059331	0.081875
2.290	4.750141	-8.507566	479.075041	0.464870	-9.890064	1.434838	2.064408	0.097035
2.300	4.723566	-8.444570	479.138807	0.524314	-9.876475	1.435805	2.061297	0.109428
2.310	4.672326	-8.380229	479.233417	0.571590	-9.827426	1.434776	2.050655	0.119272
2.320	4.599536	-8.320751	479.330995	0.609803	-9.748703	1.432578	2.033814	0.127220
2.330	4.509325	-8.272045	479.414001	0.642875	-9.647895	1.430010	2.012435	0.134096
2.340	4.407686	-8.239892	479.477891	0.674314	-9.532943	1.427635	1.988192	0.140635
2.350	4.302797	-8.229280	479.528230	0.706391	-9.410891	1.425542	1.962531	0.147310
2.360	4.204170	-8.242468	479.574087	0.739855	-9.286987	1.423236	1.936507	0.154273
2.370	4.120390	-8.276596	479.621078	0.774178	-9.164247	1.419809	1.910726	0.161415
2.380	4.056025	-8.322484	479.667700	0.808186	-9.043550	1.414342	1.885378	0.168489
2.390	4.009242	-8.365989	479.706802	0.840737	-8.924132	1.406372	1.860331	0.175261
