Time[s]	Fx[N]	Fy[N]	Fz[N]	Mx[Nm]	My[Nm]	Mz[Nm]	COPx[cm]	COPy[cm]
0.010	2.515850	-1.426524	511.365385	2.793481	-3.696617	0.139704	0.722892	0.546279
0.020	2.637136	-1.394330	511.487294	2.772015	-3.642024	0.144813	0.712046	0.541952
0.030	2.753117	-1.366157	511.635074	2.755241	-3.591434	0.151358	0.701952	0.538517
0.040	2.859006	-1.345755	511.810380	2.745874	-3.548374	0.159943	0.693298	0.536502
0.050	2.949718	-1.336223	511.984865	2.743557	-3.514890	0.170084	0.686522	0.535867
0.060	3.020032	-1.339594	512.108298	2.745011	-3.491243	0.180412	0.681739	0.536022
0.070	3.065227	-1.356248	512.128358	2.745303	-3.475913	0.189300	0.678719	0.536058
0.080	3.082175	-1.384303	512.012504	2.739687	-3.465840	0.195559	0.676905	0.535082
0.090	3.070497	-1.419449	511.763350	2.725324	-3.456900	0.198818	0.675488	0.532536
0.100	3.033027	-1.455869	511.422458	2.702305	-3.444590	0.199445	0.673531	0.528390
0.110	2.975172	-1.488205	511.061704	2.673611	-3.424883	0.198179	0.670151	0.523148
0.120	2.903659	-1.513657	510.765113	2.643995	-3.395135	0.195751	0.664715	0.517654
0.130	2.825686	-1.532926	510.606539	2.618203	-3.354795	0.192705	0.657022	0.512763
0.140	2.749134	-1.549454	510.628990	2.599270	-3.305695	0.189401	0.647377	0.509033
0.150	2.683363	-1.567462	510.830722	2.587538	-3.251777	0.186089	0.636566	0.506535
0.160	2.639242	-1.589828	511.162370	2.580749	-3.198321	0.182944	0.625696	0.504879
0.170	2.627288	-1.616704	511.537735	2.575103	-3.150776	0.180094	0.615942	0.503404
0.180	2.654074	-1.645418	511.857080	2.566808	-3.113354	0.177688	0.608247	0.501470
0.190	2.718507	-1.671739	512.036254	2.553453	-3.087722	0.175999	0.603028	0.498686
0.200	2.810049	-1.691962	512.031031	2.534695	-3.072358	0.175439	0.600034	0.495028
0.210	2.910102	-1.704669	511.847042	2.512121	-3.062931	0.176403	0.598407	0.490795
0.220	2.996269	-1.711029	511.532250	2.488478	-3.053590	0.179026	0.596950	0.486475
0.230	3.047896	-1.713452	511.157409	2.466601	-3.038595	0.183017	0.594454	0.482552
0.240	3.051043	-1.713550	510.794320	2.448402	-3.013706	0.187727	0.590004	0.479332
0.250	3.001603	-1.710746	510.499868	2.434264	-2.977002	0.192444	0.583154	0.476839
0.260	2.906104	-1.702353	510.308762	2.423122	-2.929058	0.196700	0.573978	0.474835
0.270	2.780149	-1.684975	510.233767	2.413270	-2.872559	0.200428	0.562989	0.472973
0.280	2.644708	-1.656560	510.270205	2.403497	-2.811485	0.203871	0.550980	0.471024
0.290	2.520928	-1.618246	510.401151	2.393856	-2.750095	0.207307	0.538810	0.469015
0.300	2.424828	-1.575175	510.600886	2.385542	-2.691928	0.210771	0.527208	0.467203
0.310	2.363746	-1.535700	510.836714	2.380011	-2.639112	0.213960	0.516625	0.465904
0.320	2.335889	-1.509026	511.071484	2.377946	-2.592168	0.216374	0.507203	0.465286
0.330	2.332956	-1.502198	511.268953	2.378691	-2.550373	0.217603	0.498832	0.465252
0.340	2.344457	-1.517710	511.401174	2.380287	-2.512407	0.217582	0.491279	0.465444
0.350	2.361849	-1.552642	511.454455	2.379955	-2.476928	0.216707	0.484291	0.465331
0.360	2.380933	-1.599454	511.430928	2.374769	-2.442875	0.215732	0.477655	0.464338
0.370	2.401618	-1.648135	511.345919	2.362425	-2.409509	0.215497	0.471209	0.462001
0.380	2.425287	-1.689055	511.223312	2.342024	-2.376283	0.216587	0.464823	0.458121
0.390	2.451337	-1.715607	511.090394	2.314658	-2.342537	0.219074	0.458341	0.452886
0.400	2.475140	-1.725776	510.972235	2.283456	-2.307200	0.222492	0.451531	0.446884
0.410	2.488735	-1.722252	510.885755	2.252887	-2.268751	0.226044	0.444082	0.440977
0.420	2.483684	-1.711144	510.834968	2.227457	-2.225586	0.228957	0.435676	0.436042
0.430	2.454239	-1.699624	510.809826	2.210238	-2.176659	0.230815	0.426119	0.432693
0.440	2.399137	-1.693066	510.790435	2.201807	-2.121983	0.231716	0.415431	0.431059
0.450	2.321538	-1.692849	510.756237	2.199976	-2.062653	0.232141	0.403843	0.430729
0.460	2.227827	-1.696085	510.696778	2.200404	-2.000414	0.232547	0.391703	0.430863
0.470	2.126270	-1.697630	510.618860	2.197787	-1.937172	0.232917	0.379377	0.430416
0.480	2.025956	-1.693339	510.546114	2.187232	-1.874845	0.232598	0.367223	0.428410
0.490	1.935798	-1.682697	510.510875	2.165475	-1.815595	0.230557	0.355643	0.424178
0.500	1.863243	-1.669382	510.541807	2.131773	-1.762143	0.225944	0.345151	0.417551
0.510	1.812922	-1.659498	510.652072	2.088246	-1.717815	0.218592	0.336396	0.408937
0.520	1.785796	-1.658380	510.832400	2.039415	-1.686110	0.209163	0.330071	0.399234
0.530	1.779353	-1.667553	511.052081	1.990931	-1.669849	0.198870	0.326747	0.389575
0.540	1.788916	-1.683379	511.268526	1.947867	-1.670221	0.188991	0.326682	0.380987
0.550	1.809496	-1.698332	511.442198	1.913266	-1.686199	0.180480	0.329695	0.374092
0.560	1.837210	-1.704533	511.550438	1.887465	-1.714667	0.173836	0.335190	0.368969
0.570	1.869560	-1.697753	511.593897	1.868319	-1.751233	0.169219	0.342309	0.365196
0.580	1.904576	-1.679685	511.592821	1.852092	-1.791363	0.166623	0.350154	0.362025
0.590	1.939538	-1.657334	511.575012	1.834662	-1.831388	0.165920	0.357990	0.358630
0.600	1.970382	-1.640148	511.561077	1.812711	-1.869122	0.166678	0.365376	0.354349
0.610	1.992581	-1.636592	511.554463	1.784585	-1.904064	0.167912	0.372211	0.348855
0.620	2.003333	-1.651814	511.542012	1.750555	-1.937264	0.168074	0.378711	0.342211
0.630	2.003807	-1.686960	511.504742	1.712484	-1.970917	0.165460	0.385318	0.334793
0.640	1.999865	-1.739708	511.431872	1.673047	-2.007718	0.158882	0.392568	0.327130
0.650	2.000515	-1.805149	511.329319	1.634775	-2.050141	0.148250	0.400943	0.319711
0.660	2.014658	-1.876533	511.218301	1.599205	-2.099909	0.134761	0.410766	0.312822
0.670	2.047788	-1.945989	511.126154	1.566446	-2.157846	0.120610	0.422175	0.306470
0.680	2.100308	-2.005597	511.074971	1.535380	-2.224059	0.108360	0.435173	0.300422
0.690	2.168094	-2.048894	511.073296	1.504389	-2.298142	0.100202	0.449670	0.294359
0.700	2.244666	-2.072524	511.113906	1.472244	-2.379144	0.097335	0.465482	0.288046
0.710	2.323555	-2.077483	511.178419	1.438701	-2.465394	0.099667	0.482296	0.281448
0.720	2.399654	-2.069366	511.246909	1.404565	-2.554525	0.105926	0.499666	0.274733
0.730	2.469298	-2.057170	511.307978	1.371211	-2.643929	0.114116	0.517091	0.268177
0.740	2.529786	-2.050803	511.363840	1.339805	-2.731546	0.122134	0.534169	0.262006
0.750	2.579490	-2.058156	511.427195	1.310658	-2.816607	0.128276	0.550735	0.256275
0.760	2.619079	-2.082838	511.511150	1.283063	-2.899940	0.131501	0.566936	0.250838
0.770	2.653051	-2.123314	511.617406	1.255652	-2.983683	0.131477	0.583186	0.245428
0.780	2.689866	-2.173558	511.729266	1.226975	-3.070479	0.128506	0.600020	0.239770
0.790	2.739512	-2.224888	511.813839	1.195967	-3.162405	0.123419	0.617882	0.233672
0.800	2.809082	-2.268477	511.832827	1.162188	-3.260062	0.117442	0.636939	0.227064
0.810	2.898534	-2.297924	511.756525	1.125923	-3.362240	0.111983	0.657000	0.220011
0.820	2.999052	-2.311185	511.574583	1.088232	-3.466287	0.108331	0.677572	0.212722
0.830	3.095199	-2.311086	511.299943	1.050973	-3.568903	0.107330	0.698006	0.205549
0.840	3.170143	-2.304045	510.966085	1.016640	-3.666910	0.109142	0.717643	0.198964
0.850	3.211803	-2.297449	510.619567	0.987872	-3.757818	0.113234	0.735933	0.193465
0.860	3.217456	-2.296861	510.309929	0.966785	-3.840182	0.118612	0.752520	0.189450
0.870	3.195166	-2.304345	510.079243	0.954479	-3.913794	0.124243	0.767291	0.187124
0.880	3.161627	-2.318513	509.954201	0.950983	-3.979648	0.129495	0.780393	0.186484
0.890	3.137215	-2.335964	509.943280	0.955532	-4.039648	0.134349	0.792176	0.187380
0.900	3.139974	-2.353136	510.039257	0.966866	-4.096116	0.139266	0.803098	0.189567
0.910	3.180609	-2.367662	510.224767	0.983338	-4.151249	0.144782	0.813612	0.192726
0.920	3.260154	-2.378716	510.477601	1.002920	-4.206679	0.151114	0.824067	0.196467
0.930	3.370797	-2.386454	510.773510	1.023311	-4.263175	0.158014	0.834651	0.200345
0.940	3.499138	-2.391021	511.086572	1.042331	-4.320521	0.164912	0.845360	0.203944
0.950	3.630421	-2.391768	511.388995	1.058602	-4.377534	0.171196	0.856009	0.207005
0.960	3.752258	-2.387145	511.652240	1.072310	-4.432245	0.176436	0.866261	0.209578
0.970	3.856788	-2.375347	511.849981	1.085603	-4.482222	0.180465	0.875691	0.212094
0.980	3.940887	-2.355378	511.962277	1.102228	-4.525022	0.183337	0.883858	0.215295
0.990	4.004724	-2.328001	511.979845	1.126345	-4.558732	0.185248	0.890412	0.219998
1.000	4.049656	-2.296076	511.906832	1.160988	-4.582444	0.186472	0.895171	0.226797
1.010	4.076788	-2.264105	511.760132	1.206892	-4.596466	0.187312	0.898168	0.235832
1.020	4.087022	-2.237051	511.564593	1.262165	-4.602153	0.188009	0.899623	0.246727
1.030	4.082361	-2.218711	511.346234	1.322872	-4.601452	0.188673	0.899870	0.258704
1.040	4.067313	-2.210169	511.127388	1.384290	-4.596465	0.189274	0.899280	0.270831
1.050	4.049106	-2.209033	510.926528	1.442400	-4.589208	0.189755	0.898213	0.282311
1.060	4.036062	-2.210052	510.762149	1.495094	-4.581465	0.190197	0.896986	0.292718
1.070	4.034548	-2.206980	510.656964	1.542610	-4.574491	0.190913	0.895805	0.302083
1.080	4.045848	-2.194852	510.637495	1.587046	-4.568465	0.192341	0.894659	0.310797
1.090	4.064486	-2.171685	510.726517	1.631246	-4.562044	0.194722	0.893246	0.319397
1.100	4.078930	-2.138904	510.930852	1.677660	-4.552391	0.197731	0.890999	0.328354
1.110	4.074751	-2.100281	511.231084	1.727636	-4.535844	0.200356	0.887239	0.337937
1.120	4.039335	-2.059712	511.579329	1.781286	-4.509019	0.201212	0.881392	0.348193
1.130	3.966522	-2.018834	511.906902	1.837776	-4.470047	0.199181	0.873215	0.359006
1.140	3.859212	-1.975839	512.139420	1.895783	-4.419558	0.194029	0.862960	0.370169
1.150	3.728692	-1.926320	512.215013	1.953860	-4.361046	0.186646	0.851409	0.381453
1.160	3.590859	-1.865755	512.100862	2.010638	-4.300315	0.178730	0.839740	0.392625
1.170	3.460996	-1.792250	511.803321	2.064981	-4.243990	0.172054	0.829223	0.403472
1.180	3.349338	-1.708136	511.368337	2.116200	-4.197515	0.167682	0.820840	0.413831
1.190	3.259149	-1.619751	510.871726	2.164295	-4.163441	0.165572	0.814968	0.423647
1.200	3.187699	-1.535612	510.401509	2.210080	-4.140806	0.164719	0.811284	0.433008
1.210	3.129179	-1.463775	510.036350	2.255148	-4.125916	0.163705	0.808946	0.442154
1.220	3.078061	-1.409377	509.826060	2.301731	-4.114048	0.161349	0.806951	0.451474
1.230	3.031741	-1.373233	509.781076	2.352389	-4.101209	0.157185	0.804504	0.461451
1.240	2.991839	-1.351874	509.875270	2.409371	-4.085217	0.151587	0.801219	0.472541
1.250	2.963845	-1.338831	510.060502	2.473739	-4.065860	0.145540	0.797133	0.484989
1.260	2.954987	-1.326636	510.285855	2.544733	-4.044352	0.140213	0.792566	0.498688
1.270	2.970776	-1.309025	510.513050	2.619892	-4.022496	0.136556	0.787932	0.513188
1.280	3.011599	-1.282808	510.722459	2.695978	-4.002003	0.135019	0.783596	0.527875
1.290	3.071169	-1.248827	510.909254	2.770168	-3.984147	0.135452	0.779815	0.542204
1.300	3.137931	-1.211687	511.073784	2.840841	-3.969742	0.137181	0.776745	0.555857
1.310	3.198922	-1.178349	511.212434	2.907510	-3.959256	0.139273	0.774484	0.568748
1.320	3.244280	-1.156003	511.314071	2.970057	-3.952893	0.140896	0.773085	0.580867
1.330	3.270393	-1.149720	511.363473	3.027897	-3.950595	0.141636	0.772561	0.592122
1.340	3.280392	-1.160544	511.349318	3.079747	-3.951973	0.141604	0.772852	0.602278
1.350	3.281950	-1.184755	511.272745	3.124140	-3.956220	0.141259	0.773798	0.611052
1.360	3.283548	-1.214722	511.152853	3.160278	-3.962056	0.141087	0.775122	0.618265
1.370	3.291072	-1.241001	511.026103	3.188598	-3.967790	0.141336	0.776436	0.623960
1.380	3.306310	-1.254849	510.937831	3.210755	-3.971512	0.141998	0.777298	0.628404
1.390	3.327696	-1.250374	510.927217	3.229078	-3.971410	0.142963	0.777295	0.632003
1.400	3.352305	-1.225812	511.011159	3.245733	-3.966100	0.144154	0.776128	0.635159
1.410	3.377611	-1.183647	511.174804	3.261954	-3.954804	0.145514	0.773670	0.638129
1.420	3.402058	-1.129585	511.374463	3.277703	-3.937311	0.146902	0.769947	0.640959
1.430	3.424475	-1.070811	511.552837	3.292026	-3.913836	0.148095	0.765089	0.643536
1.440	3.443066	-1.014326	511.659706	3.304024	-3.885082	0.148965	0.759310	0.645746
1.450	3.454799	-0.965981	511.668035	3.313886	-3.852577	0.149766	0.752945	0.647663
1.460	3.455706	-0.930224	511.578382	3.323336	-3.819041	0.151256	0.746521	0.649624
1.470	3.441889	-0.910235	511.411619	3.335181	-3.788253	0.154540	0.740744	0.652152
1.480	3.410638	-0.908085	511.196133	3.352231	-3.764125	0.160644	0.736337	0.655762
1.490	3.361227	-0.924688	510.957205	3.376187	-3.749258	0.170051	0.733772	0.660757
1.500	3.295333	-0.959385	510.712933	3.406927	-3.743693	0.182403	0.733033	0.667092
1.510	3.217141	-1.009259	510.476343	3.442330	-3.744600	0.196516	0.733550	0.674337
1.520	3.133042	-1.068640	510.260155	3.478582	-3.747179	0.210720	0.734366	0.681727
1.530	3.050862	-1.129449	510.080429	3.510890	-3.746424	0.223385	0.734477	0.688301
1.540	2.978843	-1.182630	509.956693	3.534580	-3.738931	0.233430	0.733186	0.693114
1.550	2.924753	-1.220189	509.908200	3.546374	-3.723914	0.240612	0.730311	0.695493
1.560	2.895365	-1.236996	509.947948	3.545447	-3.703077	0.245490	0.726168	0.695257
1.570	2.895935	-1.231770	510.077438	3.533796	-3.679559	0.249093	0.721373	0.692796
1.580	2.929182	-1.207324	510.284820	3.515662	-3.656533	0.252436	0.716567	0.688961
1.590	2.993667	-1.170410	510.547257	3.496199	-3.636081	0.256103	0.712193	0.684794
1.600	3.082419	-1.131041	510.836075	3.479926	-3.618786	0.260064	0.708405	0.681222
1.610	3.183119	-1.100717	511.121746	3.469517	-3.604086	0.263752	0.705133	0.678804
1.620	3.280446	-1.089333	511.376278	3.465207	-3.591021	0.266360	0.702227	0.677624
1.630	3.359808	-1.101775	511.573115	3.464874	-3.578840	0.267193	0.699576	0.677298
1.640	3.410939	-1.135972	511.687328	3.464800	-3.567108	0.265904	0.697127	0.677132
1.650	3.430196	-1.183651	511.699200	3.461009	-3.555342	0.262509	0.694811	0.676376
1.660	3.421138	-1.233557	511.601118	3.450747	-3.542616	0.257261	0.692457	0.674500
1.670	3.393299	-1.275534	511.403545	3.433458	-3.527522	0.250535	0.689773	0.671379
1.680	3.359170	-1.303615	511.135059	3.410775	-3.508554	0.242806	0.686424	0.667294
1.690	3.329844	-1.317031	510.835594	3.385653	-3.484642	0.234625	0.682146	0.662768
1.700	3.310745	-1.319217	510.547107	3.361098	-3.455503	0.226494	0.676824	0.658333
1.710	3.299547	-1.315729	510.306669	3.339100	-3.421661	0.218693	0.670511	0.654332
1.720	3.287731	-1.311974	510.143432	3.320155	-3.384188	0.211244	0.663380	0.650828
1.730	3.265262	-1.311385	510.077140	3.303563	-3.344275	0.204128	0.655641	0.647659
1.740	3.226038	-1.314485	510.115628	3.288295	-3.302786	0.197629	0.647458	0.644618
1.750	3.171461	-1.319138	510.251586	3.273973	-3.259921	0.192512	0.638885	0.641639
1.760	3.110606	-1.321901	510.461555	3.261397	-3.215127	0.189819	0.629847	0.638911
1.770	3.057027	-1.319818	510.709843	3.252320	-3.167270	0.190381	0.620170	0.636823
1.780	3.023556	-1.311838	510.956898	3.248585	-3.114948	0.194355	0.609630	0.635785
1.790	3.017144	-1.299296	511.168242	3.251097	-3.056801	0.201025	0.598003	0.636013
1.800	3.035657	-1.285424	511.319409	3.259084	-2.991782	0.208940	0.585110	0.637387
1.810	3.067728	-1.274292	511.395509	3.269981	-2.919410	0.216306	0.570871	0.639423
1.820	3.095692	-1.269665	511.388466	3.280034	-2.839972	0.221504	0.555345	0.641398
1.830	3.100639	-1.274074	511.296498	3.285485	-2.754529	0.223579	0.538734	0.642579
1.840	3.068123	-1.288134	511.127343	3.283897	-2.664691	0.222522	0.521336	0.642481
1.850	2.992707	-1.310201	510.902018	3.275056	-2.572296	0.219228	0.503481	0.641034
1.860	2.879774	-1.336571	510.654465	3.261047	-2.479204	0.215139	0.485495	0.638601
1.870	2.743857	-1.362174	510.425601	3.245504	-2.387309	0.211718	0.467710	0.635843
1.880	2.604245	-1.381496	510.254590	3.232326	-2.298567	0.209973	0.450475	0.633473
1.890	2.479688	-1.389516	510.171267	3.224385	-2.214762	0.210174	0.434121	0.632020
1.900	2.384094	-1.382621	510.191482	3.222689	-2.136998	0.211815	0.418862	0.631663
1.910	2.324155	-1.359455	510.314679	3.226264	-2.065296	0.213795	0.404710	0.632211
1.920	2.298864	-1.321570	510.523058	3.232660	-1.998765	0.214815	0.391513	0.633206
1.930	2.300640	-1.273564	510.783148	3.238801	-1.936416	0.213879	0.379107	0.634085
1.940	2.317893	-1.222340	511.051328	3.241796	-1.878092	0.210717	0.367496	0.634339
1.950	2.338700	-1.175404	511.283408	3.239515	-1.824846	0.205914	0.356915	0.633605
1.960	2.354618	-1.138761	511.445600	3.230880	-1.778476	0.200665	0.347735	0.631715
1.970	2.363149	-1.115387	511.522302	3.215955	-1.740538	0.196293	0.340266	0.628703
1.980	2.367551	-1.104970	511.517142	3.195865	-1.711382	0.193787	0.334570	0.624782
1.990	2.373701	-1.104735	511.447698	3.172504	-1.689696	0.193532	0.330375	0.620299
2.000	2.385447	-1.110685	511.338165	3.148026	-1.672707	0.195249	0.327123	0.615645
2.010	2.401026	-1.118775	511.214582	3.124248	-1.656940	0.198098	0.324118	0.611142
2.020	2.412756	-1.125955	511.103843	3.102227	-1.639245	0.200896	0.320726	0.606966
2.030	2.410375	-1.130922	511.033719	3.082157	-1.617730	0.202444	0.316560	0.603122
2.040	2.386415	-1.134253	511.029719	3.063520	-1.592297	0.201852	0.311586	0.599480
2.050	2.340980	-1.137791	511.106941	3.045277	-1.564611	0.198729	0.306122	0.595820
2.060	2.283315	-1.143711	511.259672	3.026003	-1.537507	0.193160	0.300729	0.591872
2.070	2.229019	-1.153735	511.455126	3.004049	-1.514036	0.185595	0.296025	0.587353
2.080	2.193989	-1.168552	511.637456	2.977786	-1.496470	0.176731	0.292486	0.582011
2.090	2.188057	-1.187233	511.743059	2.945907	-1.485589	0.167467	0.290300	0.575661
2.100	2.211351	-1.206880	511.721443	2.907658	-1.480449	0.158801	0.289308	0.568211
2.110	2.254690	-1.223100	511.552264	2.863018	-1.478686	0.151633	0.289059	0.559673
2.120	2.303180	-1.231647	511.251442	2.812850	-1.477211	0.146535	0.288940	0.550189
2.130	2.341025	-1.230675	510.865545	2.759005	-1.473055	0.143695	0.288345	0.540065
2.140	2.355728	-1.222421	510.458939	2.704266	-1.464131	0.143075	0.286826	0.529772
2.150	2.340700	-1.213267	510.099344	2.652011	-1.449733	0.144627	0.284206	0.519901
2.160	2.296184	-1.211956	509.845446	2.605582	-1.430684	0.148345	0.280611	0.511053
2.170	2.228804	-1.226615	509.738151	2.567402	-1.409088	0.154072	0.276434	0.503671
2.180	2.150218	-1.261711	509.795831	2.538066	-1.387741	0.161220	0.272215	0.497859
2.190	2.075125	-1.316181	510.012783	2.515797	-1.369353	0.168653	0.268494	0.493281
2.200	2.018735	-1.383513	510.359565	2.496664	-1.355781	0.174909	0.265652	0.489197
2.210	1.993880	-1.453724	510.784796	2.475629	-1.347586	0.178643	0.263827	0.484672
2.220	2.008125	-1.516400	511.219932	2.448126	-1.344111	0.179077	0.262922	0.478879
2.230	2.061640	-1.563567	511.589493	2.411649	-1.344073	0.176194	0.262725	0.471403
2.240	2.146708	-1.591366	511.827360	2.366657	-1.346346	0.170637	0.263047	0.462394
2.250	2.249329	-1.600247	511.895410	2.316314	-1.350505	0.163439	0.263824	0.452497
2.260	2.352497	-1.594149	511.796773	2.265141	-1.356848	0.155769	0.265115	0.442586
2.270	2.440027	-1.579306	511.576000	2.217289	-1.365973	0.148781	0.267013	0.433423
2.280	2.499876	-1.562890	511.303771	2.175195	-1.378201	0.143527	0.269546	0.425421
2.290	2.526355	-1.551500	511.052166	2.139007	-1.393265	0.140817	0.272627	0.418550
2.300	2.520886	-1.549779	510.871929	2.106693	-1.410438	0.141029	0.276084	0.412372
2.310	2.491042	-1.559652	510.781173	2.074661	-1.429096	0.143950	0.279786	0.406174
2.320	2.448036	-1.580487	510.767598	2.038774	-1.449397	0.148773	0.283768	0.399159
2.330	2.403440	-1.610010	510.799999	1.995557	-1.472602	0.154256	0.288293	0.390673
2.340	2.366307	-1.645420	510.843022	1.943195	-1.500729	0.159035	0.293775	0.380390
2.350	2.341746	-1.684235	510.870436	1.881889	-1.535619	0.161978	0.300589	0.368369
2.360	2.331369	-1.724792	510.873731	1.813427	-1.577960	0.162478	0.308875	0.354966
2.370	2.335170	-1.766540	510.863802	1.740296	-1.626835	0.160570	0.318448	0.340657
2.380	2.353543	-1.810157	510.864839	1.664872	-1.680007	0.156809	0.328855	0.325893
2.390	2.388020	-1.857271	510.902382	1.589061	-1.734801	0.151992	0.339556	0.311030
2.400	2.440104	-1.909728	510.990821	1.514293	-1.789207	0.146837	0.350145	0.296345
2.410	2.508907	-1.968642	511.126091	1.441512	-1.842806	0.141794	0.360538	0.282027
2.420	2.589236	-2.033673	511.286123	1.370967	-1.897089	0.137061	0.371043	0.268141
2.430	2.671634	-2.102998	511.437760	1.302009	-1.954925	0.132754	0.382241	0.254578
