Time[s]	Fx[N]	Fy[N]	Fz[N]	Mx[Nm]	My[Nm]	Mz[Nm]	COPx[cm]	COPy[cm]
0.010	0.863538	-3.322291	467.810524	1.275062	-2.054378	0.187812	0.439148	0.272559
0.020	1.349231	-3.404528	466.741016	1.412785	-2.432443	0.184381	0.521155	0.302691
0.030	1.836306	-3.464877	465.842423	1.549617	-2.806429	0.181108	0.602442	0.332648
0.040	2.319694	-3.488653	465.254461	1.684657	-3.171078	0.178171	0.681579	0.362094
0.050	2.785788	-3.471265	465.060154	1.817253	-3.519190	0.175650	0.756717	0.390757
0.060	3.213632	-3.418402	465.271466	1.946998	-3.841992	0.173343	0.825753	0.418465
0.070	3.579614	-3.342271	465.831696	2.073603	-4.130406	0.170583	0.886674	0.445140
0.080	3.863878	-3.255466	466.634612	2.196722	-4.376777	0.166219	0.937945	0.470759
0.090	4.056063	-3.165077	467.553695	2.315872	-4.576376	0.158845	0.978791	0.495317
0.100	4.158181	-3.069626	468.471788	2.430570	-4.728075	0.147208	1.009255	0.518830
0.110	4.183512	-2.960160	469.303127	2.540640	-4.833955	0.130639	1.030028	0.541364
0.120	4.151842	-2.825017	470.003474	2.646496	-4.898149	0.109354	1.042152	0.563080
0.130	4.082844	-2.656090	470.567809	2.749240	-4.925617	0.084500	1.046739	0.584239
0.140	3.990116	-2.453805	471.018762	2.850402	-4.921388	0.057881	1.044839	0.605157
0.150	3.878121	-2.228772	471.391770	2.951276	-4.890440	0.031468	1.037447	0.626077
0.160	3.743067	-1.999587	471.723319	3.052080	-4.838011	0.006894	1.025604	0.647006
0.170	3.577145	-1.787807	472.045772	3.151486	-4.769958	-0.014783	1.010486	0.667623
0.180	3.374248	-1.612078	472.387790	3.246942	-4.692806	-0.032984	0.993422	0.687347
0.190	3.134765	-1.483610	472.776122	3.335699	-4.613359	-0.047309	0.975802	0.705556
0.200	2.867605	-1.404485	473.234680	3.416019	-4.538010	-0.057300	0.958934	0.721845
0.210	2.588905	-1.368792	473.779967	3.487904	-4.472069	-0.062418	0.943913	0.736186
0.220	2.318489	-1.365428	474.415401	3.553118	-4.419384	-0.062227	0.931543	0.748947
0.230	2.075856	-1.381173	475.127899	3.614690	-4.382307	-0.056681	0.922343	0.760783
0.240	1.877015	-1.403146	475.887822	3.676304	-4.361857	-0.046378	0.916572	0.772515
0.250	1.732583	-1.420368	476.651454	3.741846	-4.357997	-0.032628	0.914294	0.785028
0.260	1.647084	-1.424622	477.365555	3.815161	-4.369919	-0.017206	0.915424	0.799212
0.270	1.619263	-1.411093	477.974347	3.899869	-4.396279	-0.001842	0.919773	0.815916
0.280	1.643145	-1.378908	478.427783	3.999093	-4.435317	0.012367	0.927061	0.835882
0.290	1.709380	-1.331001	478.687756	4.115036	-4.484919	0.025297	0.936920	0.859649
0.300	1.806361	-1.272561	478.729505	4.248558	-4.542719	0.037739	0.948911	0.887465
0.310	1.920945	-1.208158	478.538956	4.398869	-4.606250	0.050931	0.962565	0.919229
0.320	2.039237	-1.139003	478.109764	4.563419	-4.673060	0.065901	0.977403	0.954471
0.330	2.148013	-1.062313	477.443244	4.737879	-4.740677	0.082903	0.992930	0.992344
0.340	2.236743	-0.973837	476.551313	4.916212	-4.806472	0.101154	1.008595	1.031623
0.350	2.299573	-0.872525	475.460660	5.090983	-4.867639	0.118972	1.023773	1.070747
0.360	2.336493	-0.764663	474.216590	5.254251	-4.921513	0.134227	1.037820	1.107986
0.370	2.353312	-0.664698	472.885331	5.399046	-4.966176	0.144971	1.050186	1.141724
0.380	2.360303	-0.591721	471.552986	5.520927	-5.000975	0.150089	1.060533	1.170797
0.390	2.369519	-0.562982	470.318863	5.618900	-5.026544	0.149777	1.068752	1.194700
0.400	2.391220	-0.587452	469.282645	5.695225	-5.044234	0.145618	1.074882	1.213602
0.410	2.430450	-0.662332	468.528168	5.754223	-5.055270	0.140144	1.078968	1.228149
0.420	2.484928	-0.773908	468.109289	5.800608	-5.060082	0.135933	1.080962	1.239157
0.430	2.544885	-0.902079	468.042974	5.838090	-5.058069	0.134593	1.080685	1.247341
0.440	2.594904	-1.026388	468.311515	5.868955	-5.047822	0.136106	1.077877	1.253216
0.450	2.617564	-1.130893	468.871793	5.894794	-5.027685	0.138888	1.072294	1.257229
0.460	2.598191	-1.206143	469.667072	5.917926	-4.996508	0.140588	1.063840	1.260026
0.470	2.529194	-1.248072	470.637226	5.942563	-4.954435	0.139272	1.052708	1.262663
0.480	2.412271	-1.254971	471.725554	5.975035	-4.903389	0.134444	1.039458	1.266634
0.490	2.257681	-1.224126	472.882378	6.023022	-4.846932	0.127393	1.024976	1.273683
0.500	2.081145	-1.149594	474.065974	6.094283	-4.789498	0.120666	1.010302	1.285535
0.510	1.899837	-1.022263	475.240592	6.195443	-4.735402	0.116898	0.996422	1.303644
0.520	1.729050	-0.832722	476.371254	6.331026	-4.688166	0.117559	0.984141	1.329011
0.530	1.580675	-0.576376	477.416732	6.502567	-4.650405	0.122196	0.974077	1.362032
0.540	1.463729	-0.258852	478.324303	6.707696	-4.624108	0.128558	0.966731	1.402332
0.550	1.385963	0.100989	479.030411	6.939431	-4.610932	0.133528	0.962555	1.448641
0.560	1.354920	0.472374	479.469122	7.186310	-4.612238	0.134461	0.961947	1.498806
0.570	1.377129	0.818318	479.586130	7.433775	-4.628816	0.130331	0.965169	1.550040
0.580	1.455447	1.103725	479.352637	7.666665	-4.660512	0.122220	0.972251	1.599379
0.590	1.585991	1.303006	478.773302	7.872049	-4.706006	0.112964	0.982930	1.644212
0.600	1.756757	1.404870	477.885761	8.041554	-4.762876	0.106120	0.996656	1.682736
0.610	1.949201	1.413264	476.753451	8.172558	-4.827865	0.104667	1.012654	1.714211
0.620	2.142233	1.344817	475.455843	8.267958	-4.897191	0.109930	1.029999	1.738954
0.630	2.316603	1.224061	474.079608	8.334582	-4.966796	0.121089	1.047671	1.758055
0.640	2.457849	1.078109	472.711795	8.380741	-5.032582	0.135371	1.064619	1.772907
0.650	2.557437	0.932179	471.434171	8.413807	-5.090754	0.148830	1.079844	1.784726
0.660	2.612935	0.806685	470.317856	8.438654	-5.138324	0.157419	1.092522	1.794245
0.670	2.628051	0.715889	469.418480	8.457378	-5.173605	0.158094	1.102131	1.801671
0.680	2.612562	0.667743	468.772748	8.470133	-5.196354	0.149630	1.108502	1.806874
0.690	2.581250	0.664368	468.397157	8.476544	-5.207339	0.132906	1.111736	1.809692
0.700	2.550958	0.702650	468.289206	8.476980	-5.207476	0.110515	1.112021	1.810202
0.710	2.535824	0.774667	468.430782	8.473101	-5.197032	0.085840	1.109456	1.808827
0.720	2.542322	0.868265	468.792396	8.467496	-5.175351	0.061971	1.103975	1.806236
0.730	2.566512	0.968420	469.336530	8.462712	-5.141227	0.040935	1.095424	1.803122
0.740	2.595117	1.059616	470.019376	8.460214	-5.093626	0.023502	1.083705	1.799971
0.750	2.609947	1.128563	470.792036	8.459754	-5.032249	0.009502	1.068890	1.796920
0.760	2.593471	1.166043	471.603098	8.459328	-4.957617	-0.001673	1.051226	1.793739
0.770	2.533155	1.167181	472.403182	8.455562	-4.870698	-0.010668	1.031047	1.789904
0.780	2.423486	1.130410	473.149979	8.444248	-4.772438	-0.017949	1.008652	1.784687
0.790	2.266063	1.056191	473.811673	8.420897	-4.663621	-0.023745	0.984277	1.777267
0.800	2.068656	0.946579	474.367856	8.381409	-4.545207	-0.028071	0.958161	1.766859
0.810	1.843737	0.805999	474.808583	8.322927	-4.418912	-0.030806	0.930672	1.752902
0.820	1.606413	0.642570	475.132965	8.244698	-4.287625	-0.031758	0.902405	1.735240
0.830	1.371784	0.468807	475.348338	8.148511	-4.155405	-0.030697	0.874181	1.714219
0.840	1.152377	0.300773	475.470029	8.038318	-4.027158	-0.027422	0.846985	1.690605
0.850	0.956659	0.155607	475.520902	7.919047	-3.908097	-0.021941	0.821856	1.665341
0.860	0.789196	0.048068	475.529862	7.795056	-3.803060	-0.014701	0.799752	1.639236
0.870	0.651959	-0.012862	475.528661	7.668962	-3.715705	-0.006674	0.781384	1.612723
0.880	0.545632	-0.026428	475.546671	7.541390	-3.647853	0.000872	0.767086	1.585836
0.890	0.470094	-0.000977	475.604442	7.411719	-3.599307	0.006879	0.756786	1.558379
0.900	0.424121	0.047201	475.708282	7.279311	-3.568324	0.011033	0.750108	1.530205
0.910	0.404885	0.097188	475.847935	7.144509	-3.552440	0.014005	0.746549	1.501427
0.920	0.407782	0.128243	475.997833	7.008892	-3.549136	0.017239	0.745620	1.472463
0.930	0.426962	0.124557	476.121534	6.874743	-3.556049	0.022342	0.746878	1.443905
0.940	0.456602	0.078389	476.179310	6.744143	-3.570884	0.030360	0.749903	1.416303
0.950	0.492570	-0.009225	476.138292	6.618169	-3.591445	0.041291	0.754286	1.389968
0.960	0.533844	-0.130110	475.982543	6.496552	-3.615906	0.054032	0.759672	1.364872
0.970	0.582990	-0.272168	475.718823	6.377855	-3.643154	0.066755	0.765821	1.340677
0.980	0.645326	-0.422865	475.374464	6.259964	-3.672904	0.077508	0.772634	1.316849
0.990	0.726848	-0.571743	474.986937	6.140651	-3.705448	0.084812	0.780116	1.292804
1.000	0.831585	-0.711447	474.589260	6.018052	-3.741081	0.088025	0.788278	1.268055
1.010	0.959318	-0.837601	474.198859	5.891097	-3.779450	0.087389	0.797018	1.242326
1.020	1.104435	-0.948207	473.816491	5.759893	-3.819175	0.083765	0.806045	1.215638
1.030	1.256256	-1.043044	473.435978	5.625945	-3.857928	0.078250	0.814878	1.188322
1.040	1.400831	-1.123144	473.059025	5.492000	-3.892907	0.071841	0.822922	1.160955
1.050	1.523879	-1.190167	472.706835	5.361451	-3.921503	0.065215	0.829585	1.134202
1.060	1.614309	-1.245551	472.422539	5.237495	-3.942066	0.058633	0.834436	1.108646
1.070	1.667422	-1.289672	472.263273	5.122463	-3.954671	0.051938	0.837387	1.084662
1.080	1.686624	-1.321466	472.285019	5.017614	-3.961620	0.044673	0.838820	1.062412
1.090	1.682613	-1.338844	472.525409	4.923345	-3.967265	0.036295	0.839588	1.041922
1.100	1.670023	-1.339713	472.989788	4.839436	-3.976927	0.026464	0.840806	1.023159
1.110	1.662801	-1.323073	473.644392	4.765037	-3.995234	0.015280	0.843509	1.006037
1.120	1.670082	-1.289650	474.418477	4.698459	-4.024636	0.003347	0.848330	0.990362
1.130	1.693756	-1.241995	475.215214	4.637176	-4.064805	-0.008388	0.855361	0.975806
1.140	1.728209	-1.184396	475.929681	4.578365	-4.113219	-0.018944	0.864249	0.961983
1.150	1.762262	-1.123050	476.470825	4.519842	-4.166615	-0.027561	0.874474	0.948608
1.160	1.782883	-1.066396	476.782310	4.460825	-4.222577	-0.033722	0.885640	0.935611
1.170	1.779764	-1.024962	476.855679	4.401932	-4.280525	-0.036966	0.897656	0.923116
1.180	1.749400	-1.010058	476.730410	4.344407	-4.341804	-0.036722	0.910746	0.911292
1.190	1.697150	-1.031304	476.479649	4.289213	-4.409105	-0.032396	0.925350	0.900188
1.200	1.636187	-1.093873	476.185835	4.236671	-4.485611	-0.023732	0.941988	0.889710
1.210	1.583585	-1.196522	475.914666	4.186764	-4.574075	-0.011151	0.961113	0.879730
1.220	1.555112	-1.331117	475.696549	4.139663	-4.675908	0.004187	0.982960	0.870232
1.230	1.560860	-1.483718	475.520822	4.095892	-4.790337	0.020642	1.007388	0.861349
1.240	1.603203	-1.637031	475.341946	4.056010	-4.913873	0.036488	1.033755	0.853283
1.250	1.677340	-1.773855	475.093238	4.020242	-5.040350	0.050244	1.060918	0.846201
1.260	1.773604	-1.880861	474.703903	3.988589	-5.161710	0.060828	1.087354	0.840227
1.270	1.880389	-1.951538	474.116821	3.961444	-5.269348	0.067528	1.111403	0.835542
1.280	1.986715	-1.987030	473.304838	3.940078	-5.355592	0.069924	1.131531	0.832461
1.290	2.083864	-1.994156	472.282171	3.926357	-5.414878	0.067928	1.146534	0.831358
1.300	2.165966	-1.981007	471.107004	3.921603	-5.444417	0.062007	1.155665	0.832423
1.310	2.229816	-1.951904	469.873299	3.925232	-5.444397	0.053464	1.158695	0.835381
1.320	2.274489	-1.904265	468.693888	3.933927	-5.417786	0.044529	1.155933	0.839338
1.330	2.301098	-1.829448	467.680196	3.941827	-5.369772	0.038037	1.148172	0.842847
1.340	2.312720	-1.717733	466.924555	3.941637	-5.306840	0.036754	1.136552	0.844170
1.350	2.314308	-1.565413	466.489357	3.926166	-5.235584	0.042610	1.122337	0.841641
1.360	2.312361	-1.380803	466.404691	3.889704	-5.161511	0.056133	1.106659	0.833976
1.370	2.314257	-1.186499	466.673625	3.828947	-5.088228	0.076215	1.090318	0.820476
1.380	2.327233	-1.016812	467.282005	3.743568	-5.017294	0.100234	1.073719	0.801137
1.390	2.356963	-0.910905	468.207627	3.636518	-4.948667	0.124561	1.056939	0.776689
1.400	2.405681	-0.903357	469.423236	3.513898	-4.881405	0.145393	1.039873	0.748556
1.410	2.470092	-1.014512	470.890791	3.384101	-4.814232	0.159759	1.022367	0.718659
1.420	2.540157	-1.243311	472.550326	3.256219	-4.745830	0.166290	1.004302	0.689073
1.430	2.600143	-1.564861	474.311264	3.138161	-4.674872	0.165424	0.985613	0.661625
1.440	2.632462	-1.933831	476.053608	3.035180	-4.600002	0.158899	0.966278	0.637571
1.450	2.623129	-2.293095	477.641075	2.949359	-4.519982	0.148830	0.946314	0.617484
1.460	2.566627	-2.585594	478.941921	2.880097	-4.434086	0.136856	0.925809	0.601346
1.470	2.468165	-2.766500	479.849989	2.825081	-4.342527	0.123759	0.904976	0.588742
1.480	2.342623	-2.812609	480.299680	2.781055	-4.246613	0.109583	0.884159	0.579025
1.490	2.210794	-2.726637	480.272030	2.744108	-4.148433	0.094064	0.863767	0.571365
1.500	2.094371	-2.535433	479.792386	2.709750	-4.050208	0.077082	0.844158	0.564776
1.510	2.011121	-2.282797	478.922263	2.673311	-3.953598	0.058963	0.825520	0.558193
1.520	1.971284	-2.018959	477.748455	2.630801	-3.859235	0.040599	0.807796	0.550667
1.530	1.975783	-1.789535	476.371164	2.579820	-3.766488	0.023386	0.790662	0.541557
1.540	2.016506	-1.626717	474.891057	2.519773	-3.673347	0.009041	0.773514	0.530600
1.550	2.078442	-1.544853	473.395272	2.451068	-3.576322	-0.000703	0.755462	0.517764
1.560	2.142643	-1.541361	471.944843	2.373658	-3.470351	-0.004481	0.735330	0.502952
1.570	2.188556	-1.602043	470.568255	2.285782	-3.348843	-0.001661	0.711659	0.485749
1.580	2.194724	-1.708229	469.265458	2.183630	-3.203968	0.007429	0.682762	0.465329
1.590	2.138319	-1.842836	468.023185	2.062086	-3.027213	0.021507	0.646808	0.440595
1.600	1.995354	-1.993728	466.837783	1.916164	-2.810219	0.038639	0.601969	0.410456
1.610	1.743730	-2.154334	465.738567	1.742627	-2.545968	0.056772	0.546652	0.374164
1.620	1.369910	-2.322554	464.804461	1.541412	-2.230489	0.074365	0.479877	0.331626
1.630	0.877605	-2.499242	464.168565	1.316746	-1.865027	0.090826	0.401800	0.283678
1.640	0.294785	-2.687222	464.007496	1.077822	-1.458130	0.106443	0.314247	0.232285
1.650	-0.325141	-2.890944	464.513971	0.838607	-1.026667	0.121716	0.221020	0.180534
1.660	-0.910532	-3.115999	465.853728	0.616294	-0.594812	0.136344	0.127682	0.132293
1.670	-1.386960	-3.367514	468.113338	0.428330	-0.190620	0.148527	0.040721	0.091501
1.680	-1.697564	-3.647044	471.252958	0.288759	0.159258	0.155196	-0.033795	0.061275
1.690	-1.822049	-3.948608	475.082389	0.205144	0.435254	0.153350	-0.091617	0.043181
1.700	-1.786679	-4.255470	479.274223	0.177244	0.628983	0.141843	-0.131237	0.036982
1.710	-1.659361	-4.539598	483.414708	0.197912	0.744151	0.122558	-0.153936	0.040940
1.720	-1.529329	-4.765075	487.078217	0.255832	0.793875	0.100142	-0.162987	0.052524
1.730	-1.478033	-4.895272	489.903134	0.339115	0.795516	0.080349	-0.162382	0.069221
1.740	-1.552550	-4.901934	491.648469	0.438562	0.765076	0.067859	-0.155614	0.089202
1.750	-1.752102	-4.773253	492.218877	0.549530	0.713131	0.064673	-0.144881	0.111643
1.760	-2.032179	-4.518046	491.656399	0.671854	0.643379	0.069779	-0.130860	0.136651
1.770	-2.322995	-4.164491	490.106773	0.808054	0.553731	0.080009	-0.112982	0.164873
1.780	-2.553630	-3.753939	487.774612	0.960698	0.438997	0.091502	-0.090000	0.196955
1.790	-2.672171	-3.331942	484.883225	1.130118	0.293976	0.100983	-0.060628	0.233070
1.800	-2.655374	-2.939187	481.649755	1.313442	0.115937	0.106410	-0.024071	0.272697
1.810	-2.506898	-2.604594	478.276661	1.505227	-0.094087	0.106956	0.019672	0.314719
1.820	-2.248304	-2.341970	474.952526	1.699159	-0.331330	0.102638	0.069761	0.357753
1.830	-1.908840	-2.150751	471.853518	1.889911	-0.588394	0.093946	0.124698	0.400529
1.840	-1.518214	-2.020139	469.140845	2.074374	-0.856872	0.081681	0.182647	0.442164
1.850	-1.103092	-1.934839	466.954170	2.252048	-1.128852	0.066927	0.241748	0.482285
1.860	-0.685842	-1.880074	465.402754	2.424773	-1.397899	0.050975	0.300363	0.521005
1.870	-0.283823	-1.844312	464.555657	2.596068	-1.659443	0.035092	0.357211	0.558828
1.880	0.091375	-1.819470	464.432337	2.770198	-1.910780	0.020215	0.411423	0.596470
1.890	0.434279	-1.799624	464.995695	2.950977	-2.150829	0.006779	0.462548	0.634625
1.900	0.744642	-1.779665	466.150023	3.140458	-2.379613	-0.005264	0.510482	0.673701
1.910	1.025084	-1.754660	467.746221	3.337778	-2.597416	-0.016268	0.555305	0.713587
1.920	1.278060	-1.719682	469.596136	3.538640	-2.803900	-0.026688	0.597088	0.753550
1.930	1.503514	-1.669759	471.495725	3.735796	-2.997581	-0.036889	0.635760	0.792329
1.940	1.698239	-1.600053	473.253096	3.920672	-3.175979	-0.047034	0.671095	0.828451
1.950	1.856986	-1.506591	474.714615	4.085778	-3.336336	-0.057047	0.702809	0.860681
1.960	1.974465	-1.387430	475.782617	4.227144	-3.476461	-0.066653	0.730683	0.888461
1.970	2.047044	-1.243876	476.420965	4.345856	-3.595282	-0.075414	0.754644	0.912188
1.980	2.073441	-1.081218	476.648078	4.447914	-3.692887	-0.082770	0.774762	0.933165
1.990	2.054394	-0.908617	476.520138	4.542257	-3.770253	-0.088121	0.791205	0.953214
2.000	1.991980	-0.737926	476.110312	4.637652	-3.828966	-0.090946	0.804218	0.974071
2.010	1.889503	-0.581604	475.491534	4.739757	-3.871124	-0.090935	0.814131	0.996812
2.020	1.752489	-0.450219	474.728807	4.849631	-3.899339	-0.088024	0.821382	1.021558
2.030	1.590400	-0.350198	473.881671	4.964169	-3.916663	-0.082314	0.826507	1.047555
2.040	1.417684	-0.282595	473.011591	5.078113	-3.926351	-0.073944	0.830075	1.073571
2.050	1.252718	-0.243480	472.186596	5.186673	-3.931487	-0.063022	0.832613	1.098437
2.060	1.114340	-0.225975	471.477992	5.287662	-3.934645	-0.049617	0.834534	1.121508
2.070	1.017212	-0.223023	470.949592	5.382234	-3.937707	-0.033807	0.836121	1.142847
2.080	0.967957	-0.229430	470.645193	5.474040	-3.941882	-0.015745	0.837548	1.163093
2.090	0.963563	-0.242306	470.581270	5.567346	-3.947783	0.004200	0.838916	1.183078
2.100	0.992620	-0.260213	470.748413	5.665137	-3.955447	0.025283	0.840247	1.203432
2.110	1.038863	-0.282023	471.119696	5.768035	-3.964318	0.046313	0.841467	1.224325
2.120	1.085698	-0.306159	471.660726	5.874353	-3.973312	0.065826	0.842409	1.245462
2.130	1.120166	-0.330284	472.335908	5.981027	-3.981068	0.082463	0.842847	1.266265
2.140	1.135055	-0.351334	473.108021	6.084845	-3.986382	0.095364	0.842595	1.286143
2.150	1.128701	-0.365898	473.932615	6.183407	-3.988721	0.104378	0.841622	1.304702
2.160	1.102987	-0.370911	474.752962	6.275453	-3.988648	0.110034	0.840152	1.321836
2.170	1.060967	-0.364318	475.501870	6.360556	-3.987927	0.113342	0.838678	1.337651
2.180	1.005531	-0.345375	476.112432	6.438493	-3.989173	0.115511	0.837864	1.352305
2.190	0.939582	-0.314484	476.533859	6.508754	-3.995168	0.117640	0.838381	1.365853
2.200	0.866994	-0.272795	476.745307	6.570525	-4.008237	0.120435	0.840750	1.378205
2.210	0.793239	-0.222025	476.761660	6.623118	-4.030041	0.124028	0.845295	1.389188
2.220	0.724971	-0.164700	476.628730	6.666459	-4.061910	0.127946	0.852217	1.398669
2.230	0.668719	-0.104661	476.409288	6.701195	-4.105370	0.131265	0.861732	1.406605
2.240	0.629322	-0.047244	476.164263	6.728277	-4.162311	0.132932	0.874134	1.413016
2.250	0.608856	0.001266	475.934967	6.748283	-4.234405	0.132141	0.889702	1.417900
2.260	0.606491	0.034766	475.732346	6.760867	-4.321946	0.128616	0.908483	1.421149
2.270	0.619304	0.048421	475.537509	6.764510	-4.422826	0.122624	0.930069	1.422498
2.280	0.643487	0.039302	475.313919	6.756597	-4.532406	0.114797	0.953560	1.421502
2.290	0.675263	0.006776	475.026529	6.733725	-4.644535	0.105933	0.977742	1.417547
2.300	0.711286	-0.047003	474.659423	6.692197	-4.753336	0.096944	1.001420	1.409894
2.310	0.748956	-0.116571	474.224155	6.628653	-4.854941	0.088898	1.023765	1.397789
2.320	0.787183	-0.193151	473.756283	6.540859	-4.948495	0.083019	1.044523	1.380638
2.330	0.827417	-0.265743	473.304065	6.428594	-5.036094	0.080561	1.064029	1.358238
2.340	0.874016	-0.323383	472.916251	6.294507	-5.121706	0.082545	1.083005	1.330998
2.350	0.933025	-0.358102	472.633994	6.144652	-5.209414	0.089488	1.102209	1.300087
2.360	1.009315	-0.367702	472.487466	5.988353	-5.301601	0.101239	1.122062	1.267410
2.370	1.103100	-0.357404	472.494317	5.837064	-5.397829	0.117035	1.142411	1.235372
2.380	1.207331	-0.339636	472.657090	5.702226	-5.494999	0.135736	1.162576	1.206419
2.390	1.307354	-0.331644	472.959286	5.592700	-5.588685	0.156114	1.181642	1.182491
2.400	1.383404	-0.351166	473.362470	5.512877	-5.674957	0.177047	1.198861	1.164621
2.410	1.415484	-0.411196	473.807687	5.462321	-5.751786	0.197548	1.213950	1.152856
2.420	1.389234	-0.515439	474.223519	5.437087	-5.819466	0.216668	1.227157	1.146524
