Time[s]	Fx[N]	Fy[N]	Fz[N]	Mx[Nm]	My[Nm]	Mz[Nm]	COPx[cm]	COPy[cm]
0.010	2.348407	-0.479109	537.405425	7.174390	1.463534	-0.260015	-0.272333	1.335005
0.020	2.338785	-0.480610	537.616130	7.211109	1.461159	-0.272023	-0.271785	1.341312
0.030	2.340051	-0.481408	537.803487	7.244105	1.458079	-0.281262	-0.271117	1.346980
0.040	2.357921	-0.480673	537.947515	7.270748	1.453876	-0.285956	-0.270264	1.351572
0.050	2.390812	-0.476834	538.030629	7.289940	1.448079	-0.285811	-0.269144	1.354930
0.060	2.431311	-0.468793	538.039656	7.302058	1.440355	-0.281792	-0.267704	1.357160
0.070	2.470256	-0.457221	537.969418	7.308454	1.430741	-0.275491	-0.265952	1.358526
0.080	2.501024	-0.444998	537.826390	7.310765	1.419680	-0.268515	-0.263966	1.359317
0.090	2.521777	-0.436567	537.629559	7.310309	1.407797	-0.262131	-0.261853	1.359730
0.100	2.534843	-0.436429	537.406774	7.307780	1.395479	-0.257124	-0.259669	1.359823
0.110	2.544030	-0.447245	537.188180	7.303351	1.382492	-0.253777	-0.257357	1.359552
0.120	2.551630	-0.468293	537.000692	7.297131	1.367918	-0.251913	-0.254733	1.358868
0.130	2.556720	-0.495171	536.866346	7.289684	1.350585	-0.251027	-0.251568	1.357821
0.140	2.555576	-0.521148	536.803566	7.282225	1.329899	-0.250509	-0.247744	1.356590
0.150	2.543822	-0.539711	536.827367	7.276266	1.306604	-0.249895	-0.243394	1.355420
0.160	2.519139	-0.547221	536.945371	7.272951	1.282970	-0.249050	-0.238939	1.354505
0.170	2.483142	-0.544400	537.150609	7.272595	1.262106	-0.248220	-0.234963	1.353921
0.180	2.441552	-0.535881	537.415924	7.274754	1.246637	-0.247946	-0.231969	1.353654
0.190	2.402682	-0.527954	537.695267	7.278673	1.237347	-0.248846	-0.230120	1.353680
0.200	2.374968	-0.525677	537.933579	7.283702	1.232512	-0.251324	-0.229120	1.354015
0.210	2.364513	-0.530776	538.081689	7.289459	1.228283	-0.255286	-0.228271	1.354712
0.220	2.373382	-0.541241	538.109759	7.295780	1.219955	-0.260034	-0.226711	1.355816
0.230	2.399056	-0.552526	538.014178	7.302614	1.203494	-0.264437	-0.223692	1.357328
0.240	2.435187	-0.559625	537.816707	7.309911	1.176643	-0.267351	-0.218781	1.359183
0.250	2.473497	-0.559170	537.558043	7.317475	1.139214	-0.268103	-0.211924	1.361244
0.260	2.506252	-0.550886	537.289046	7.324877	1.092668	-0.266818	-0.203367	1.363303
0.270	2.528547	-0.537988	537.061896	7.331561	1.039323	-0.264426	-0.193520	1.365124
0.280	2.539768	-0.526276	536.921747	7.337088	0.981611	-0.262318	-0.182822	1.366510
0.290	2.543738	-0.522072	536.898543	7.341286	0.921648	-0.261761	-0.171661	1.367351
0.300	2.547428	-0.529755	536.999262	7.344115	0.861144	-0.263339	-0.160362	1.367621
0.310	2.558654	-0.549960	537.202965	7.345419	0.801452	-0.266664	-0.149190	1.367345
0.320	2.583746	-0.579333	537.462951	7.344860	0.743475	-0.270503	-0.138330	1.366580
0.330	2.626114	-0.611950	537.718599	7.342146	0.687405	-0.273235	-0.127837	1.365425
0.340	2.685899	-0.641779	537.913784	7.337377	0.632541	-0.273450	-0.117592	1.364043
0.350	2.760266	-0.665062	538.013890	7.331203	0.577510	-0.270550	-0.107341	1.362642
0.360	2.843755	-0.681519	538.013981	7.324647	0.520964	-0.265154	-0.096831	1.361423
0.370	2.928667	-0.693788	537.935702	7.318767	0.462507	-0.259120	-0.085978	1.360528
0.380	3.005992	-0.705382	537.815669	7.314379	0.403414	-0.255027	-0.075010	1.360016
0.390	3.067260	-0.718271	537.690970	7.311973	0.346763	-0.255224	-0.064491	1.359884
0.400	3.107046	-0.731477	537.587855	7.311699	0.296758	-0.260802	-0.055202	1.360094
0.410	3.125203	-0.741617	537.517640	7.313352	0.257277	-0.271034	-0.047864	1.360579
0.420	3.127709	-0.745082	537.479879	7.316372	0.230124	-0.283560	-0.042815	1.361237
0.430	3.125259	-0.740444	537.468905	7.320000	0.213757	-0.295258	-0.039771	1.361939
0.440	3.129607	-0.729519	537.478966	7.323654	0.203272	-0.303407	-0.037820	1.362594
0.450	3.148870	-0.716602	537.505766	7.327414	0.191843	-0.306702	-0.035691	1.363225
0.460	3.184037	-0.706578	537.545577	7.332260	0.173053	-0.305695	-0.032193	1.364026
0.470	3.228674	-0.702999	537.594047	7.339767	0.143050	-0.302516	-0.026609	1.365299
0.480	3.272143	-0.706708	537.645783	7.351253	0.101608	-0.299993	-0.018899	1.367304
0.490	3.304609	-0.715150	537.694737	7.366871	0.051878	-0.300587	-0.009648	1.370084
0.500	3.321165	-0.722598	537.735229	7.385262	-0.000800	-0.305568	0.000149	1.373401
0.510	3.323116	-0.721728	537.763322	7.404095	-0.050404	-0.314655	0.009373	1.376831
0.520	3.316159	-0.706473	537.777919	7.421220	-0.091634	-0.326154	0.017039	1.379978
0.530	3.306845	-0.675071	537.780827	7.435782	-0.120965	-0.337534	0.022493	1.382679
0.540	3.299499	-0.631550	537.775367	7.448738	-0.137268	-0.346336	0.025525	1.385102
0.550	3.295128	-0.584417	537.764054	7.462548	-0.141940	-0.351171	0.026394	1.387699
0.560	3.292388	-0.542910	537.747033	7.480227	-0.138460	-0.352368	0.025748	1.391031
0.570	3.289446	-0.512722	537.722948	7.504163	-0.131386	-0.351876	0.024434	1.395544
0.580	3.285315	-0.493640	537.692142	7.535210	-0.125036	-0.352339	0.023254	1.401398
0.590	3.279960	-0.480330	537.660082	7.572383	-0.122359	-0.355794	0.022758	1.408396
0.600	3.273491	-0.465525	537.638321	7.613280	-0.124439	-0.362682	0.023145	1.416060
0.610	3.265363	-0.443513	537.641381	7.655025	-0.130717	-0.371712	0.024313	1.423816
0.620	3.254271	-0.412105	537.680303	7.695299	-0.139656	-0.380574	0.025974	1.431203
0.630	3.238743	-0.372709	537.756020	7.732897	-0.149463	-0.387035	0.027794	1.437994
0.640	3.218014	-0.329275	537.856302	7.767617	-0.158654	-0.389841	0.029497	1.444181
0.650	3.192768	-0.286983	537.958101	7.799747	-0.166435	-0.389047	0.030938	1.449880
0.660	3.165592	-0.251013	538.034418	7.829645	-0.172915	-0.385750	0.032138	1.455231
0.670	3.140992	-0.225374	538.063177	7.857651	-0.179049	-0.381409	0.033277	1.460358
0.680	3.124767	-0.212006	538.035093	7.884201	-0.186219	-0.377128	0.034611	1.465369
0.690	3.122657	-0.210643	537.957487	7.909790	-0.195562	-0.373218	0.036353	1.470337
0.700	3.138588	-0.219659	537.851861	7.934657	-0.207375	-0.369258	0.038556	1.475250
0.710	3.173095	-0.237400	537.745648	7.958405	-0.220914	-0.364584	0.041082	1.479957
0.720	3.222406	-0.262841	537.661708	7.979851	-0.234744	-0.358912	0.043660	1.484177
0.730	3.278555	-0.294872	537.610405	7.997320	-0.247509	-0.352692	0.046039	1.487568
0.740	3.330725	-0.330813	537.587542	8.009261	-0.258749	-0.346934	0.048132	1.489852
0.750	3.367908	-0.365585	537.578564	8.014959	-0.269238	-0.342571	0.050083	1.490937
0.760	3.382395	-0.392413	537.567078	8.015052	-0.280582	-0.339760	0.052195	1.490986
0.770	3.372931	-0.404817	537.543931	8.011596	-0.294264	-0.337585	0.054742	1.490408
0.780	3.345774	-0.398893	537.512345	8.007604	-0.310596	-0.334439	0.057784	1.489753
0.790	3.312537	-0.374917	537.486235	8.006187	-0.328100	-0.328903	0.061043	1.489561
0.800	3.285405	-0.337572	537.482700	8.009656	-0.343598	-0.320592	0.063927	1.490217
0.810	3.272162	-0.294652	537.513021	8.019018	-0.353041	-0.310478	0.065680	1.491874
0.820	3.273608	-0.254752	537.576872	8.034091	-0.352858	-0.300528	0.065639	1.494501
0.830	3.284353	-0.224784	537.662045	8.054089	-0.341355	-0.292874	0.063489	1.497984
0.840	3.295990	-0.208051	537.748897	8.078197	-0.319542	-0.288930	0.059422	1.502225
0.850	3.300766	-0.203294	537.817041	8.105736	-0.290965	-0.288841	0.054101	1.507155
0.860	3.294231	-0.204983	537.851506	8.135833	-0.260542	-0.291477	0.048441	1.512654
0.870	3.276260	-0.204981	537.846196	8.166857	-0.232852	-0.294907	0.043293	1.518437
0.880	3.250601	-0.195273	537.803636	8.196088	-0.210582	-0.297082	0.039156	1.523993
0.890	3.223440	-0.170967	537.731825	8.220031	-0.193768	-0.296451	0.036034	1.528649
0.900	3.201394	-0.132427	537.640194	8.235490	-0.180049	-0.292373	0.033489	1.531785
0.910	3.189324	-0.085451	537.536958	8.240957	-0.165698	-0.285261	0.030825	1.533096
0.920	3.188547	-0.039204	537.429459	8.237540	-0.146919	-0.276402	0.027337	1.532767
0.930	3.196055	-0.002855	537.327085	8.228840	-0.120968	-0.267479	0.022513	1.531440
0.940	3.205103	0.017331	537.243805	8.219781	-0.086814	-0.259929	0.016159	1.529991
0.950	3.207095	0.019191	537.197003	8.214930	-0.045251	-0.254455	0.008424	1.529221
0.960	3.194231	0.004200	537.202119	8.217020	0.001527	-0.250890	-0.000284	1.529596
0.970	3.161999	-0.023687	537.266174	8.226154	0.050657	-0.248482	-0.009429	1.531113
0.980	3.110554	-0.058997	537.384305	8.239854	0.099361	-0.246383	-0.018490	1.533326
0.990	3.044519	-0.095379	537.541251	8.253880	0.145463	-0.244103	-0.027061	1.535488
1.000	2.971448	-0.126317	537.716010	8.263540	0.187590	-0.241734	-0.034887	1.536785
1.010	2.899654	-0.146391	537.886047	8.265106	0.225099	-0.239856	-0.041849	1.536590
1.020	2.836079	-0.152963	538.029250	8.256865	0.257811	-0.239222	-0.047918	1.534650
1.030	2.784734	-0.147423	538.125394	8.239501	0.285678	-0.240418	-0.053088	1.531149
1.040	2.746087	-0.135038	538.159526	8.215706	0.308519	-0.243676	-0.057329	1.526630
1.050	2.717534	-0.123252	538.126477	8.189167	0.325986	-0.248891	-0.060578	1.521792
1.060	2.694661	-0.119248	538.033007	8.163295	0.337832	-0.255685	-0.062790	1.517248
1.070	2.672781	-0.127877	537.895598	8.140130	0.344420	-0.263390	-0.064031	1.513329
1.080	2.648292	-0.150675	537.735630	8.119815	0.347156	-0.271007	-0.064559	1.510001
1.090	2.619614	-0.186119	537.575077	8.100788	0.348481	-0.277343	-0.064825	1.506913
1.100	2.587582	-0.230655	537.434243	8.080570	0.351243	-0.281422	-0.065356	1.503546
1.110	2.555268	-0.279802	537.331066	8.056793	0.357723	-0.283016	-0.066574	1.499409
1.120	2.527348	-0.328982	537.280799	8.028033	0.368834	-0.282915	-0.068648	1.494197
1.130	2.509226	-0.374233	537.294814	7.994215	0.383931	-0.282714	-0.071456	1.487864
1.140	2.505913	-0.412934	537.377568	7.956524	0.401244	-0.284146	-0.074667	1.480621
1.150	2.520640	-0.444345	537.521932	7.916876	0.418614	-0.288308	-0.077879	1.472847
1.160	2.553513	-0.469651	537.705279	7.877116	0.434132	-0.295170	-0.080738	1.464950
1.170	2.600838	-0.491381	537.890177	7.838301	0.446467	-0.303597	-0.083003	1.457231
1.180	2.655574	-0.512337	538.032385	7.800425	0.454971	-0.311854	-0.084562	1.449806
1.190	2.708851	-0.534305	538.094700	7.762750	0.459669	-0.318294	-0.085425	1.442636
1.200	2.752138	-0.557104	538.060762	7.724599	0.461154	-0.321937	-0.085707	1.435637
1.210	2.779420	-0.578623	537.941895	7.686134	0.460376	-0.322770	-0.085581	1.428804
1.220	2.788612	-0.596081	537.773562	7.648640	0.458340	-0.321706	-0.085229	1.422279
1.230	2.781632	-0.607806	537.603320	7.614072	0.455847	-0.320206	-0.084792	1.416299
1.240	2.763105	-0.614301	537.475612	7.584095	0.453382	-0.319661	-0.084354	1.411058
1.250	2.738354	-0.617795	537.418803	7.559214	0.451260	-0.320813	-0.083968	1.406578
1.260	2.711700	-0.620692	537.438031	7.538571	0.449948	-0.323501	-0.083721	1.402686
1.270	2.685746	-0.624056	537.515576	7.520558	0.450371	-0.326862	-0.083788	1.399133
1.280	2.661667	-0.627092	537.618618	7.503827	0.453915	-0.329816	-0.084431	1.395753
1.290	2.640019	-0.627841	537.711932	7.488028	0.462040	-0.331531	-0.085927	1.392572
1.300	2.621520	-0.624556	537.770672	7.473905	0.475639	-0.331678	-0.088446	1.389794
1.310	2.607319	-0.616959	537.787525	7.462775	0.494460	-0.330440	-0.091943	1.387681
1.320	2.598497	-0.606737	537.771041	7.455702	0.516928	-0.328360	-0.096124	1.386408
1.330	2.595076	-0.597159	537.736821	7.452690	0.540514	-0.326109	-0.100516	1.385936
1.340	2.595300	-0.592191	537.697455	7.452236	0.562575	-0.324231	-0.104627	1.385953
1.350	2.595758	-0.595470	537.657373	7.451485	0.581307	-0.322956	-0.108118	1.385917
1.360	2.592277	-0.609292	537.615296	7.447103	0.596359	-0.322124	-0.110927	1.385210
1.370	2.581214	-0.633766	537.571869	7.436601	0.608809	-0.321262	-0.113252	1.383369
1.380	2.560814	-0.666503	537.536259	7.419433	0.620552	-0.319817	-0.115444	1.380267
1.390	2.532284	-0.703162	537.525800	7.397305	0.633472	-0.317462	-0.117850	1.376177
1.400	2.499982	-0.738773	537.557809	7.373547	0.648732	-0.314327	-0.120681	1.371675
1.410	2.470264	-0.769273	537.638788	7.351970	0.666393	-0.310999	-0.123948	1.367455
1.420	2.449272	-0.792540	537.758120	7.335692	0.685390	-0.308265	-0.127453	1.364125
1.430	2.440731	-0.808412	537.889659	7.326285	0.703812	-0.306753	-0.130847	1.362042
1.440	2.444845	-0.817855	537.999468	7.323446	0.719369	-0.306621	-0.133712	1.361237
1.450	2.458675	-0.821977	538.055701	7.325277	0.729937	-0.307435	-0.135662	1.361435
1.460	2.477576	-0.821639	538.037675	7.329048	0.734122	-0.308299	-0.136444	1.362181
1.470	2.497031	-0.817817	537.942442	7.332115	0.731712	-0.308191	-0.136020	1.362992
1.480	2.514347	-0.812186	537.787221	7.332655	0.723762	-0.306391	-0.134581	1.363486
1.490	2.529678	-0.807140	537.605970	7.330006	0.712196	-0.302832	-0.132475	1.363453
1.500	2.545877	-0.804903	537.439909	7.324554	0.699009	-0.298194	-0.130063	1.362860
1.510	2.567007	-0.806243	537.324618	7.317284	0.685447	-0.293690	-0.127567	1.361800
1.520	2.596033	-0.809740	537.278743	7.309283	0.671595	-0.290594	-0.124999	1.360427
1.530	2.632646	-0.812186	537.299146	7.301440	0.656630	-0.289689	-0.122209	1.358915
1.540	2.672205	-0.809916	537.364593	7.294439	0.639629	-0.290894	-0.119031	1.357447
1.550	2.706389	-0.800461	537.446130	7.288908	0.620453	-0.293294	-0.115445	1.356212
1.560	2.725567	-0.783879	537.519211	7.285501	0.600154	-0.295574	-0.111653	1.355394
1.570	2.722261	-0.763211	537.572057	7.284747	0.580686	-0.296650	-0.108020	1.355120
1.580	2.694561	-0.743679	537.607286	7.286754	0.564106	-0.296145	-0.104929	1.355405
1.590	2.648149	-0.730750	537.637707	7.291033	0.551726	-0.294498	-0.102620	1.356124
1.600	2.595846	-0.727920	537.679490	7.296585	0.543591	-0.292734	-0.101099	1.357051
1.610	2.554335	-0.735313	537.745494	7.302194	0.538391	-0.292046	-0.100120	1.357927
1.620	2.538941	-0.749662	537.840022	7.306697	0.533768	-0.293336	-0.099243	1.358526
1.630	2.558479	-0.765457	537.955962	7.309144	0.526849	-0.296831	-0.097935	1.358688
1.640	2.612451	-0.776739	538.075585	7.308929	0.514963	-0.301880	-0.095705	1.358346
1.650	2.691769	-0.779014	538.175286	7.306087	0.496380	-0.307070	-0.092234	1.357566
1.660	2.782394	-0.770789	538.232512	7.301670	0.470879	-0.310712	-0.087486	1.356601
1.670	2.870001	-0.754116	538.232269	7.297866	0.439818	-0.311526	-0.081715	1.355895
1.680	2.943755	-0.733690	538.171194	7.297498	0.405565	-0.309162	-0.075360	1.355981
1.690	2.998246	-0.714702	538.058180	7.302956	0.370537	-0.304279	-0.068866	1.357280
1.700	3.033642	-0.700365	537.911627	7.315077	0.336312	-0.298165	-0.062522	1.359903
1.710	3.054606	-0.690393	537.754618	7.332625	0.303340	-0.292227	-0.056409	1.363563
1.720	3.068347	-0.681301	537.609674	7.352707	0.271389	-0.287611	-0.050481	1.367666
1.730	3.082150	-0.668429	537.494522	7.371852	0.240440	-0.285073	-0.044733	1.371521
1.740	3.101036	-0.648662	537.420132	7.387169	0.211398	-0.284996	-0.039336	1.374561
1.750	3.126492	-0.622467	537.391327	7.397159	0.186123	-0.287433	-0.034635	1.376494
1.760	3.156804	-0.594210	537.408543	7.402058	0.166732	-0.292087	-0.031025	1.377361
1.770	3.188668	-0.570486	537.468793	7.403659	0.154560	-0.298242	-0.028757	1.377505
1.780	3.219107	-0.557214	537.565032	7.404615	0.149362	-0.304781	-0.027785	1.377436
1.790	3.246790	-0.556982	537.684450	7.407384	0.149165	-0.310406	-0.027742	1.377645
1.800	3.272227	-0.568082	537.807126	7.413281	0.150829	-0.314047	-0.028045	1.378427
1.810	3.296901	-0.585725	537.907214	7.422070	0.151044	-0.315285	-0.028080	1.379805
1.820	3.321876	-0.604634	537.958577	7.432222	0.147334	-0.314513	-0.027388	1.381560
1.830	3.346763	-0.621412	537.944189	7.441579	0.138738	-0.312722	-0.025790	1.383337
1.840	3.369664	-0.635296	537.865226	7.448125	0.126019	-0.311024	-0.023429	1.384757
1.850	3.388060	-0.647171	537.744670	7.450694	0.111391	-0.310152	-0.020714	1.385545
1.860	3.400063	-0.657957	537.622498	7.449448	0.097830	-0.310201	-0.018197	1.385628
1.870	3.405336	-0.667712	537.543352	7.445951	0.088143	-0.310685	-0.016397	1.385181
1.880	3.405259	-0.675929	537.540749	7.442714	0.084031	-0.310878	-0.015632	1.384586
1.890	3.402522	-0.682507	537.623922	7.442321	0.085423	-0.310232	-0.015889	1.384299
1.900	3.400623	-0.688380	537.773247	7.446413	0.090370	-0.308689	-0.016805	1.384675
1.910	3.403527	-0.695216	537.946918	7.454896	0.095615	-0.306761	-0.017774	1.385805
1.920	3.415231	-0.704303	538.095986	7.465727	0.097709	-0.305413	-0.018158	1.387434
1.930	3.438948	-0.715409	538.181010	7.475447	0.094275	-0.305768	-0.017517	1.389021
1.940	3.476013	-0.726434	538.183682	7.480359	0.084921	-0.308701	-0.015779	1.389927
1.950	3.524973	-0.734023	538.109930	7.477917	0.071469	-0.314414	-0.013282	1.389663
1.960	3.581267	-0.734732	537.984968	7.467721	0.057434	-0.322196	-0.010676	1.388091
1.970	3.637751	-0.726355	537.843965	7.451637	0.046955	-0.330590	-0.008730	1.385464
1.980	3.686110	-0.709106	537.722638	7.432988	0.043594	-0.337942	-0.008107	1.382309
1.990	3.718980	-0.686153	537.649969	7.415260	0.049412	-0.343069	-0.009190	1.379198
2.000	3.732231	-0.662876	537.642559	7.401048	0.064592	-0.345657	-0.012014	1.376574
2.010	3.726627	-0.644768	537.699869	7.391674	0.087639	-0.346190	-0.016299	1.374684
2.020	3.708042	-0.634893	537.801862	7.387436	0.115983	-0.345513	-0.021566	1.373635
2.030	3.685956	-0.632359	537.912210	7.388073	0.146776	-0.344346	-0.027286	1.373472
2.040	3.670684	-0.632820	537.988932	7.393151	0.177681	-0.343006	-0.033027	1.374220
2.050	3.670283	-0.630687	538.000163	7.402280	0.207402	-0.341401	-0.038550	1.375888
2.060	3.688110	-0.621765	537.938430	7.415163	0.235801	-0.339199	-0.043834	1.378441
2.070	3.721723	-0.605038	537.825656	7.431511	0.263633	-0.336068	-0.049018	1.381769
2.080	3.763407	-0.583009	537.704883	7.450859	0.292085	-0.331915	-0.054321	1.385678
2.090	3.802317	-0.560604	537.621406	7.472450	0.322376	-0.327076	-0.059963	1.389909
2.100	3.827765	-0.543019	537.602051	7.495317	0.355569	-0.322359	-0.066140	1.394213
2.110	3.832591	-0.533375	537.642833	7.518585	0.392624	-0.318863	-0.073027	1.398435
2.120	3.815286	-0.531239	537.711007	7.541704	0.434473	-0.317620	-0.080800	1.402557
2.130	3.779972	-0.532736	537.759926	7.564302	0.481879	-0.319207	-0.089608	1.406632
2.140	3.734303	-0.532119	537.748960	7.585669	0.535065	-0.323487	-0.099501	1.410634
2.150	3.686224	-0.523980	537.659489	7.604371	0.593400	-0.329560	-0.110367	1.414347
2.160	3.641014	-0.505152	537.501596	7.618565	0.655484	-0.335977	-0.121950	1.417403
2.170	3.599945	-0.475629	537.311175	7.627057	0.719750	-0.341157	-0.133954	1.419486
2.180	3.561029	-0.438346	537.140009	7.630467	0.785264	-0.343866	-0.146194	1.420573
2.190	3.521098	-0.398069	537.041455	7.631645	0.852295	-0.343520	-0.158702	1.421053
2.200	3.477819	-0.359834	537.054249	7.634873	0.922304	-0.340226	-0.171734	1.421620
2.210	3.430688	-0.327437	537.188323	7.644133	0.997342	-0.334621	-0.185660	1.422989
2.220	3.380856	-0.302527	537.418183	7.661364	1.079127	-0.327641	-0.200798	1.425587
2.230	3.330200	-0.284748	537.688549	7.685705	1.168220	-0.320311	-0.217267	1.429397
2.240	3.280209	-0.272828	537.932534	7.714118	1.263604	-0.313577	-0.234900	1.434031
2.250	3.231328	-0.265932	538.096068	7.742933	1.362815	-0.308173	-0.253266	1.438950
2.260	3.183196	-0.264317	538.157403	7.769302	1.462499	-0.304528	-0.271760	1.443686
2.270	3.135650	-0.268787	538.131652	7.791849	1.559151	-0.302712	-0.289734	1.447945
2.280	3.089672	-0.279320	538.058009	7.810410	1.649862	-0.302426	-0.306633	1.451592
2.290	3.047339	-0.293942	537.976882	7.825302	1.732905	-0.302997	-0.322115	1.454580
2.300	3.010569	-0.308656	537.909225	7.836600	1.808062	-0.303431	-0.336128	1.456863
2.310	2.979407	-0.318426	537.848472	7.843784	1.876533	-0.302568	-0.348896	1.458363
2.320	2.950925	-0.318676	537.768177	7.845955	1.940493	-0.299402	-0.360842	1.458985
2.330	2.919385	-0.306720	537.640373	7.842554	2.002519	-0.293462	-0.372464	1.458699
2.340	2.877779	-0.282723	537.454827	7.834164	2.065141	-0.285075	-0.384245	1.457641
2.350	2.820355	-0.249919	537.229749	7.822800	2.130601	-0.275346	-0.396590	1.456137
2.360	2.745173	-0.213989	537.009147	7.811375	2.200769	-0.265842	-0.409820	1.454607
2.370	2.655408	-0.181753	536.848649	7.802638	2.277074	-0.258070	-0.424156	1.453415
2.380	2.558512	-0.159580	536.796695	7.798210	2.360337	-0.252994	-0.439708	1.452731
2.390	2.463547	-0.151936	536.878943	7.798183	2.450453	-0.250779	-0.456426	1.452503
2.400	2.378018	-0.160410	537.090613	7.801305	2.546107	-0.250882	-0.474055	1.452512
