Time[s]	Fx[N]	Fy[N]	Fz[N]	Mx[Nm]	My[Nm]	Mz[Nm]	COPx[cm]	COPy[cm]
0.010	2.379805	0.756070	461.079198	4.536396	14.783723	0.136370	-3.206331	0.983865
0.020	2.218098	0.797287	460.921362	4.585947	14.801185	0.131857	-3.211217	0.994952
0.030	2.074901	0.836982	460.808972	4.635597	14.815146	0.126672	-3.215030	1.005969
0.040	1.964567	0.874157	460.766764	4.685222	14.822998	0.120496	-3.217028	1.016832
0.050	1.893884	0.908293	460.786856	4.734379	14.823227	0.113436	-3.216938	1.027455
0.060	1.861494	0.939407	460.834699	4.782385	14.815538	0.105970	-3.214935	1.037766
0.070	1.859519	0.967760	460.866710	4.828363	14.800832	0.098737	-3.211521	1.047670
0.080	1.876386	0.993215	460.849404	4.871195	14.781059	0.092322	-3.207351	1.057004
0.090	1.899749	1.014569	460.771087	4.909503	14.758847	0.087133	-3.203076	1.065497
0.100	1.918807	1.029392	460.642488	4.941850	14.736969	0.083358	-3.199221	1.072817
0.110	1.925762	1.034716	460.488669	4.967139	14.717851	0.080928	-3.196138	1.078667
0.120	1.916434	1.028229	460.338119	4.984935	14.703287	0.079515	-3.194019	1.082886
0.130	1.890187	1.009259	460.214658	4.995442	14.694254	0.078591	-3.192913	1.085459
0.140	1.849430	0.978986	460.134495	4.999125	14.690741	0.077587	-3.192706	1.086449
0.150	1.798920	0.939881	460.106962	4.996282	14.691606	0.076108	-3.193085	1.085896
0.160	1.744920	0.894695	460.135664	4.986874	14.694713	0.074133	-3.193561	1.083783
0.170	1.694202	0.845405	460.217484	4.970634	14.697457	0.072043	-3.193589	1.080062
0.180	1.652921	0.792524	460.339532	4.947208	14.697526	0.070444	-3.192758	1.074687
0.190	1.625542	0.735029	460.477025	4.916183	14.693510	0.069845	-3.190932	1.067628
0.200	1.613879	0.670977	460.596162	4.877121	14.685083	0.070399	-3.188277	1.058871
0.210	1.616299	0.598603	460.663379	4.829816	14.672809	0.071827	-3.185148	1.048448
0.220	1.627545	0.517517	460.657415	4.774770	14.657834	0.073537	-3.181938	1.036512
0.230	1.639879	0.429592	460.577611	4.713590	14.641605	0.074867	-3.178966	1.023408
0.240	1.645604	0.339151	460.443912	4.648971	14.625590	0.075373	-3.176411	1.009671
0.250	1.639952	0.252160	460.289261	4.584108	14.610917	0.075044	-3.174290	0.995919
0.260	1.622916	0.174509	460.148978	4.521762	14.597975	0.074347	-3.172445	0.982673
0.270	1.599014	0.109992	460.051711	4.463496	14.586093	0.074044	-3.170533	0.970216
0.280	1.575058	0.059064	460.013997	4.409625	14.573457	0.074858	-3.168046	0.958585
0.290	1.556924	0.019133	460.038069	4.359955	14.557351	0.077163	-3.164380	0.947738
0.300	1.546964	-0.013724	460.112026	4.314777	14.534807	0.080843	-3.158971	0.937767
0.310	1.543525	-0.042636	460.212325	4.275383	14.503579	0.085372	-3.151497	0.929002
0.320	1.542917	-0.068583	460.309393	4.243781	14.463158	0.090061	-3.142052	0.921941
0.330	1.542434	-0.090436	460.376422	4.221893	14.415379	0.094334	-3.131216	0.917052
0.340	1.542212	-0.106100	460.399007	4.210769	14.364168	0.097872	-3.119939	0.914591
0.350	1.544593	-0.113907	460.381356	4.210216	14.314398	0.100564	-3.109248	0.914506
0.360	1.551694	-0.113413	460.345650	4.218980	14.270270	0.102330	-3.099903	0.916481
0.370	1.563166	-0.105284	460.324277	4.235361	14.234036	0.102997	-3.092176	0.920082
0.380	1.575783	-0.090687	460.347630	4.257871	14.205633	0.102348	-3.085849	0.924925
0.390	1.585094	-0.070920	460.431707	4.285515	14.183230	0.100308	-3.080420	0.930760
0.400	1.588018	-0.047529	460.570152	4.317566	14.164041	0.097166	-3.075328	0.937439
0.410	1.584736	-0.022474	460.734478	4.353041	14.144775	0.093648	-3.070049	0.944805
0.420	1.578820	0.002166	460.883205	4.390256	14.121660	0.090767	-3.064043	0.952575
0.430	1.575727	0.024855	460.976070	4.426780	14.090540	0.089487	-3.056675	0.960306
0.440	1.580873	0.045032	460.986582	4.459867	14.047455	0.090324	-3.047259	0.967461
0.450	1.598405	0.062976	460.907731	4.487301	13.989617	0.093059	-3.035232	0.973579
0.460	1.630841	0.079394	460.750341	4.508303	13.916248	0.096703	-3.020345	0.978470
0.470	1.678993	0.095235	460.537003	4.524094	13.828766	0.099769	-3.002748	0.982352
0.480	1.741748	0.111884	460.294898	4.537806	13.730248	0.100798	-2.982924	0.985848
0.490	1.815929	0.131325	460.049728	4.553641	13.624479	0.098915	-2.961523	0.989815
0.500	1.896642	0.155836	459.822327	4.575528	13.515081	0.094173	-2.939196	0.995064
0.510	1.978054	0.187112	459.628815	4.605809	13.405008	0.087550	-2.916486	1.002071
0.520	2.054221	0.225168	459.483577	4.644542	13.296470	0.080618	-2.893786	1.010818
0.530	2.119863	0.267674	459.402512	4.689743	13.191121	0.075026	-2.871365	1.020835
0.540	2.171343	0.310213	459.403485	4.738313	13.090290	0.071928	-2.849410	1.031405
0.550	2.207953	0.347439	459.501973	4.787118	12.995079	0.071565	-2.828079	1.041806
0.560	2.232885	0.374700	459.702117	4.833774	12.906284	0.073181	-2.807532	1.051501
0.570	2.252909	0.389669	459.986541	4.876992	12.824310	0.075347	-2.787975	1.060247
0.580	2.276335	0.393583	460.311170	4.916622	12.749311	0.076576	-2.769716	1.068108
0.590	2.309915	0.391470	460.610842	4.953483	12.681556	0.075923	-2.753204	1.075416
0.600	2.356209	0.390699	460.816573	4.989067	12.621748	0.073335	-2.738996	1.082658
0.610	2.412732	0.398054	460.878764	5.025072	12.570992	0.069629	-2.727614	1.090324
0.620	2.473117	0.416699	460.786727	5.062799	12.530410	0.066183	-2.719351	1.098729
0.630	2.529438	0.444751	460.575556	5.102532	12.500712	0.064474	-2.714150	1.107860
0.640	2.574496	0.476189	460.316234	5.143209	12.482001	0.065633	-2.711614	1.117321
0.650	2.603246	0.503432	460.091935	5.182681	12.473864	0.070123	-2.711168	1.126445
0.660	2.613178	0.520058	459.969802	5.218556	12.475585	0.077569	-2.712262	1.134543
0.670	2.603924	0.522446	459.979469	5.249221	12.486317	0.086795	-2.714538	1.141186
0.680	2.576431	0.510095	460.106178	5.274513	12.505103	0.096090	-2.717873	1.146369
0.690	2.532101	0.485098	460.300182	5.295737	12.530797	0.103707	-2.722310	1.150496
0.700	2.472347	0.451273	460.497662	5.315174	12.562022	0.108412	-2.727923	1.154224
0.710	2.398858	0.413317	460.644108	5.335374	12.597280	0.109824	-2.734710	1.158242
0.720	2.314310	0.376150	460.710891	5.358509	12.635099	0.108367	-2.742522	1.163096
0.730	2.222850	0.344552	460.699979	5.386008	12.673961	0.104900	-2.751023	1.169092
0.740	2.129871	0.323027	460.637365	5.418544	12.711942	0.100239	-2.759642	1.176314
0.750	2.041096	0.315727	460.559671	5.456321	12.746361	0.094866	-2.767581	1.184715
0.760	1.961439	0.326198	460.499580	5.499372	12.773880	0.088968	-2.773918	1.194219
0.770	1.894231	0.356658	460.474894	5.547617	12.791205	0.082738	-2.777829	1.204760
0.780	1.841152	0.406853	460.484319	5.600663	12.796094	0.076683	-2.778834	1.216255
0.790	1.802728	0.473007	460.511248	5.657543	12.788101	0.071703	-2.776936	1.228535
0.800	1.778798	0.547674	460.534416	5.716641	12.768677	0.068861	-2.772578	1.241306
0.810	1.768486	0.620965	460.540781	5.775831	12.740645	0.068976	-2.766453	1.254141
0.820	1.769803	0.683035	460.533583	5.832759	12.707335	0.072272	-2.759264	1.266522
0.830	1.779461	0.726991	460.530379	5.885183	12.671683	0.078235	-2.751541	1.277914
0.840	1.793458	0.750975	460.551934	5.931326	12.635532	0.085742	-2.743563	1.287874
0.850	1.808408	0.758283	460.608625	5.970096	12.599300	0.093386	-2.735359	1.296132
0.860	1.823001	0.755374	460.692013	6.001026	12.562136	0.099878	-2.726797	1.302611
0.870	1.838616	0.748774	460.775541	6.023990	12.522532	0.104363	-2.717708	1.307359
0.880	1.858496	0.742485	460.823511	6.038954	12.479221	0.106524	-2.708026	1.310470
0.890	1.885703	0.737067	460.804290	6.046112	12.432052	0.106456	-2.697903	1.312078
0.900	1.920948	0.730539	460.702728	6.046387	12.382568	0.104456	-2.687757	1.312427
0.910	1.961470	0.720298	460.527331	6.041911	12.334054	0.100851	-2.678246	1.311955
0.920	2.001517	0.704872	460.309502	6.035876	12.290966	0.095951	-2.670153	1.311265
0.930	2.034058	0.684668	460.094678	6.031594	12.257824	0.090061	-2.664196	1.310946
0.940	2.052826	0.661543	459.928237	6.031259	12.237946	0.083506	-2.660838	1.311348
0.950	2.053906	0.637613	459.841467	6.035231	12.232473	0.076656	-2.660150	1.312459
0.960	2.036715	0.614051	459.843020	6.042229	12.240024	0.069957	-2.661783	1.313976
0.970	2.004524	0.590579	459.918548	6.050120	12.257011	0.063949	-2.665039	1.315476
0.980	1.964441	0.566026	460.037665	6.056728	12.278478	0.059201	-2.669016	1.316572
0.990	1.926400	0.539723	460.164820	6.060368	12.299213	0.056137	-2.672784	1.316999
1.000	1.900837	0.512838	460.269701	6.060151	12.314855	0.054800	-2.675574	1.316652
1.010	1.895622	0.488643	460.333484	6.056167	12.322715	0.054723	-2.676910	1.315604
1.020	1.913410	0.471389	460.349888	6.049575	12.322083	0.055042	-2.676678	1.314125
1.030	1.950415	0.464425	460.322916	6.042556	12.314053	0.054869	-2.675090	1.312678
1.040	1.996924	0.468668	460.263917	6.038065	12.300967	0.053739	-2.672590	1.311870
1.050	2.039319	0.482291	460.189034	6.039299	12.285699	0.051907	-2.669707	1.312352
1.060	2.063258	0.501746	460.116783	6.048894	12.270945	0.050276	-2.666920	1.314643
1.070	2.057510	0.523549	460.065352	6.068031	12.258647	0.049954	-2.664545	1.318950
1.080	2.017574	0.545918	460.049512	6.095794	12.249681	0.051648	-2.662688	1.325030
1.090	1.947682	0.569461	460.077661	6.129111	12.243887	0.055280	-2.661265	1.332191
1.100	1.860005	0.596370	460.150330	6.163480	12.240335	0.060056	-2.660073	1.339449
1.110	1.771044	0.628296	460.261321	6.194321	12.237628	0.064895	-2.658844	1.345827
1.120	1.696539	0.663895	460.400958	6.218511	12.234158	0.068921	-2.657283	1.350673
1.130	1.646934	0.697566	460.559297	6.235378	12.228392	0.071726	-2.655118	1.353871
1.140	1.625102	0.720423	460.727250	6.246692	12.219213	0.073351	-2.652158	1.355833
1.150	1.627044	0.723515	460.894758	6.255719	12.206006	0.074094	-2.648328	1.357299
1.160	1.645122	0.702146	461.046430	6.265944	12.188267	0.074301	-2.643609	1.359070
1.170	1.672324	0.659387	461.157080	6.280073	12.164879	0.074209	-2.637904	1.361808
1.180	1.705519	0.606748	461.191612	6.299578	12.133685	0.073853	-2.630942	1.365935
1.190	1.746112	0.561131	461.112788	6.324726	12.091857	0.073026	-2.622321	1.371622
1.200	1.797908	0.539175	460.895571	6.354877	12.037077	0.071337	-2.611671	1.378811
1.210	1.863568	0.551620	460.541758	6.388845	11.968887	0.068421	-2.598871	1.387246
1.220	1.941710	0.600091	460.087728	6.425230	11.889358	0.064253	-2.584150	1.396523
1.230	2.026088	0.677208	459.601190	6.462720	11.802620	0.059365	-2.568013	1.406158
1.240	2.107148	0.769379	459.167133	6.500412	11.713470	0.054767	-2.551025	1.415696
1.250	2.175111	0.860825	458.866948	6.538094	11.625844	0.051553	-2.533598	1.424834
1.260	2.223163	0.937334	458.757213	6.576298	11.541974	0.050393	-2.515922	1.433503
1.270	2.249443	0.988806	458.854857	6.615934	11.462564	0.051217	-2.498081	1.441836
1.280	2.257172	1.010439	459.133095	6.657401	11.387620	0.053265	-2.480244	1.449994
1.290	2.253033	1.002855	459.529002	6.699569	11.317187	0.055451	-2.462780	1.457921
1.300	2.244687	0.971438	459.960458	6.739272	11.251476	0.056851	-2.446183	1.465185
1.310	2.238688	0.924977	460.347269	6.771855	11.190377	0.057096	-2.430856	1.471032
1.320	2.239620	0.873739	460.629668	6.792631	11.132888	0.056499	-2.416885	1.474640
1.330	2.250293	0.827258	460.778947	6.798547	11.076977	0.055872	-2.403968	1.475447
1.340	2.272284	0.792311	460.798872	6.789207	11.020137	0.056137	-2.391529	1.473356
1.350	2.306290	0.771578	460.719388	6.766796	10.960472	0.057945	-2.378991	1.468746
1.360	2.352191	0.763292	460.585149	6.735021	10.897927	0.061478	-2.366105	1.462275
1.370	2.408887	0.761950	460.442025	6.697671	10.835088	0.066450	-2.353193	1.454618
1.380	2.474019	0.759952	460.325349	6.657561	10.777036	0.072238	-2.341178	1.446273
1.390	2.543683	0.749779	460.253320	6.616314	10.730055	0.078055	-2.331337	1.437538
1.400	2.612355	0.726136	460.227215	6.574821	10.699596	0.083141	-2.324851	1.428603
1.410	2.673219	0.687390	460.237354	6.533757	10.688376	0.086955	-2.322362	1.419649
1.420	2.719035	0.635877	460.271055	6.493744	10.695493	0.089331	-2.323738	1.410852
1.430	2.743501	0.577034	460.317818	6.455202	10.716950	0.090542	-2.328163	1.402336
1.440	2.742799	0.517740	460.369462	6.418178	10.747207	0.091188	-2.334474	1.394136
1.450	2.716807	0.464481	460.417617	6.382349	10.780983	0.091921	-2.341566	1.386209
1.460	2.669320	0.421961	460.452981	6.347223	10.814557	0.093100	-2.348678	1.378474
1.470	2.607139	0.392489	460.467578	6.312515	10.846181	0.094588	-2.355471	1.370892
1.480	2.538496	0.376006	460.457185	6.278523	10.875666	0.095831	-2.361928	1.363541
1.490	2.471568	0.370479	460.421524	6.246197	10.903572	0.096196	-2.368172	1.356626
1.500	2.413447	0.372492	460.363334	6.216707	10.930510	0.095368	-2.374322	1.350391
1.510	2.369369	0.378051	460.288463	6.190761	10.956817	0.093536	-2.380424	1.344974
1.520	2.341867	0.383451	460.206888	6.168202	10.982592	0.091282	-2.386447	1.340311
1.530	2.330070	0.385928	460.132538	6.148197	11.007890	0.089210	-2.392330	1.336180
1.540	2.329772	0.383953	460.080526	6.129799	11.032910	0.087603	-2.398039	1.332332
1.550	2.334653	0.377227	460.062462	6.112379	11.058105	0.086315	-2.403609	1.328598
1.560	2.338148	0.366484	460.082067	6.095617	11.084114	0.084998	-2.409160	1.324898
1.570	2.334957	0.353150	460.133389	6.079185	11.111482	0.083449	-2.414839	1.321179
1.580	2.321613	0.338915	460.202693	6.062523	11.140276	0.081829	-2.420733	1.317359
1.590	2.296327	0.325280	460.273166	6.045004	11.169867	0.080582	-2.426791	1.313351
1.600	2.258843	0.313125	460.329977	6.026432	11.199167	0.080184	-2.432856	1.309155
1.610	2.210795	0.302337	460.363519	6.007550	11.227288	0.080870	-2.438787	1.304958
1.620	2.156315	0.291753	460.370397	5.990165	11.254217	0.082511	-2.444600	1.301162
1.630	2.101962	0.279721	460.353208	5.976817	11.280986	0.084654	-2.450507	1.298311
1.640	2.055283	0.265158	460.319863	5.970141	11.309072	0.086691	-2.456786	1.296955
1.650	2.022352	0.248442	460.282227	5.972203	11.339360	0.088050	-2.463567	1.297509
1.660	2.005535	0.231554	460.253571	5.983891	11.371364	0.088373	-2.470674	1.300129
1.670	2.002738	0.217544	460.244807	6.004432	11.403219	0.087604	-2.477642	1.304617
1.680	2.008514	0.209831	460.260281	6.031210	11.432412	0.085939	-2.483901	1.310391
1.690	2.016428	0.211584	460.294781	6.060202	11.456802	0.083648	-2.489014	1.316592
1.700	2.021468	0.224988	460.333853	6.087166	11.475377	0.080874	-2.492838	1.322337
1.710	2.021271	0.250345	460.358526	6.109216	11.488423	0.077566	-2.495538	1.327056
1.720	2.015767	0.285512	460.353243	6.126022	11.497177	0.073606	-2.497468	1.330722
1.730	2.005942	0.326241	460.313593	6.139950	11.503324	0.069089	-2.499019	1.333863
1.740	1.992905	0.367482	460.249964	6.155058	11.508650	0.064543	-2.500522	1.337329
1.750	1.977759	0.405091	460.184746	6.175358	11.514875	0.060861	-2.502229	1.341930
1.760	1.961902	0.437073	460.143808	6.203093	11.523522	0.058900	-2.504331	1.348077
1.770	1.947076	0.463617	460.146017	6.237658	11.535753	0.058982	-2.506977	1.355582
1.780	1.934950	0.485784	460.195886	6.275612	11.552227	0.060666	-2.510285	1.363683
1.790	1.926482	0.503639	460.283050	6.311782	11.573044	0.062954	-2.514332	1.371283
1.800	1.921445	0.515217	460.388650	6.341083	11.597789	0.064781	-2.519130	1.377333
1.810	1.918400	0.517323	460.494855	6.360370	11.625681	0.065484	-2.524606	1.381203
1.820	1.915115	0.507957	460.591983	6.369650	11.655872	0.064988	-2.530629	1.382927
1.830	1.909114	0.488984	460.679220	6.372189	11.687749	0.063723	-2.537069	1.383216
1.840	1.898006	0.467156	460.758605	6.373446	11.720907	0.062345	-2.543828	1.383251
1.850	1.879633	0.452421	460.825757	6.379202	11.754671	0.061440	-2.550784	1.384298
1.860	1.852475	0.454156	460.863225	6.393606	11.787531	0.061313	-2.557707	1.387311
1.870	1.816509	0.477360	460.841832	6.417846	11.817111	0.061913	-2.564244	1.392635
1.880	1.774178	0.520847	460.731380	6.449824	11.840876	0.062893	-2.570017	1.399910
1.890	1.730759	0.578073	460.516167	6.484712	11.857202	0.063776	-2.574763	1.408140
1.900	1.693694	0.639688	460.207214	6.516098	11.866195	0.064179	-2.578446	1.415905
1.910	1.670959	0.696250	459.844653	6.537431	11.869897	0.064006	-2.581284	1.421661
1.920	1.668908	0.739977	459.489090	6.543586	11.871814	0.063518	-2.583699	1.424100
1.930	1.690129	0.765292	459.206007	6.532262	11.876007	0.063251	-2.586205	1.422512
1.940	1.731784	0.768746	459.049627	6.504675	11.886089	0.063821	-2.589282	1.416987
1.950	1.785017	0.749095	459.051257	6.465153	11.904427	0.065706	-2.593268	1.408373
1.960	1.836150	0.707940	459.213490	6.419699	11.931679	0.069097	-2.598286	1.397977
1.970	1.869929	0.650588	459.509365	6.374119	11.966710	0.073827	-2.604236	1.387158
1.980	1.874013	0.586179	459.886353	6.332556	12.006965	0.079364	-2.610855	1.376983
1.990	1.842866	0.526238	460.276133	6.296956	12.049183	0.084888	-2.617816	1.368082
2.000	1.779494	0.481572	460.609428	6.267471	12.090248	0.089510	-2.624837	1.360691
2.010	1.694629	0.458554	460.831922	6.243289	12.127828	0.092624	-2.631725	1.354787
2.020	1.603864	0.456504	460.916008	6.223219	12.160635	0.094217	-2.638362	1.350185
2.030	1.523538	0.467535	460.865120	6.205765	12.188420	0.094909	-2.644683	1.346547
2.040	1.466350	0.479131	460.710642	6.188892	12.211897	0.095632	-2.650665	1.343336
2.050	1.437991	0.478456	460.503005	6.169935	12.232711	0.097085	-2.656380	1.339825
2.060	1.436021	0.456682	460.298530	6.145936	12.253309	0.099321	-2.662035	1.335207
2.070	1.451354	0.411696	460.144273	6.114435	12.276586	0.101762	-2.667986	1.328808
2.080	1.471606	0.348283	460.065224	6.074453	12.305351	0.103614	-2.674697	1.320346
2.090	1.484931	0.275932	460.058969	6.027239	12.341837	0.104375	-2.682664	1.310101
2.100	1.482981	0.205363	460.100128	5.976319	12.387460	0.104086	-2.692340	1.298917
2.110	1.462155	0.145214	460.152604	5.926652	12.442814	0.103201	-2.704063	1.287975
2.120	1.423014	0.100063	460.184800	5.883211	12.507762	0.102249	-2.717987	1.278445
2.130	1.368474	0.070182	460.182231	5.849588	12.581465	0.101531	-2.734018	1.271146
2.140	1.301786	0.052719	460.152491	5.827233	12.662336	0.101027	-2.751769	1.266370
2.150	1.225220	0.043491	460.120021	5.815572	12.748013	0.100538	-2.770584	1.263925
2.160	1.139868	0.038586	460.113073	5.812750	12.835405	0.099953	-2.789620	1.263331
2.170	1.046390	0.035386	460.149772	5.816443	12.920815	0.099454	-2.807959	1.264033
2.180	0.946288	0.033098	460.229890	5.824296	13.000137	0.099485	-2.824705	1.265519
2.190	0.843254	0.032969	460.334604	5.833970	13.069198	0.100459	-2.839065	1.267333
2.200	0.743927	0.038052	460.432943	5.843209	13.124315	0.102337	-2.850429	1.269068
2.210	0.657368	0.052121	460.492307	5.850289	13.162964	0.104351	-2.858455	1.270442
2.220	0.592967	0.077668	460.489466	5.854810	13.184308	0.105123	-2.863107	1.271432
2.230	0.557401	0.113729	460.417896	5.858248	13.189326	0.103202	-2.864642	1.272376
2.240	0.551978	0.154959	460.289207	5.863663	13.180448	0.097809	-2.863514	1.273908
2.250	0.571694	0.193082	460.129803	5.874482	13.160895	0.089381	-2.860257	1.276701
2.260	0.606649	0.220490	459.975116	5.892987	13.134055	0.079601	-2.855384	1.281153
2.270	0.645397	0.234202	459.862120	5.919435	13.103078	0.070856	-2.849349	1.287219
2.280	0.678812	0.237904	459.819859	5.952279	13.070600	0.065395	-2.842548	1.294481
2.290	0.702634	0.240717	459.859500	5.989167	13.038462	0.064603	-2.835314	1.302391
2.300	0.717639	0.253199	459.968238	6.027947	13.007405	0.068651	-2.827892	1.310514
2.310	0.727833	0.282518	460.111540	6.067165	12.976880	0.076555	-2.820377	1.318629
2.320	0.738134	0.329158	460.244784	6.106072	12.945097	0.086493	-2.812655	1.326701
2.330	0.752748	0.386705	460.330211	6.144504	12.909330	0.096234	-2.804363	1.334803
2.340	0.774586	0.444876	460.351661	6.182831	12.866394	0.103599	-2.794906	1.343067
2.350	0.805409	0.494406	460.319950	6.221952	12.813134	0.106930	-2.783528	1.351658
2.360	0.846292	0.531444	460.266121	6.263096	12.746782	0.105489	-2.769437	1.360755
2.370	0.898158	0.559237	460.225992	6.307323	12.665192	0.099674	-2.751951	1.370484
2.380	0.962239	0.586227	460.223569	6.354841	12.567064	0.090877	-2.730643	1.380816
2.390	1.040347	0.621638	460.261007	6.404539	12.452242	0.081015	-2.705474	1.391501
2.400	1.134725	0.671008	460.319199	6.454100	12.322051	0.071897	-2.676849	1.402092
2.410	1.247288	0.733931	460.367894	6.500723	12.179527	0.064725	-2.645607	1.412071
2.420	1.378242	0.804722	460.379888	6.542097	12.029308	0.059892	-2.612909	1.421021
