Time[s]	Fx[N]	Fy[N]	Fz[N]	Mx[Nm]	My[Nm]	Mz[Nm]	COPx[cm]	COPy[cm]
0.010	7.796247	-0.247816	480.746315	1.311904	4.925449	1.185819	-1.024542	0.272889
0.020	7.925756	-0.190218	480.583429	1.276500	4.893236	1.187532	-1.018187	0.265615
0.030	8.039085	-0.138374	480.465602	1.247512	4.861613	1.188688	-1.011854	0.259647
0.040	8.123845	-0.096641	480.421552	1.229451	4.831230	1.189049	-1.005623	0.255911
0.050	8.174200	-0.067140	480.455286	1.223477	4.802685	1.188879	-0.999611	0.254650
0.060	8.191243	-0.049481	480.546035	1.227319	4.776654	1.188850	-0.994006	0.255401
0.070	8.181690	-0.041152	480.656623	1.236346	4.754061	1.189739	-0.989076	0.257220
0.080	8.155612	-0.038563	480.746908	1.245325	4.736094	1.192041	-0.985153	0.259040
0.090	8.123777	-0.038592	480.787792	1.250112	4.723975	1.195701	-0.982549	0.260013
0.100	8.095147	-0.040139	480.771314	1.248606	4.718546	1.200116	-0.981453	0.259709
0.110	8.075233	-0.044867	480.713534	1.240622	4.719953	1.204404	-0.981864	0.258079
0.120	8.065845	-0.056388	480.649332	1.226911	4.727591	1.207773	-0.983584	0.255261
0.130	8.066130	-0.078052	480.620685	1.207980	4.740308	1.209760	-0.986289	0.251338
0.140	8.074147	-0.110564	480.661776	1.183460	4.756755	1.210221	-0.989626	0.246215
0.150	8.087986	-0.151019	480.785439	1.152299	4.775782	1.209145	-0.993329	0.239670
0.160	8.105864	-0.194012	480.975807	1.113562	4.796814	1.206506	-0.997309	0.231521
0.170	8.125507	-0.234102	481.190611	1.067282	4.820040	1.202287	-1.001690	0.221800
0.180	8.143760	-0.268098	481.372760	1.014835	4.846218	1.196648	-1.006749	0.210821
0.190	8.157158	-0.295857	481.466725	0.958713	4.876133	1.190065	-1.012766	0.199123
0.200	8.163209	-0.319242	481.433686	0.901921	4.910003	1.183304	-1.019871	0.187341
0.210	8.161392	-0.339924	481.261069	0.847377	4.947147	1.177228	-1.027955	0.176074
0.220	8.152976	-0.357357	480.965354	0.797588	4.986082	1.172564	-1.036682	0.165831
0.230	8.139686	-0.368178	480.589128	0.754678	5.024934	1.169742	-1.045578	0.157032
0.240	8.122066	-0.367623	480.193308	0.720498	5.061992	1.168861	-1.054157	0.150043
0.250	8.098672	-0.352448	479.844741	0.696439	5.096236	1.169717	-1.062059	0.145138
0.260	8.066609	-0.323897	479.600539	0.682788	5.127674	1.171840	-1.069155	0.142366
0.270	8.023065	-0.288934	479.493440	0.677987	5.157332	1.174516	-1.075579	0.141397
0.280	7.966936	-0.258768	479.524270	0.678462	5.186889	1.176905	-1.081674	0.141486
0.290	7.899881	-0.245050	479.665574	0.679421	5.218157	1.178306	-1.087874	0.141645
0.300	7.826680	-0.255394	479.874978	0.676315	5.252661	1.178460	-1.094589	0.140936
0.310	7.754903	-0.290283	480.111175	0.666201	5.291368	1.177708	-1.102113	0.138760
0.320	7.693810	-0.342853	480.344118	0.648433	5.334432	1.176853	-1.110544	0.134993
0.330	7.652538	-0.401677	480.555569	0.624526	5.380865	1.176748	-1.119718	0.129959
0.340	7.637987	-0.455175	480.733143	0.597445	5.428318	1.177841	-1.129175	0.124278
0.350	7.652945	-0.495529	480.864774	0.570604	5.473251	1.179910	-1.138210	0.118662
0.360	7.694937	-0.520438	480.938684	0.546900	5.511652	1.182105	-1.146020	0.113715
0.370	7.756255	-0.532442	480.948575	0.528062	5.540132	1.183289	-1.151918	0.109796
0.380	7.825554	-0.536751	480.899247	0.514426	5.557024	1.182535	-1.155549	0.106972
0.390	7.890817	-0.538979	480.807780	0.505041	5.562982	1.179568	-1.157007	0.105040
0.400	7.942753	-0.543707	480.699305	0.497862	5.560816	1.174973	-1.156818	0.103570
0.410	7.977178	-0.554046	480.599942	0.490059	5.554626	1.170049	-1.155769	0.101968
0.420	7.995289	-0.571694	480.529913	0.478578	5.548631	1.166356	-1.154690	0.099594
0.430	8.001716	-0.596913	480.498687	0.461013	5.546176	1.165105	-1.154254	0.095945
0.440	8.001373	-0.628264	480.503281	0.436470	5.549274	1.166654	-1.154888	0.090836
0.450	7.996689	-0.662435	480.530552	0.405932	5.558688	1.170352	-1.156781	0.084476
0.460	7.986652	-0.694639	480.563158	0.371849	5.574343	1.174807	-1.159961	0.077378
0.470	7.968114	-0.719706	480.587077	0.337175	5.595785	1.178425	-1.164364	0.070159
0.480	7.938418	-0.733434	480.597442	0.304303	5.622418	1.179976	-1.169881	0.063318
0.490	7.897600	-0.733676	480.600003	0.274330	5.653418	1.178958	-1.176325	0.057081
0.500	7.849008	-0.720925	480.607475	0.246898	5.687405	1.175641	-1.183378	0.051372
0.510	7.798401	-0.698407	480.632105	0.220650	5.722260	1.170880	-1.190570	0.045908
0.520	7.752221	-0.671625	480.677341	0.194138	5.755426	1.165862	-1.197358	0.040388
0.530	7.715647	-0.647247	480.732642	0.166775	5.784706	1.161930	-1.203311	0.034692
0.540	7.691006	-0.631437	480.775242	0.139434	5.809128	1.160419	-1.208284	0.029002
0.550	7.677219	-0.627870	480.779679	0.114455	5.829335	1.162403	-1.212475	0.023806
0.560	7.670671	-0.635981	480.730888	0.095001	5.847217	1.168317	-1.216318	0.019762
0.570	7.667099	-0.650276	480.633666	0.083945	5.864963	1.177625	-1.220256	0.017465
0.580	7.663493	-0.661558	480.512864	0.082693	5.884103	1.188759	-1.224547	0.017209
0.590	7.659030	-0.660235	480.403798	0.090491	5.905148	1.199493	-1.229205	0.018837
0.600	7.654681	-0.640608	480.337586	0.104524	5.928007	1.207658	-1.234133	0.021761
0.610	7.651867	-0.604048	480.328587	0.120751	5.952833	1.211920	-1.239325	0.025139
0.620	7.651056	-0.559228	480.369512	0.135073	5.980607	1.212266	-1.245001	0.028118
0.630	7.651119	-0.519062	480.435447	0.144396	6.012978	1.209943	-1.251568	0.030055
0.640	7.649760	-0.495831	480.494388	0.147226	6.051375	1.206880	-1.259406	0.030641
0.650	7.644590	-0.496716	480.520408	0.143720	6.096034	1.204876	-1.268632	0.029909
0.660	7.634033	-0.521529	480.504939	0.135355	6.145698	1.204916	-1.279008	0.028169
0.670	7.617375	-0.563277	480.461408	0.124486	6.198264	1.206877	-1.290065	0.025910
0.680	7.593964	-0.610990	480.420256	0.113953	6.251954	1.209681	-1.301351	0.023719
0.690	7.562380	-0.653389	480.415708	0.106682	6.306241	1.211806	-1.312663	0.022206
0.700	7.520628	-0.681912	480.470108	0.105196	6.361958	1.211921	-1.324111	0.021894
0.710	7.467662	-0.692273	480.583164	0.111056	6.420584	1.209380	-1.335999	0.023109
0.720	7.405269	-0.684567	480.731145	0.124346	6.483125	1.204362	-1.348597	0.025866
0.730	7.338910	-0.662302	480.876301	0.143395	6.549190	1.197680	-1.361928	0.029820
0.740	7.276771	-0.630901	480.982293	0.164998	6.616764	1.190406	-1.375677	0.034304
0.750	7.227365	-0.596210	481.029030	0.185243	6.682831	1.183502	-1.389278	0.038510
0.760	7.196720	-0.563448	481.020470	0.200777	6.744556	1.177555	-1.402135	0.041740
0.770	7.186212	-0.536689	480.981546	0.209943	6.800355	1.172730	-1.413849	0.043649
0.780	7.191683	-0.518732	480.945055	0.213178	6.850166	1.168980	-1.424314	0.044325
0.790	7.204113	-0.511076	480.934358	0.212442	6.894771	1.166393	-1.433620	0.044173
0.800	7.211931	-0.513874	480.950414	0.210037	6.934672	1.165344	-1.441868	0.043671
0.810	7.204673	-0.525798	480.969883	0.207395	6.969328	1.166264	-1.449015	0.043120
0.820	7.177091	-0.543913	480.955276	0.204390	6.997225	1.169105	-1.454860	0.042497
0.830	7.132183	-0.563793	480.871589	0.199458	7.016670	1.172934	-1.459157	0.041478
0.840	7.081669	-0.580158	480.700829	0.190506	7.026740	1.176025	-1.461770	0.039631
0.850	7.043160	-0.588143	480.448228	0.176193	7.027819	1.176528	-1.462763	0.036673
0.860	7.034497	-0.584954	480.139543	0.156881	7.021493	1.173346	-1.462386	0.032674
0.870	7.067076	-0.571347	479.813160	0.134660	7.010011	1.166701	-1.460988	0.028065
0.880	7.140973	-0.552120	479.511710	0.112446	6.995738	1.158067	-1.458929	0.023450
0.890	7.244310	-0.534928	479.276209	0.092747	6.980820	1.149557	-1.456534	0.019351
0.900	7.357312	-0.527485	479.142690	0.076780	6.967068	1.143153	-1.454070	0.016024
0.910	7.458945	-0.534358	479.138798	0.064309	6.955865	1.140122	-1.451743	0.013422
0.920	7.532942	-0.555067	479.278230	0.054124	6.948027	1.140732	-1.449686	0.011293
0.930	7.571100	-0.584526	479.554192	0.044821	6.943642	1.144245	-1.447937	0.009346
0.940	7.573680	-0.615555	479.935944	0.035412	6.942046	1.149144	-1.446453	0.007379
0.950	7.547843	-0.642128	480.372211	0.025461	6.942015	1.153577	-1.445132	0.005300
0.960	7.505048	-0.661793	480.801930	0.014778	6.942094	1.155938	-1.443857	0.003074
0.970	7.458131	-0.676188	481.168791	0.003077	6.940906	1.155400	-1.442510	0.000640
0.980	7.418650	-0.689519	481.433784	-0.010072	6.937322	1.152224	-1.440971	-0.002092
0.990	7.394939	-0.705938	481.580980	-0.025045	6.930497	1.147697	-1.439114	-0.005201
1.000	7.391072	-0.727219	481.615261	-0.041945	6.919856	1.143701	-1.436802	-0.008709
1.010	7.406798	-0.751832	481.554481	-0.060488	6.905124	1.142048	-1.433924	-0.012561
1.020	7.438433	-0.775524	481.420865	-0.079914	6.886470	1.143819	-1.430447	-0.016600
1.030	7.480499	-0.792805	481.236135	-0.098839	6.864647	1.148982	-1.426461	-0.020539
1.040	7.527527	-0.798686	481.021649	-0.115214	6.840946	1.156454	-1.422170	-0.023952
1.050	7.575357	-0.790256	480.800745	-0.126662	6.816827	1.164583	-1.417807	-0.026344
1.060	7.621669	-0.767805	480.598953	-0.131228	6.793394	1.171859	-1.413527	-0.027305
1.070	7.665853	-0.735215	480.439938	-0.128165	6.771140	1.177514	-1.409362	-0.026677
1.080	7.708334	-0.699474	480.339008	-0.118261	6.750156	1.181707	-1.405290	-0.024620
1.090	7.749382	-0.669199	480.298574	-0.103535	6.730627	1.185192	-1.401342	-0.021556
1.100	7.787751	-0.652323	480.308942	-0.086549	6.713177	1.188713	-1.397679	-0.018019
1.110	7.819871	-0.653653	480.353814	-0.069771	6.698761	1.192529	-1.394547	-0.014525
1.120	7.840218	-0.673420	480.416413	-0.055333	6.688205	1.196354	-1.392168	-0.011518
1.130	7.842914	-0.707464	480.482708	-0.045150	6.681664	1.199663	-1.390615	-0.009397
1.140	7.823933	-0.748648	480.541509	-0.041047	6.678367	1.202083	-1.389759	-0.008542
1.150	7.783048	-0.788588	480.583857	-0.044524	6.676835	1.203579	-1.389317	-0.009264
1.160	7.724799	-0.819194	480.603751	-0.056161	6.675478	1.204388	-1.388978	-0.011685
1.170	7.658033	-0.834214	480.600222	-0.075044	6.673251	1.204798	-1.388524	-0.015615
1.180	7.593933	-0.830988	480.579069	-0.098626	6.669973	1.204919	-1.387903	-0.020522
1.190	7.543008	-0.811988	480.552350	-0.123186	6.666188	1.204557	-1.387193	-0.025634
1.200	7.512223	-0.785059	480.534957	-0.144765	6.662679	1.203275	-1.386513	-0.030126
1.210	7.503458	-0.761408	480.539408	-0.160341	6.659970	1.200646	-1.385936	-0.033367
1.220	7.513808	-0.751555	480.571096	-0.168865	6.658022	1.196543	-1.385440	-0.035138
1.230	7.537300	-0.760946	480.626025	-0.171724	6.656204	1.191287	-1.384903	-0.035729
1.240	7.567162	-0.787580	480.691920	-0.172247	6.653500	1.185512	-1.384151	-0.035833
1.250	7.597804	-0.823038	480.752209	-0.174306	6.648869	1.179885	-1.383014	-0.036257
1.260	7.625899	-0.856501	480.791321	-0.180537	6.641677	1.174892	-1.381405	-0.037550
1.270	7.650302	-0.879697	480.799651	-0.191063	6.632013	1.170824	-1.379372	-0.039739
1.280	7.670952	-0.890225	480.776802	-0.203455	6.620719	1.167874	-1.377088	-0.042318
1.290	7.687452	-0.891757	480.732029	-0.213988	6.609048	1.166166	-1.374788	-0.044513
1.300	7.698221	-0.891326	480.681499	-0.219398	6.598187	1.165667	-1.372673	-0.045643
1.310	7.700687	-0.895379	480.643425	-0.218026	6.588920	1.166080	-1.370854	-0.045361
1.320	7.692312	-0.906627	480.633319	-0.209787	6.581579	1.166890	-1.369356	-0.043648
1.330	7.671929	-0.922986	480.661168	-0.195349	6.576158	1.167573	-1.368148	-0.040642
1.340	7.640915	-0.938582	480.730484	-0.175388	6.572412	1.167864	-1.367172	-0.036484
1.350	7.603805	-0.945846	480.837973	-0.150446	6.569928	1.167880	-1.366350	-0.031288
1.360	7.567928	-0.937695	480.973280	-0.121203	6.568205	1.168020	-1.365607	-0.025199
1.370	7.541756	-0.909232	481.119975	-0.088750	6.566730	1.168672	-1.364884	-0.018447
1.380	7.532201	-0.858939	481.259088	-0.054569	6.564948	1.169965	-1.364119	-0.011339
1.390	7.541922	-0.789515	481.374085	-0.020231	6.562154	1.171717	-1.363213	-0.004203
1.400	7.568059	-0.708188	481.453853	0.013047	6.557426	1.173617	-1.362005	0.002710
1.410	7.603286	-0.625935	481.491553	0.044797	6.549694	1.175400	-1.360293	0.009304
1.420	7.638868	-0.555087	481.481261	0.075464	6.537936	1.176874	-1.357880	0.015673
1.430	7.668339	-0.505773	481.416552	0.106315	6.521409	1.177793	-1.354629	0.022084
1.440	7.689988	-0.482598	481.293017	0.139104	6.499845	1.177754	-1.350497	0.028902
1.450	7.706799	-0.483017	481.112524	0.175566	6.473614	1.176299	-1.345551	0.036492
1.460	7.723824	-0.498174	480.885390	0.216823	6.443847	1.173202	-1.339997	0.045088
1.470	7.744534	-0.515976	480.629065	0.262893	6.412496	1.168777	-1.334188	0.054698
1.480	7.768458	-0.525396	480.365228	0.312544	6.382173	1.163925	-1.328608	0.065064
1.490	7.791464	-0.520401	480.117616	0.363660	6.355759	1.159798	-1.323792	0.075744
1.500	7.808174	-0.501858	479.910683	0.414037	6.335816	1.157230	-1.320207	0.086274
1.510	7.814678	-0.476533	479.767513	0.462216	6.324034	1.156322	-1.318146	0.096342
1.520	7.809999	-0.453535	479.706158	0.507916	6.320919	1.156465	-1.317665	0.105881
1.530	7.795905	-0.439767	479.735591	0.551911	6.325793	1.156813	-1.318600	0.115045
1.540	7.775699	-0.436300	479.853521	0.595531	6.337051	1.156833	-1.320622	0.124107
1.550	7.752850	-0.437306	480.047109	0.640094	6.352535	1.156555	-1.323315	0.133340
1.560	7.730135	-0.432151	480.295410	0.686421	6.369917	1.156406	-1.326250	0.142916
1.570	7.709574	-0.409997	480.571402	0.734555	6.387011	1.156837	-1.329045	0.152850
1.580	7.693024	-0.364917	480.842931	0.783816	6.401984	1.158035	-1.331409	0.163009
1.590	7.682839	-0.299213	481.074474	0.833243	6.413446	1.159884	-1.333150	0.173205
1.600	7.682039	-0.223480	481.232303	0.882269	6.420466	1.162077	-1.334172	0.183335
1.610	7.693740	-0.153538	481.292947	0.931172	6.422578	1.164233	-1.334443	0.193473
1.620	7.719985	-0.105419	481.251214	0.980910	6.419829	1.165956	-1.333987	0.203825
1.630	7.760379	-0.090010	481.123061	1.032379	6.412848	1.166932	-1.332891	0.214577
1.640	7.811000	-0.108860	480.940990	1.085590	6.402920	1.167065	-1.331332	0.225722
1.650	7.864180	-0.152650	480.743583	1.139354	6.391997	1.166553	-1.329606	0.236998
1.660	7.909565	-0.203330	480.564107	1.191647	6.382586	1.165790	-1.328145	0.247968
1.670	7.936556	-0.239725	480.423725	1.240365	6.377392	1.165135	-1.327452	0.258181
1.680	7.937734	-0.244633	480.331585	1.283995	6.378665	1.164770	-1.327971	0.267314
1.690	7.912140	-0.210564	480.289320	1.321917	6.387439	1.164782	-1.329915	0.275234
1.700	7.866673	-0.141791	480.295277	1.354346	6.403027	1.165371	-1.333144	0.281982
1.710	7.814300	-0.052118	480.345623	1.382158	6.423067	1.166959	-1.337176	0.287742
1.720	7.769332	0.040418	480.432800	1.406803	6.444162	1.170018	-1.341324	0.292820
1.730	7.741816	0.119523	480.543712	1.430235	6.462820	1.174736	-1.344897	0.297629
1.740	7.733632	0.174963	480.660153	1.454591	6.476343	1.180740	-1.347385	0.302624
1.750	7.738088	0.204116	480.762677	1.481444	6.483345	1.187108	-1.348554	0.308145
1.760	7.743174	0.211068	480.836754	1.510886	6.483825	1.192667	-1.348446	0.314220
1.770	7.737075	0.204291	480.877973	1.540931	6.478855	1.196478	-1.347297	0.320441
1.780	7.713421	0.193750	480.892914	1.567728	6.470084	1.198255	-1.345431	0.326004
1.790	7.673849	0.187889	480.894709	1.586684	6.459237	1.198504	-1.343171	0.329944
1.800	7.626810	0.190990	480.895643	1.594128	6.447726	1.198294	-1.340775	0.331491
1.810	7.583541	0.201772	480.901142	1.588829	6.436415	1.198777	-1.338407	0.330386
1.820	7.553414	0.214120	480.908598	1.572618	6.425596	1.200709	-1.336137	0.327010
1.830	7.540805	0.220184	480.911255	1.549790	6.415153	1.204170	-1.333958	0.322261
1.840	7.544475	0.214745	480.904058	1.525528	6.404845	1.208567	-1.331834	0.317221
1.850	7.559121	0.198670	480.887431	1.504116	6.394548	1.212846	-1.329739	0.312779
1.860	7.578020	0.179311	480.866791	1.487760	6.384327	1.215818	-1.327671	0.309391
1.870	7.595628	0.167308	480.848589	1.476411	6.374312	1.216512	-1.325638	0.307043
1.880	7.609224	0.171373	480.835538	1.468407	6.364396	1.214441	-1.323612	0.305387
1.890	7.619017	0.193836	480.823823	1.461396	6.353914	1.209733	-1.321464	0.303936
1.900	7.626698	0.229153	480.804033	1.453002	6.341515	1.203134	-1.318940	0.302202
1.910	7.633333	0.265905	480.765837	1.441073	6.325381	1.195930	-1.315689	0.299745
1.920	7.638082	0.291079	480.704245	1.423648	6.303812	1.189777	-1.311370	0.296159
1.930	7.638719	0.294637	480.624356	1.398981	6.275928	1.186371	-1.305786	0.291076
1.940	7.633634	0.272621	480.542796	1.365823	6.242203	1.186962	-1.298990	0.284225
1.950	7.623819	0.227936	480.485690	1.323883	6.204602	1.191869	-1.291319	0.275530
1.960	7.613405	0.168785	480.483204	1.274224	6.166302	1.200180	-1.283354	0.265196
1.970	7.608336	0.105411	480.560485	1.219315	6.131119	1.209811	-1.275827	0.253728
1.980	7.613985	0.046432	480.726841	1.162622	6.102752	1.217966	-1.269484	0.241847
1.990	7.632894	-0.003803	480.968010	1.107788	6.083867	1.221931	-1.264921	0.230325
2.000	7.663559	-0.045885	481.246714	1.057656	6.075133	1.219971	-1.262374	0.219774
2.010	7.700579	-0.084156	481.512651	1.013445	6.074535	1.211974	-1.261553	0.210471
2.020	7.736057	-0.124430	481.717575	0.974306	6.077460	1.199511	-1.261623	0.202257
2.030	7.761882	-0.171541	481.828397	0.937407	6.077798	1.185280	-1.261403	0.194552
2.040	7.772363	-0.227416	481.833031	0.898639	6.069799	1.172151	-1.259731	0.186504
2.050	7.766538	-0.290224	481.737986	0.853854	6.049868	1.162230	-1.255842	0.177245
2.060	7.749338	-0.354963	481.560661	0.800336	6.017554	1.156305	-1.249594	0.166196
2.070	7.730868	-0.415421	481.321543	0.737978	5.975401	1.153836	-1.241457	0.153323
2.080	7.723560	-0.466711	481.040550	0.669672	5.927912	1.153391	-1.232310	0.139213
2.090	7.737803	-0.507161	480.737739	0.600616	5.880166	1.153323	-1.223155	0.124936
2.100	7.777618	-0.538578	480.434937	0.536708	5.836535	1.152404	-1.214844	0.111713
2.110	7.838407	-0.564793	480.155268	0.482741	5.799787	1.150196	-1.207898	0.100539
2.120	7.908144	-0.589320	479.921073	0.441203	5.770692	1.147071	-1.202425	0.091932
2.130	7.971658	-0.613476	479.752410	0.412113	5.748194	1.143910	-1.198158	0.085901
2.140	8.015989	-0.636029	479.666290	0.393658	5.730065	1.141667	-1.194594	0.082069
2.150	8.034350	-0.654542	479.674522	0.382981	5.713829	1.140933	-1.191189	0.079842
2.160	8.027354	-0.667444	479.779193	0.376748	5.697641	1.141633	-1.187555	0.078525
2.170	8.001723	-0.675453	479.968093	0.371529	5.680883	1.142967	-1.183596	0.077407
2.180	7.967680	-0.681575	480.213768	0.364265	5.664273	1.143668	-1.179531	0.075855
2.190	7.936104	-0.689827	480.477782	0.352848	5.649417	1.142542	-1.175792	0.073437
2.200	7.916118	-0.703437	480.718508	0.336654	5.637922	1.139060	-1.172812	0.070032
2.210	7.913475	-0.723393	480.899360	0.316761	5.630449	1.133682	-1.170817	0.065868
2.220	7.929954	-0.748052	480.995426	0.295708	5.626216	1.127723	-1.169703	0.061478
2.230	7.963666	-0.773986	480.997920	0.276796	5.623245	1.122860	-1.169079	0.057546
2.240	8.009807	-0.797466	480.916336	0.263056	5.619300	1.120551	-1.168457	0.054699
2.250	8.061617	-0.815573	480.777835	0.256214	5.613057	1.121592	-1.167495	0.053291
2.260	8.111622	-0.826377	480.623022	0.256099	5.604959	1.125930	-1.166186	0.053285
2.270	8.153220	-0.828517	480.497193	0.260815	5.597298	1.132698	-1.164897	0.054280
2.280	8.182233	-0.820989	480.437378	0.267598	5.593434	1.140464	-1.164238	0.055699
2.290	8.197777	-0.803667	480.458914	0.273921	5.596429	1.147642	-1.164809	0.057012
2.300	8.202054	-0.778359	480.548432	0.278311	5.607630	1.152976	-1.166923	0.057915
2.310	8.199109	-0.749549	480.668797	0.280499	5.625872	1.155893	-1.170426	0.058356
2.320	8.193051	-0.723859	480.775046	0.280890	5.647724	1.156583	-1.174712	0.058424
2.330	8.186371	-0.708047	480.833571	0.279735	5.668810	1.155798	-1.178955	0.058177
2.340	8.178915	-0.706366	480.835042	0.276588	5.685668	1.154537	-1.182457	0.057522
2.350	8.167846	-0.718637	480.795553	0.270391	5.697284	1.153766	-1.184970	0.056238
2.360	8.148743	-0.739975	480.746624	0.260085	5.705545	1.154219	-1.186809	0.054100
2.370	8.117656	-0.762280	480.719443	0.245343	5.714411	1.156309	-1.188721	0.051037
2.380	8.073360	-0.776911	480.730811	0.226989	5.728326	1.160092	-1.191587	0.047217
2.390	8.018706	-0.777637	480.777318	0.206861	5.750683	1.165284	-1.196122	0.043026
2.400	7.960184	-0.762922	480.840123	0.187174	5.782980	1.171324	-1.202683	0.038926
2.410	7.905642	-0.736704	480.896849	0.169766	5.824784	1.177495	-1.211234	0.035302
2.420	7.861043	-0.707203	480.933402	0.155652	5.874255	1.183101	-1.221428	0.032365
