Time[s]	Fx[N]	Fy[N]	Fz[N]	Mx[Nm]	My[Nm]	Mz[Nm]	COPx[cm]	COPy[cm]
0.010	3.835695	-1.479654	688.463445	2.434183	23.012357	-0.044116	-3.342568	0.353567
0.020	3.904411	-1.463241	688.657132	2.466605	22.975587	-0.044373	-3.336288	0.358176
0.030	3.955611	-1.444844	688.800935	2.504111	22.946812	-0.045278	-3.331414	0.363546
0.040	3.976834	-1.423181	688.862294	2.549503	22.932144	-0.047038	-3.328988	0.370103
0.050	3.963020	-1.397677	688.836811	2.602592	22.934384	-0.049123	-3.329436	0.377824
0.060	3.916582	-1.368875	688.744593	2.660376	22.952344	-0.050545	-3.332490	0.386264
0.070	3.845672	-1.338868	688.617298	2.718230	22.981126	-0.050422	-3.337286	0.394737
0.080	3.761864	-1.311268	688.483353	2.771524	23.013423	-0.048418	-3.342626	0.402555
0.090	3.677905	-1.290224	688.358569	2.817063	23.041768	-0.044822	-3.347350	0.409244
0.100	3.605663	-1.278558	688.245695	2.853982	23.061067	-0.040279	-3.350703	0.414675
0.110	3.554207	-1.276064	688.141262	2.883874	23.070391	-0.035451	-3.352566	0.419082
0.120	3.528147	-1.279176	688.044555	2.910094	23.073120	-0.030851	-3.353434	0.422951
0.130	3.526592	-1.282478	687.963415	2.936406	23.075351	-0.026953	-3.354154	0.426826
0.140	3.543249	-1.281229	687.913956	2.965494	23.083299	-0.024455	-3.355550	0.431085
0.150	3.568049	-1.273453	687.914623	2.997941	23.100834	-0.024475	-3.358096	0.435801
0.160	3.590125	-1.260492	687.977957	3.032100	23.128186	-0.028428	-3.361763	0.440726
0.170	3.601131	-1.245921	688.104170	3.064900	23.162258	-0.037527	-3.366098	0.445412
0.180	3.597444	-1.233596	688.278846	3.093329	23.198271	-0.052037	-3.370476	0.449430
0.190	3.580207	-1.225970	688.474633	3.115985	23.231852	-0.070689	-3.374395	0.452593
0.200	3.553484	-1.223424	688.655898	3.134004	23.260599	-0.090651	-3.377681	0.455090
0.210	3.521976	-1.224584	688.785982	3.150892	23.284572	-0.108235	-3.380524	0.457456
0.220	3.489793	-1.227018	688.836841	3.171252	23.305754	-0.120114	-3.383349	0.460378
0.230	3.460545	-1.227856	688.798968	3.198963	23.327000	-0.124555	-3.386619	0.464426
0.240	3.437800	-1.224294	688.687348	3.235589	23.351064	-0.122116	-3.390663	0.469820
0.250	3.424767	-1.214118	688.539640	3.279718	23.380060	-0.115514	-3.395601	0.476330
0.260	3.422892	-1.196139	688.406027	3.327478	23.415352	-0.108711	-3.401387	0.483360
0.270	3.430068	-1.170462	688.333808	3.373933	23.457630	-0.105570	-3.407886	0.490159
0.280	3.439857	-1.138642	688.352053	3.414644	23.506867	-0.108598	-3.414948	0.496061
0.290	3.442835	-1.103756	688.461760	3.446720	23.562071	-0.118207	-3.422423	0.500641
0.300	3.430044	-1.070076	688.634992	3.469056	23.621042	-0.132690	-3.430125	0.503758
0.310	3.397054	-1.042207	688.823114	3.481965	23.680592	-0.148906	-3.437834	0.505495
0.320	3.346414	-1.024039	688.971271	3.486564	23.737493	-0.163398	-3.445353	0.506054
0.330	3.286839	-1.018110	689.034844	3.484189	23.789895	-0.173528	-3.452640	0.505662
0.340	3.229264	-1.025499	688.993357	3.475960	23.838502	-0.178221	-3.459903	0.504498
0.350	3.181652	-1.045854	688.857420	3.462544	23.886782	-0.178073	-3.467594	0.502650
0.360	3.145102	-1.077301	688.665469	3.444148	23.940035	-0.174848	-3.476294	0.500119
0.370	3.112964	-1.116395	688.470523	3.420764	24.003725	-0.170605	-3.486529	0.496864
0.380	3.073286	-1.158494	688.321978	3.392573	24.081800	-0.166855	-3.498624	0.492876
0.390	3.013570	-1.198648	688.250181	3.360333	24.175537	-0.164085	-3.512609	0.488243
0.400	2.925990	-1.232696	688.259721	3.325500	24.283078	-0.161825	-3.528185	0.483175
0.410	2.811065	-1.258243	688.332542	3.289965	24.399582	-0.159124	-3.544737	0.477962
0.420	2.678602	-1.275265	688.437569	3.255571	24.517859	-0.155134	-3.561377	0.472893
0.430	2.545676	-1.286177	688.542126	3.223736	24.629466	-0.149543	-3.577046	0.468197
0.440	2.432191	-1.295201	688.621730	3.195379	24.726180	-0.142707	-3.590677	0.464025
0.450	2.355133	-1.306972	688.666210	3.171071	24.801725	-0.135480	-3.601415	0.460466
0.460	2.323254	-1.324652	688.680213	3.151230	24.853321	-0.128865	-3.608833	0.457575
0.470	2.334113	-1.348265	688.677228	3.136249	24.882450	-0.123631	-3.613079	0.455402
0.480	2.374750	-1.374042	688.669632	3.126540	24.894353	-0.120095	-3.614847	0.453997
0.490	2.425872	-1.395316	688.660140	3.122491	24.896336	-0.118114	-3.615185	0.453415
0.500	2.467899	-1.404910	688.639221	3.124380	24.895548	-0.117226	-3.615180	0.453703
0.510	2.486478	-1.398303	688.588996	3.132272	24.897101	-0.116831	-3.615669	0.454883
0.520	2.475481	-1.376151	688.490448	3.145900	24.903093	-0.116343	-3.617057	0.456927
0.530	2.436941	-1.344539	688.330553	3.164491	24.912711	-0.115318	-3.619295	0.459734
0.540	2.378685	-1.312354	688.108540	3.186628	24.923279	-0.113547	-3.621998	0.463100
0.550	2.311107	-1.287038	687.842029	3.210364	24.931848	-0.111119	-3.624647	0.466730
0.560	2.244391	-1.271221	687.571337	3.233711	24.936746	-0.108433	-3.626787	0.470309
0.570	2.186855	-1.262260	687.356661	3.255391	24.938439	-0.106138	-3.628166	0.473610
0.580	2.144317	-1.254635	687.264021	3.275472	24.939255	-0.104955	-3.628774	0.476596
0.590	2.120049	-1.243392	687.342939	3.295487	24.942075	-0.105427	-3.628767	0.479453
0.600	2.115025	-1.226541	687.605657	3.317935	24.948594	-0.107725	-3.628329	0.482535
0.610	2.128382	-1.205453	688.017953	3.345334	24.958014	-0.111580	-3.627524	0.486228
0.620	2.158101	-1.183605	688.505714	3.379173	24.966745	-0.116392	-3.626222	0.490798
0.630	2.201770	-1.164593	688.974528	3.419134	24.969156	-0.121419	-3.624104	0.496264
0.640	2.257200	-1.150305	689.335523	3.462920	24.958980	-0.125985	-3.620730	0.502356
0.650	2.322704	-1.140038	689.529261	3.506944	24.930832	-0.129647	-3.615631	0.508600
0.660	2.397075	-1.131026	689.539792	3.547693	24.881401	-0.132286	-3.608407	0.514502
0.670	2.479402	-1.120086	689.394107	3.583178	24.810014	-0.134112	-3.598814	0.519758
0.680	2.568707	-1.105290	689.148455	3.613719	24.718532	-0.135572	-3.586822	0.524374
0.690	2.663325	-1.086591	688.869020	3.641672	24.610805	-0.137187	-3.572639	0.528645
0.700	2.760037	-1.065170	688.615694	3.670264	24.492019	-0.139344	-3.556704	0.532992
0.710	2.853367	-1.042330	688.433576	3.702013	24.368207	-0.142088	-3.539660	0.537744
0.720	2.935749	-1.018948	688.351019	3.737412	24.245910	-0.145019	-3.522318	0.542951
0.730	2.999212	-0.995804	688.379602	3.774400	24.131628	-0.147382	-3.505570	0.548302
0.740	3.038538	-0.974256	688.512399	3.808877	24.030768	-0.148377	-3.490245	0.553204
0.750	3.054721	-0.956389	688.721017	3.836082	23.946264	-0.147527	-3.476918	0.556986
0.760	3.056581	-0.944325	688.955701	3.852281	23.877665	-0.144916	-3.465777	0.559148
0.770	3.058676	-0.939164	689.153119	3.856084	23.821544	-0.141115	-3.456640	0.559539
0.780	3.075633	-0.940353	689.252765	3.848867	23.773326	-0.136826	-3.449145	0.558412
0.790	3.115480	-0.945964	689.217164	3.834170	23.729694	-0.132472	-3.442992	0.556308
0.800	3.175544	-0.953759	689.047239	3.816353	23.690290	-0.128008	-3.438123	0.553859
0.810	3.243079	-0.962398	688.785324	3.799088	23.657885	-0.123089	-3.434726	0.551563
0.820	3.300213	-0.972080	688.503425	3.784298	23.636974	-0.117479	-3.433095	0.549641
0.830	3.330662	-0.984273	688.280237	3.771961	23.631469	-0.111407	-3.433408	0.548027
0.840	3.325265	-1.000701	688.174648	3.760709	23.642482	-0.105594	-3.435535	0.546476
0.850	3.284524	-1.022090	688.205304	3.748744	23.667133	-0.100915	-3.438964	0.544713
0.860	3.218014	-1.047289	688.344336	3.734575	23.698936	-0.097896	-3.442890	0.542545
0.870	3.141515	-1.073247	688.528391	3.717463	23.729687	-0.096419	-3.446436	0.539914
0.880	3.072923	-1.096052	688.683134	3.697631	23.752125	-0.095807	-3.448919	0.536913
0.890	3.027727	-1.112621	688.751446	3.676184	23.762237	-0.095171	-3.450045	0.533746
0.900	3.014957	-1.122032	688.713927	3.654588	23.760265	-0.093766	-3.449947	0.530639
0.910	3.034846	-1.125613	688.594131	3.633871	23.750147	-0.091145	-3.449078	0.527723
0.920	3.079282	-1.125850	688.447790	3.614090	23.737867	-0.087154	-3.448027	0.524962
0.930	3.134953	-1.125026	688.341070	3.594523	23.729450	-0.081862	-3.447339	0.522201
0.940	3.187753	-1.124455	688.325623	3.574520	23.729281	-0.075526	-3.447392	0.519307
0.950	3.226681	-1.124413	688.418504	3.554342	23.739162	-0.068615	-3.448362	0.516305
0.960	3.246270	-1.124445	688.593779	3.535324	23.758241	-0.061812	-3.450255	0.513412
0.970	3.247282	-1.123851	688.789603	3.519222	23.783648	-0.055905	-3.452963	0.510928
0.980	3.235601	-1.122360	688.929538	3.507172	23.811495	-0.051538	-3.456303	0.509076
0.990	3.219568	-1.120856	688.951212	3.498949	23.837932	-0.048910	-3.460032	0.507866
1.000	3.206832	-1.121715	688.831483	3.492943	23.860146	-0.047632	-3.463858	0.507082
1.010	3.202161	-1.128405	688.597553	3.486775	23.877201	-0.046880	-3.467512	0.506359
1.020	3.206817	-1.144430	688.319024	3.478174	23.890511	-0.045809	-3.470849	0.505314
1.030	3.218809	-1.171990	688.084258	3.465650	23.903653	-0.044021	-3.473943	0.503666
1.040	3.233271	-1.210811	687.970766	3.448654	23.921394	-0.041762	-3.477095	0.501279
1.050	3.243090	-1.257504	688.020275	3.427226	23.948168	-0.039754	-3.480736	0.498129
1.060	3.240459	-1.305799	688.225838	3.401438	23.986626	-0.038772	-3.485284	0.494233
1.070	3.219226	-1.347845	688.534057	3.371133	24.036799	-0.039271	-3.491011	0.489610
1.080	3.176864	-1.376475	688.861632	3.336250	24.096180	-0.041273	-3.497971	0.484313
1.090	3.114923	-1.387783	689.121358	3.297519	24.160636	-0.044543	-3.506006	0.478511
1.100	3.037972	-1.382844	689.248844	3.256924	24.225823	-0.048853	-3.514815	0.472532
1.110	2.951997	-1.367527	689.220349	3.217384	24.288635	-0.054105	-3.524074	0.466815
1.120	2.863077	-1.350150	689.056103	3.181717	24.348169	-0.060243	-3.533554	0.461750
1.130	2.776379	-1.337983	688.809991	3.151483	24.405852	-0.067030	-3.543191	0.457526
1.140	2.695230	-1.334264	688.551464	3.126406	24.464721	-0.073906	-3.553071	0.454056
1.150	2.620464	-1.337213	688.346528	3.104721	24.528113	-0.080071	-3.563338	0.451040
1.160	2.550719	-1.341534	688.242680	3.084269	24.598167	-0.084770	-3.574054	0.448137
1.170	2.483971	-1.341703	688.259988	3.063748	24.674591	-0.087601	-3.585068	0.445144
1.180	2.419623	-1.335296	688.388525	3.043338	24.754153	-0.088699	-3.595957	0.442096
1.190	2.359844	-1.324594	688.591684	3.024297	24.831165	-0.088684	-3.606080	0.439200
1.200	2.309313	-1.315749	688.815184	3.007756	24.898952	-0.088391	-3.614751	0.436656
1.210	2.273470	-1.316285	689.001344	2.993547	24.951830	-0.088466	-3.621449	0.434476
1.220	2.255958	-1.332456	689.105725	2.979882	24.986960	-0.089019	-3.625998	0.432427
1.230	2.256138	-1.367435	689.110142	2.964085	25.005435	-0.089541	-3.628656	0.430132
1.240	2.267714	-1.420530	689.026575	2.943866	25.012184	-0.089207	-3.630075	0.427250
1.250	2.279356	-1.487214	688.891135	2.918358	25.014733	-0.087423	-3.631159	0.423631
1.260	2.277437	-1.559939	688.751474	2.888450	25.021252	-0.084293	-3.632842	0.419375
1.270	2.249865	-1.629621	688.651539	2.856387	25.038577	-0.080702	-3.635885	0.414780
1.280	2.189545	-1.687419	688.616590	2.824922	25.070701	-0.077991	-3.640734	0.410231
1.290	2.096404	-1.726219	688.642060	2.796381	25.117841	-0.077430	-3.647445	0.406072
1.300	1.977731	-1.741572	688.691199	2.771966	25.175976	-0.079785	-3.655626	0.402498
1.310	1.846900	-1.732291	688.704969	2.751528	25.236909	-0.085105	-3.664401	0.399522
1.320	1.720699	-1.700924	688.622737	2.733840	25.289234	-0.092751	-3.672437	0.397001
1.330	1.615757	-1.653882	688.407112	2.717211	25.320523	-0.101601	-3.678132	0.394710
1.340	1.544977	-1.600573	688.063558	2.700236	25.320503	-0.110379	-3.679966	0.392440
1.350	1.515044	-1.551235	687.646185	2.682411	25.284247	-0.118054	-3.676927	0.390086
1.360	1.525773	-1.513936	687.245583	2.664363	25.214019	-0.124148	-3.668851	0.387687
1.370	1.571354	-1.492078	686.962190	2.647561	25.118871	-0.128847	-3.656514	0.385401
1.380	1.642759	-1.483789	686.875440	2.633715	25.012075	-0.132819	-3.641428	0.383434
1.390	1.730164	-1.483648	687.020565	2.624158	24.907414	-0.136820	-3.625425	0.381962
1.400	1.824444	-1.485768	687.380547	2.619428	24.815718	-0.141223	-3.610186	0.381074
1.410	1.917547	-1.486632	687.893694	2.619076	24.742792	-0.145720	-3.596892	0.380739
1.420	2.002185	-1.486424	688.471664	2.621697	24.689183	-0.149369	-3.586086	0.380799
1.430	2.071629	-1.488521	689.020856	2.625159	24.651428	-0.151012	-3.577748	0.380998
1.440	2.120375	-1.497619	689.461430	2.626971	24.623953	-0.149863	-3.571476	0.381018
1.450	2.145859	-1.517587	689.740487	2.624725	24.600735	-0.145960	-3.566665	0.380538
1.460	2.150540	-1.549942	689.837840	2.616622	24.576191	-0.140255	-3.562604	0.379310
1.470	2.142972	-1.593257	689.764697	2.602028	24.545290	-0.134316	-3.558502	0.377234
1.480	2.136719	-1.643253	689.557588	2.581833	24.503312	-0.129784	-3.553483	0.374419
1.490	2.147058	-1.693453	689.270444	2.558361	24.445836	-0.127822	-3.546625	0.371169
1.500	2.186614	-1.736568	688.966361	2.534788	24.369254	-0.128756	-3.537075	0.367912
1.510	2.261655	-1.766637	688.708678	2.514279	24.271740	-0.132038	-3.524239	0.365071
1.520	2.370376	-1.781242	688.550496	2.499240	24.154295	-0.136525	-3.507992	0.362971
1.530	2.503558	-1.782662	688.523326	2.490963	24.021294	-0.140960	-3.488813	0.361783
1.540	2.647139	-1.777171	688.628060	2.489639	23.880067	-0.144427	-3.467774	0.361536
1.550	2.785858	-1.772619	688.832889	2.494512	23.739351	-0.146555	-3.446315	0.362136
1.560	2.906986	-1.775116	689.081105	2.503948	23.607062	-0.147398	-3.425876	0.363375
1.570	3.003082	-1.786133	689.307102	2.515485	23.488291	-0.147091	-3.407522	0.364930
1.580	3.072879	-1.801355	689.454440	2.526046	23.384384	-0.145499	-3.391723	0.366383
1.590	3.120116	-1.812269	689.488934	2.532460	23.293416	-0.142144	-3.378360	0.367295
1.600	3.150982	-1.810119	689.403019	2.532249	23.211721	-0.136504	-3.366931	0.367310
1.610	3.171308	-1.790476	689.212328	2.524470	23.135764	-0.128558	-3.356841	0.366283
1.620	3.184574	-1.756046	688.948516	2.510333	23.063568	-0.119205	-3.347647	0.364372
1.630	3.191365	-1.716214	688.652416	2.493220	22.995192	-0.110169	-3.339158	0.362043
1.640	3.190412	-1.683446	688.369133	2.477895	22.932150	-0.103388	-3.331374	0.359966
1.650	3.180728	-1.668204	688.143502	2.469051	22.876109	-0.100194	-3.324322	0.358799
1.660	3.163900	-1.674650	688.013059	2.469700	22.827567	-0.100783	-3.317897	0.358961
1.670	3.145498	-1.699083	687.998097	2.480156	22.785164	-0.104190	-3.311806	0.360489
1.680	3.134743	-1.731667	688.092672	2.498098	22.745968	-0.108761	-3.305655	0.363047
1.690	3.142146	-1.760334	688.262595	2.519621	22.706544	-0.112857	-3.299111	0.366084
1.700	3.175723	-1.774764	688.454016	2.540698	22.664229	-0.115486	-3.292047	0.369044
1.710	3.237368	-1.768798	688.610490	2.558384	22.618037	-0.116589	-3.284591	0.371529
1.720	3.321140	-1.740939	688.691330	2.571468	22.568896	-0.116866	-3.277070	0.373385
1.730	3.414293	-1.693645	688.683213	2.580575	22.519318	-0.117233	-3.269910	0.374711
1.740	3.500594	-1.632293	688.601101	2.587937	22.472744	-0.118237	-3.263536	0.375825
1.750	3.564578	-1.564203	688.480158	2.596928	22.432803	-0.119719	-3.258308	0.377197
1.760	3.595433	-1.497609	688.363396	2.611336	22.402557	-0.120844	-3.254467	0.379354
1.770	3.589707	-1.440352	688.289000	2.634386	22.383714	-0.120412	-3.252081	0.382744
1.780	3.552360	-1.398169	688.279418	2.667765	22.375906	-0.117321	-3.250992	0.387599
1.790	3.495670	-1.372962	688.334297	2.711000	22.376365	-0.111031	-3.250799	0.393849
1.800	3.435777	-1.361934	688.430265	2.761461	22.380272	-0.101880	-3.250913	0.401124
1.810	3.387641	-1.358520	688.529239	2.814986	22.381785	-0.091124	-3.250666	0.408841
1.820	3.360335	-1.355115	688.592694	2.866984	22.375384	-0.080647	-3.249437	0.416354
1.830	3.354826	-1.346237	688.595989	2.913716	22.357117	-0.072414	-3.246768	0.423139
1.840	3.365262	-1.330202	688.537305	2.953340	22.325435	-0.067922	-3.242444	0.428930
1.850	3.382932	-1.308347	688.438610	2.986231	22.281422	-0.067923	-3.236515	0.433769
1.860	3.400750	-1.282667	688.338630	3.014358	22.228290	-0.072469	-3.229267	0.437918
1.870	3.416175	-1.253740	688.279681	3.040007	22.170193	-0.081156	-3.221102	0.441682
1.880	3.431515	-1.220327	688.292294	3.064555	22.110814	-0.093248	-3.212416	0.445240
1.890	3.451968	-1.180610	688.383019	3.088001	22.052417	-0.107612	-3.203510	0.448588
1.900	3.482692	-1.134046	688.529967	3.109499	21.995841	-0.122567	-3.194609	0.451614
1.910	3.526220	-1.082770	688.687781	3.128460	21.941403	-0.135914	-3.185972	0.454264
1.920	3.580939	-1.031901	688.800805	3.145441	21.890086	-0.145311	-3.178000	0.456655
1.930	3.640871	-0.988410	688.821385	3.162119	21.844243	-0.148912	-3.171249	0.459062
1.940	3.696729	-0.958763	688.728653	3.180308	21.807280	-0.145991	-3.166309	0.461765
1.950	3.737996	-0.946350	688.541190	3.200656	21.782465	-0.137253	-3.163567	0.464846
1.960	3.755502	-0.950133	688.316539	3.221919	21.771446	-0.124657	-3.162999	0.468087
1.970	3.743855	-0.965277	688.134432	3.241298	21.773188	-0.110851	-3.164089	0.471027
1.980	3.703134	-0.985220	688.068496	3.255640	21.783705	-0.098470	-3.165921	0.473156
1.990	3.639467	-1.003999	688.158466	3.262852	21.796628	-0.089541	-3.167385	0.474143
2.000	3.564437	-1.017808	688.395454	3.262838	21.804454	-0.085152	-3.167431	0.473977
2.010	3.493586	-1.025467	688.725848	3.257505	21.800168	-0.085403	-3.165290	0.472976
2.020	3.444157	-1.027922	689.070214	3.249843	21.778863	-0.089579	-3.160616	0.471627
2.030	3.431931	-1.027217	689.348660	3.242573	21.738952	-0.096394	-3.153550	0.470382
2.040	3.467194	-1.025492	689.504330	3.237063	21.682615	-0.104234	-3.144667	0.469477
2.050	3.550785	-1.024401	689.518833	3.233009	21.615362	-0.111374	-3.134847	0.468879
2.060	3.672008	-1.024942	689.415265	3.228866	21.544828	-0.116275	-3.125087	0.468348
2.070	3.810019	-1.027404	689.247436	3.222602	21.479192	-0.117986	-3.116325	0.467554
2.080	3.938876	-1.031143	689.078463	3.212334	21.425638	-0.116518	-3.109318	0.466178
2.090	4.034625	-1.034261	688.956389	3.196689	21.389155	-0.112993	-3.104573	0.463990
2.100	4.081687	-1.033698	688.896365	3.175064	21.371846	-0.109380	-3.102331	0.460891
2.110	4.076170	-1.026380	688.876967	3.147901	21.372849	-0.107839	-3.102564	0.456961
2.120	4.025111	-1.011378	688.852350	3.116734	21.388847	-0.109869	-3.104997	0.452453
2.130	3.942513	-0.992034	688.774755	3.083690	21.415072	-0.115642	-3.109155	0.447707
2.140	3.844173	-0.976399	688.617169	3.050520	21.446551	-0.123866	-3.114437	0.442992
2.150	3.743371	-0.974958	688.386243	3.017740	21.479305	-0.132259	-3.120240	0.438379
2.160	3.648676	-0.996275	688.120684	2.984518	21.511165	-0.138440	-3.126074	0.433720
2.170	3.563994	-1.042673	687.877263	2.949435	21.541959	-0.140768	-3.131657	0.428773
2.180	3.490089	-1.108408	687.711538	2.911621	21.572983	-0.138826	-3.136923	0.423378
2.190	3.426547	-1.181498	687.660928	2.871526	21.605993	-0.133409	-3.141954	0.417579
2.200	3.373263	-1.248319	687.735255	2.830873	21.642196	-0.126150	-3.146879	0.411623
2.210	3.331045	-1.298562	687.916602	2.791939	21.681688	-0.118954	-3.151790	0.405854
2.220	3.301236	-1.328206	688.167437	2.756680	21.723513	-0.113450	-3.156719	0.400583
2.230	3.284628	-1.339560	688.443173	2.726228	21.766125	-0.110646	-3.161644	0.395999
2.240	3.280426	-1.338985	688.703687	2.700883	21.807872	-0.110878	-3.166510	0.392169
2.250	3.286083	-1.333705	688.919514	2.680407	21.847209	-0.113995	-3.171228	0.389074
2.260	3.298223	-1.329129	689.072388	2.664309	21.882624	-0.119593	-3.175664	0.386651
2.270	3.313806	-1.327608	689.153177	2.652036	21.912511	-0.127112	-3.179629	0.384825
2.280	3.330595	-1.328873	689.160524	2.643107	21.935292	-0.135790	-3.182900	0.383526
2.290	3.346873	-1.331473	689.101440	2.637146	21.949880	-0.144584	-3.185290	0.382693
2.300	3.361200	-1.334102	688.993093	2.633712	21.956325	-0.152241	-3.186726	0.382255
2.310	3.372827	-1.336098	688.863877	2.631948	21.956200	-0.157546	-3.187306	0.382071
2.320	3.382549	-1.337408	688.751205	2.630334	21.952415	-0.159636	-3.187278	0.381899
2.330	3.393212	-1.338702	688.694073	2.626871	21.948514	-0.158238	-3.186976	0.381428
2.340	3.409195	-1.341695	688.720865	2.619702	21.947815	-0.153716	-3.186750	0.380372
2.350	3.434778	-1.349091	688.836441	2.607825	21.952710	-0.146908	-3.186926	0.378584
2.360	3.471905	-1.363751	689.014830	2.591495	21.964256	-0.138813	-3.187777	0.376116
2.370	3.518191	-1.387445	689.202856	2.572079	21.982087	-0.130273	-3.189495	0.373196
