Time[s]	Fx[N]	Fy[N]	Fz[N]	Mx[Nm]	My[Nm]	Mz[Nm]	COPx[cm]	COPy[cm]
0.010	11.614199	0.467479	711.186308	-3.323905	5.322634	-0.081772	-0.748416	-0.467375
0.020	11.736800	0.386233	710.880337	-3.398487	5.282557	-0.089318	-0.743101	-0.478067
0.030	11.838063	0.311119	710.628459	-3.463768	5.241660	-0.096589	-0.737609	-0.487423
0.040	11.905455	0.245890	710.470942	-3.513638	5.200074	-0.102959	-0.731919	-0.494551
0.050	11.938619	0.190133	710.427314	-3.546621	5.159181	-0.107447	-0.726208	-0.499224
0.060	11.947803	0.140582	710.492169	-3.565428	5.121425	-0.109117	-0.720828	-0.501825
0.070	11.947950	0.094281	710.636452	-3.575082	5.089688	-0.107525	-0.716215	-0.503082
0.080	11.951786	0.051671	710.814664	-3.580729	5.066509	-0.102870	-0.712775	-0.503750
0.090	11.965157	0.017569	710.977515	-3.586046	5.053353	-0.095826	-0.710761	-0.504382
0.100	11.986009	-0.000809	711.087504	-3.592594	5.050009	-0.087262	-0.710181	-0.505225
0.110	12.006683	0.002291	711.131748	-3.599996	5.054270	-0.078052	-0.710736	-0.506235
0.120	12.018233	0.027723	711.125092	-3.606562	5.062173	-0.069010	-0.711854	-0.507163
0.130	12.015146	0.070383	711.100100	-3.610052	5.068986	-0.060808	-0.712837	-0.507671
0.140	11.998648	0.121062	711.088129	-3.608347	5.070685	-0.053816	-0.713088	-0.507440
0.150	11.977092	0.170237	711.101852	-3.599979	5.065294	-0.047959	-0.712316	-0.506254
0.160	11.962952	0.211929	711.129110	-3.584485	5.053394	-0.042765	-0.710616	-0.504056
0.170	11.967495	0.245804	711.140880	-3.562521	5.037553	-0.037678	-0.708376	-0.500959
0.180	11.995532	0.276496	711.107601	-3.535626	5.020985	-0.032531	-0.706079	-0.497200
0.190	12.042970	0.310516	711.014052	-3.505709	5.006132	-0.027866	-0.704083	-0.493058
0.200	12.098584	0.352404	710.865546	-3.474426	4.993863	-0.024843	-0.702505	-0.488760
0.210	12.149026	0.402202	710.684440	-3.442741	4.983617	-0.024706	-0.701242	-0.484426
0.220	12.184082	0.455510	710.500814	-3.410784	4.974364	-0.028096	-0.700121	-0.480053
0.230	12.199229	0.505827	710.342566	-3.378010	4.965802	-0.034642	-0.699071	-0.475547
0.240	12.194552	0.547671	710.228917	-3.343587	4.959139	-0.043095	-0.698245	-0.470776
0.250	12.171647	0.578868	710.168660	-3.306863	4.957011	-0.051929	-0.698005	-0.465645
0.260	12.131301	0.601178	710.161927	-3.267766	4.962552	-0.060032	-0.698792	-0.460144
0.270	12.073691	0.619445	710.203324	-3.226867	4.978024	-0.067050	-0.700929	-0.454358
0.280	12.000558	0.639958	710.285106	-3.185042	5.003555	-0.073180	-0.704443	-0.448417
0.290	11.917257	0.668622	710.399950	-3.142987	5.036531	-0.078601	-0.708971	-0.442425
0.300	11.832996	0.709225	710.542766	-3.101054	5.071983	-0.082962	-0.713818	-0.436435
0.310	11.759158	0.762086	710.710577	-3.059695	5.103911	-0.085338	-0.718142	-0.430512
0.320	11.706818	0.823638	710.899956	-3.020114	5.126995	-0.084752	-0.721198	-0.424830
0.330	11.684492	0.887395	711.102952	-2.984441	5.137949	-0.081020	-0.722532	-0.419692
0.340	11.696565	0.946101	711.303805	-2.955119	5.135977	-0.075424	-0.722051	-0.415451
0.350	11.742462	0.994092	711.478886	-2.933870	5.122390	-0.070743	-0.719964	-0.412362
0.360	11.816719	1.028874	711.600793	-2.920970	5.099795	-0.070452	-0.716665	-0.410479
0.370	11.910049	1.051488	711.645189	-2.915239	5.071322	-0.077335	-0.712619	-0.409648
0.380	12.011179	1.065790	711.597187	-2.914688	5.040092	-0.092103	-0.708279	-0.409598
0.390	12.108841	1.077038	711.454275	-2.917449	5.008921	-0.112681	-0.704040	-0.410068
0.400	12.193063	1.090125	711.224962	-2.922509	4.980178	-0.134593	-0.700225	-0.410912
0.410	12.255302	1.107938	710.925182	-2.929959	4.955723	-0.152416	-0.697081	-0.412133
0.420	12.287936	1.130431	710.575857	-2.940692	4.936863	-0.161788	-0.694769	-0.413846
0.430	12.284514	1.154857	710.203012	-2.955746	4.924234	-0.161108	-0.693356	-0.416183
0.440	12.241699	1.177036	709.838144	-2.975574	4.917609	-0.152148	-0.692779	-0.419190
0.450	12.162171	1.192878	709.515449	-2.999546	4.915777	-0.139229	-0.692836	-0.422760
0.460	12.056373	1.199277	709.265581	-3.025992	4.916715	-0.127360	-0.693212	-0.426637
0.470	11.941309	1.194120	709.109279	-3.052825	4.918140	-0.120209	-0.693566	-0.430515
0.480	11.836322	1.176004	709.054348	-3.078427	4.918266	-0.118870	-0.693637	-0.434159
0.490	11.757584	1.144505	709.096751	-3.102322	4.916389	-0.121861	-0.693331	-0.437503
0.500	11.713688	1.101117	709.223928	-3.125397	4.912989	-0.126183	-0.692727	-0.440678
0.510	11.704232	1.050037	709.418106	-3.149659	4.909262	-0.128790	-0.692013	-0.443978
0.520	11.722069	0.997720	709.658567	-3.177657	4.906329	-0.127814	-0.691365	-0.447773
0.530	11.758260	0.951012	709.923286	-3.211716	4.904455	-0.123127	-0.690843	-0.452403
0.540	11.807362	0.914713	710.190701	-3.253169	4.902638	-0.116106	-0.690327	-0.458070
0.550	11.870324	0.889822	710.441760	-3.301802	4.898810	-0.108807	-0.689544	-0.464753
0.560	11.953322	0.873224	710.661690	-3.355720	4.890796	-0.102999	-0.688203	-0.472197
0.570	12.062810	0.859003	710.840932	-3.411705	4.877784	-0.099526	-0.686199	-0.479953
0.580	12.198937	0.840980	710.974962	-3.465890	4.861630	-0.098239	-0.683798	-0.487484
0.590	12.350647	0.815426	711.063080	-3.514555	4.847180	-0.098381	-0.681681	-0.494268
0.600	12.495296	0.782660	711.106849	-3.554920	4.841210	-0.099129	-0.680799	-0.499914
0.610	12.603783	0.746600	711.109486	-3.585882	4.850339	-0.099990	-0.682080	-0.504266
0.620	12.649829	0.712445	711.076900	-3.608460	4.878775	-0.100922	-0.686111	-0.507464
0.630	12.620134	0.683794	711.019204	-3.625586	4.926842	-0.102213	-0.692927	-0.509914
0.640	12.521268	0.660932	710.950292	-3.641084	4.990821	-0.104269	-0.701993	-0.512143
0.650	12.379751	0.641203	710.883898	-3.658253	5.064180	-0.107406	-0.712378	-0.514606
0.660	12.234242	0.621078	710.827132	-3.678777	5.139761	-0.111691	-0.723068	-0.517535
0.670	12.122231	0.598561	710.775128	-3.702495	5.212100	-0.116797	-0.733298	-0.520910
0.680	12.066518	0.574584	710.711208	-3.727966	5.278990	-0.121892	-0.742776	-0.524540
0.690	12.067524	0.552638	710.614365	-3.753311	5.341655	-0.125625	-0.751695	-0.528178
0.700	12.105116	0.536905	710.471038	-3.776864	5.403548	-0.126380	-0.760559	-0.531600
0.710	12.148904	0.530000	710.284874	-3.797465	5.468395	-0.122802	-0.769888	-0.534640
0.720	12.171677	0.531637	710.079060	-3.814549	5.538419	-0.114444	-0.779972	-0.537201
0.730	12.159391	0.538928	709.890104	-3.828129	5.613541	-0.102185	-0.790762	-0.539257
0.740	12.113690	0.547978	709.756133	-3.838744	5.691813	-0.088124	-0.801939	-0.540854
0.750	12.047220	0.555877	709.704611	-3.847422	5.770734	-0.074915	-0.813118	-0.542116
0.760	11.975391	0.562263	709.743921	-3.855641	5.848662	-0.064839	-0.824052	-0.543244
0.770	11.909261	0.569863	709.861445	-3.865081	5.925511	-0.059068	-0.834742	-0.544484
0.780	11.852721	0.583587	710.028229	-3.877031	6.002377	-0.057423	-0.845372	-0.546039
0.790	11.804313	0.608261	710.207909	-3.891701	6.080407	-0.058645	-0.856145	-0.547966
0.800	11.761455	0.645910	710.366924	-3.907944	6.159656	-0.061033	-0.867109	-0.550130
0.810	11.723845	0.694027	710.483637	-3.923624	6.238599	-0.063196	-0.878078	-0.552247
0.820	11.693947	0.745756	710.554255	-3.936380	6.314569	-0.064633	-0.888682	-0.553987
0.830	11.674695	0.792049	710.592947	-3.944310	6.384840	-0.065909	-0.898523	-0.555073
0.840	11.666512	0.825036	710.624539	-3.946363	6.447812	-0.068356	-0.907344	-0.555337
0.850	11.666050	0.841293	710.672026	-3.942563	6.503656	-0.073459	-0.915142	-0.554765
0.860	11.667646	0.843561	710.745212	-3.934222	6.554124	-0.082187	-0.922148	-0.553535
0.870	11.666363	0.840001	710.836877	-3.924024	6.601648	-0.094529	-0.928715	-0.552029
0.880	11.660260	0.841106	710.928029	-3.915603	6.648208	-0.109371	-0.935145	-0.550773
0.890	11.650185	0.855413	710.997893	-3.912416	6.694548	-0.124744	-0.941571	-0.550271
0.900	11.637520	0.885783	711.031884	-3.916308	6.740042	-0.138375	-0.947924	-0.550792
0.910	11.622114	0.927928	711.023348	-3.926570	6.783040	-0.148373	-0.953983	-0.552242
0.920	11.602528	0.972008	710.969845	-3.940098	6.821308	-0.153793	-0.959437	-0.554186
0.930	11.578721	1.006740	710.868652	-3.952625	6.852305	-0.154835	-0.963934	-0.556028
0.940	11.555174	1.024161	710.716713	-3.960510	6.873452	-0.152601	-0.967116	-0.557256
0.950	11.541971	1.022722	710.516767	-3.962351	6.882629	-0.148572	-0.968679	-0.557672
0.960	11.552625	1.007257	710.285781	-3.959762	6.878911	-0.144076	-0.968471	-0.557489
0.970	11.599245	0.986065	710.058335	-3.956923	6.863291	-0.140011	-0.966581	-0.557267
0.980	11.687027	0.966940	709.879798	-3.959067	6.839014	-0.136833	-0.963404	-0.557709
0.990	11.810605	0.954275	709.791379	-3.970553	6.811265	-0.134663	-0.959615	-0.559397
1.000	11.954148	0.948382	709.815266	-3.993357	6.786206	-0.133309	-0.956052	-0.562591
1.010	12.095425	0.946783	709.947798	-4.026518	6.769646	-0.132195	-0.953541	-0.567157
1.020	12.212066	0.946238	710.162787	-4.066601	6.765834	-0.130337	-0.952716	-0.572629
1.030	12.287404	0.944209	710.421329	-4.108853	6.776712	-0.126554	-0.953900	-0.578368
1.040	12.313909	0.939155	710.682805	-4.148548	6.801732	-0.119905	-0.957070	-0.583741
1.050	12.293913	0.930001	710.913498	-4.182118	6.838169	-0.110137	-0.961885	-0.588274
1.060	12.238436	0.915642	711.091370	-4.207954	6.881875	-0.097865	-0.967791	-0.591760
1.070	12.164883	0.895000	711.206555	-4.226883	6.928371	-0.084374	-0.974171	-0.594326
1.080	12.093633	0.867681	711.258189	-4.242179	6.974022	-0.071154	-0.980519	-0.596433
1.090	12.043283	0.834774	711.249712	-4.258810	7.016962	-0.059491	-0.986568	-0.598778
1.100	12.025192	0.799277	711.185269	-4.281858	7.057424	-0.050297	-0.992347	-0.602074
1.110	12.039406	0.765798	711.068876	-4.314565	7.097313	-0.044185	-0.998119	-0.606772
1.120	12.074506	0.739530	710.906479	-4.356894	7.139157	-0.041566	-1.004233	-0.612865
1.130	12.112280	0.724789	710.709564	-4.405367	7.184923	-0.042599	-1.010951	-0.619855
1.140	12.135329	0.723502	710.497765	-4.454376	7.235260	-0.046960	-1.018337	-0.626937
1.150	12.133859	0.734145	710.297979	-4.498449	7.289515	-0.053624	-1.026261	-0.633319
1.160	12.108421	0.751566	710.139399	-4.534433	7.346430	-0.060911	-1.034505	-0.638527
1.170	12.067801	0.767954	710.046293	-4.562627	7.405099	-0.066886	-1.042904	-0.642582
1.180	12.023816	0.774685	710.031307	-4.586494	7.465645	-0.069956	-1.051453	-0.645957
1.190	11.985933	0.764393	710.091503	-4.611233	7.529359	-0.069382	-1.060336	-0.649386
1.200	11.958056	0.732770	710.208599	-4.641971	7.598331	-0.065435	-1.069873	-0.653607
1.210	11.938246	0.679735	710.354059	-4.682252	7.674797	-0.059161	-1.080419	-0.659143
1.220	11.920785	0.609685	710.497749	-4.733248	7.760464	-0.051894	-1.092257	-0.666188
1.230	11.899336	0.530443	710.616483	-4.793698	7.856015	-0.044780	-1.105521	-0.674583
1.240	11.869733	0.450921	710.698310	-4.860374	7.960909	-0.038580	-1.120153	-0.683887
1.250	11.831151	0.378259	710.740942	-4.928802	8.073396	-0.033758	-1.135913	-0.693474
1.260	11.785344	0.315744	710.746572	-4.994125	8.190638	-0.030720	-1.152399	-0.702659
1.270	11.734964	0.262619	710.717358	-5.052069	8.308891	-0.029952	-1.169085	-0.710841
1.280	11.682399	0.215860	710.654845	-5.099944	8.423837	-0.031924	-1.185363	-0.717640
1.290	11.629692	0.172787	710.563339	-5.137399	8.531117	-0.036855	-1.200613	-0.723004
1.300	11.579025	0.132906	710.453857	-5.166515	8.626952	-0.044487	-1.214287	-0.727213
1.310	11.532994	0.097954	710.344634	-5.191014	8.708672	-0.053999	-1.225978	-0.730774
1.320	11.494610	0.070376	710.256906	-5.214757	8.775000	-0.064098	-1.235469	-0.734207
1.330	11.467257	0.051418	710.208440	-5.240182	8.826045	-0.073279	-1.242740	-0.737837
1.340	11.454601	0.040114	710.208695	-5.267418	8.863057	-0.080253	-1.247951	-0.741672
1.350	11.460084	0.033668	710.257700	-5.294506	8.888061	-0.084442	-1.251385	-0.745435
1.360	11.485787	0.028656	710.347498	-5.318561	8.903484	-0.086253	-1.253398	-0.748727
1.370	11.530882	0.021999	710.463864	-5.337237	8.911901	-0.086905	-1.254378	-0.751233
1.380	11.590325	0.011179	710.587846	-5.349817	8.915867	-0.087774	-1.254717	-0.752872
1.390	11.654740	-0.005793	710.698626	-5.357498	8.917694	-0.089613	-1.254779	-0.753835
1.400	11.712198	-0.029838	710.778494	-5.362951	8.919046	-0.092100	-1.254828	-0.754518
1.410	11.751760	-0.059649	710.818872	-5.369447	8.920486	-0.094054	-1.254959	-0.755389
1.420	11.767308	-0.090868	710.825066	-5.379889	8.921296	-0.094213	-1.255062	-0.756851
1.430	11.759541	-0.116696	710.816935	-5.395948	8.919818	-0.092147	-1.254869	-0.759119
1.440	11.734928	-0.130188	710.823073	-5.417495	8.914255	-0.088681	-1.254075	-0.762144
1.450	11.702432	-0.127420	710.868941	-5.442472	8.903491	-0.085521	-1.252480	-0.765608
1.460	11.670265	-0.109929	710.963828	-5.467278	8.887454	-0.084265	-1.250057	-0.768995
1.470	11.644420	-0.084940	711.093807	-5.487701	8.866835	-0.085416	-1.246929	-0.771727
1.480	11.628950	-0.062904	711.224731	-5.500210	8.842406	-0.087991	-1.243265	-0.773344
1.490	11.626671	-0.053374	711.313279	-5.503136	8.814453	-0.089969	-1.239180	-0.773659
1.500	11.639224	-0.061175	711.320353	-5.497187	8.782769	-0.089328	-1.234714	-0.772815
1.510	11.666520	-0.084478	711.221887	-5.485071	8.747211	-0.085147	-1.229885	-0.771218
1.520	11.706281	-0.115341	711.014613	-5.470432	8.708470	-0.078200	-1.224795	-0.769384
1.530	11.754256	-0.142442	710.715811	-5.456574	8.668507	-0.070755	-1.219687	-0.767758
1.540	11.805001	-0.155259	710.357283	-5.445394	8.630393	-0.065631	-1.214937	-0.766571
1.550	11.852660	-0.148353	709.976247	-5.436734	8.597657	-0.064909	-1.210978	-0.765763
1.560	11.891312	-0.123724	709.607893	-5.428255	8.573507	-0.068864	-1.208203	-0.764965
1.570	11.915115	-0.089609	709.283226	-5.415905	8.560225	-0.075619	-1.206884	-0.763574
1.580	11.918868	-0.055887	709.031326	-5.394928	8.558895	-0.081784	-1.207125	-0.760887
1.590	11.899250	-0.028504	708.881171	-5.361183	8.569389	-0.083869	-1.208861	-0.756288
1.600	11.856264	-0.006222	708.858530	-5.312365	8.590492	-0.079800	-1.211877	-0.749425
1.610	11.793964	0.018312	708.977961	-5.248718	8.620103	-0.069806	-1.215849	-0.740322
1.620	11.720084	0.053973	709.234494	-5.172928	8.655532	-0.056270	-1.220405	-0.729368
1.630	11.645017	0.106073	709.600345	-5.089209	8.693846	-0.042679	-1.225175	-0.717194
1.640	11.580765	0.173820	710.028659	-5.001979	8.732161	-0.032217	-1.229832	-0.704476
1.650	11.539913	0.251366	710.462085	-4.914745	8.767831	-0.026622	-1.234103	-0.691767
1.660	11.533914	0.331105	710.842635	-4.829592	8.798689	-0.025748	-1.237783	-0.679418
1.670	11.570188	0.406858	711.120909	-4.747177	8.823467	-0.027902	-1.240783	-0.667563
1.680	11.648696	0.475414	711.264419	-4.666876	8.842299	-0.030702	-1.243180	-0.656138
1.690	11.759811	0.536478	711.264452	-4.586919	8.857034	-0.032029	-1.245252	-0.644896
1.700	11.885202	0.591948	711.139306	-4.504732	8.871114	-0.030678	-1.247451	-0.633453
1.710	12.001905	0.645138	710.931349	-4.417772	8.888980	-0.026545	-1.250329	-0.621406
1.720	12.087997	0.699882	710.696962	-4.324768	8.915173	-0.020390	-1.254427	-0.608525
1.730	12.127595	0.759258	710.491391	-4.226758	8.953405	-0.013340	-1.260171	-0.594906
1.740	12.113634	0.824110	710.353323	-4.127208	9.005872	-0.006412	-1.267802	-0.581008
1.750	12.048176	0.892079	710.294874	-4.030952	9.072994	-0.000246	-1.277356	-0.567504
1.760	11.941137	0.957889	710.300803	-3.942430	9.153517	0.004827	-1.288682	-0.555037
1.770	11.808426	1.015095	710.336689	-3.864205	9.244824	0.008526	-1.301471	-0.543996
1.780	11.669836	1.058569	710.361898	-3.796405	9.343417	0.010325	-1.315304	-0.534433
1.790	11.546176	1.086391	710.341932	-3.737206	9.445618	0.009317	-1.329728	-0.526114
1.800	11.455063	1.100037	710.256610	-3.684014	9.548510	0.004322	-1.344375	-0.518688
1.810	11.405602	1.102903	710.103427	-3.634851	9.650865	-0.005656	-1.359079	-0.511876
1.820	11.393620	1.098251	709.896897	-3.589444	9.753610	-0.020749	-1.373947	-0.505629
1.830	11.400191	1.087827	709.664276	-3.549589	9.859428	-0.039654	-1.389309	-0.500179
1.840	11.395710	1.071617	709.437755	-3.518701	9.971406	-0.059604	-1.405536	-0.495984
1.850	11.349521	1.048416	709.244863	-3.500783	10.091128	-0.077040	-1.422799	-0.493593
1.860	11.242103	1.016619	709.101378	-3.499300	10.216928	-0.088681	-1.440827	-0.493484
1.870	11.074990	0.974882	709.010785	-3.516318	10.343153	-0.092445	-1.458815	-0.495947
1.880	10.873886	0.922568	708.970294	-3.552102	10.460999	-0.087836	-1.475520	-0.501023
1.890	10.682881	0.860031	708.978958	-3.605091	10.560761	-0.075750	-1.489573	-0.508491
1.900	10.551390	0.788812	709.042508	-3.672141	10.634653	-0.057978	-1.499861	-0.517901
1.910	10.518656	0.711875	709.172390	-3.748879	10.679032	-0.036753	-1.505844	-0.528627
1.920	10.601604	0.633947	709.380011	-3.830103	10.695145	-0.014532	-1.507675	-0.539923
1.930	10.790167	0.561765	709.669063	-3.910252	10.688210	0.006082	-1.506084	-0.550997
1.940	11.050937	0.503804	710.028950	-3.984021	10.665307	0.022466	-1.502095	-0.561107
1.950	11.337001	0.468881	710.431866	-4.047064	10.633072	0.032311	-1.496705	-0.569662
1.960	11.600107	0.463448	710.835051	-4.096531	10.596129	0.034065	-1.490659	-0.576298
1.970	11.801278	0.488399	711.187857	-4.131190	10.556708	0.027314	-1.484377	-0.580886
1.980	11.917168	0.537085	711.441372	-4.151070	10.515226	0.012960	-1.478017	-0.583473
1.990	11.941464	0.596145	711.557932	-4.156859	10.471259	-0.006857	-1.471596	-0.584191
2.000	11.882695	0.649377	711.518530	-4.149333	10.424364	-0.029143	-1.465087	-0.583166
2.010	11.760654	0.683185	711.326375	-4.129001	10.374477	-0.050703	-1.458469	-0.580465
2.020	11.602609	0.691134	711.005408	-4.096044	10.321979	-0.068906	-1.451744	-0.576092
2.030	11.438831	0.675665	710.594576	-4.050592	10.267659	-0.082286	-1.444939	-0.570029
2.040	11.296684	0.646522	710.140986	-3.993273	10.212772	-0.090714	-1.438133	-0.562321
2.050	11.194047	0.616844	709.694671	-3.925749	10.159130	-0.095089	-1.431479	-0.553160
2.060	11.134712	0.598721	709.304847	-3.850862	10.109004	-0.096750	-1.425199	-0.542907
2.070	11.108669	0.600076	709.015462	-3.772173	10.064666	-0.096943	-1.419527	-0.532030
2.080	11.098364	0.623970	708.858684	-3.693026	10.027620	-0.096545	-1.414615	-0.520982
2.090	11.088724	0.669883	708.847681	-3.615588	9.997760	-0.095993	-1.410424	-0.510066
2.100	11.076390	0.735461	708.972195	-3.540363	9.972806	-0.095305	-1.406657	-0.499366
2.110	11.073427	0.817363	709.200168	-3.466455	9.948331	-0.094115	-1.402754	-0.488784
2.120	11.103267	0.911033	709.485970	-3.392430	9.918610	-0.091752	-1.398000	-0.478153
2.130	11.190215	1.010154	709.782688	-3.317243	9.878276	-0.087392	-1.391732	-0.467360
2.140	11.346747	1.106774	710.054215	-3.240703	9.824448	-0.080306	-1.383619	-0.456402
2.150	11.563821	1.192542	710.282429	-3.163276	9.758536	-0.070188	-1.373895	-0.445355
2.160	11.808504	1.260810	710.466215	-3.085448	9.686724	-0.057480	-1.363432	-0.434285
2.170	12.030809	1.308858	710.613054	-3.007155	9.618576	-0.043520	-1.353560	-0.423178
2.180	12.178252	1.339171	710.728135	-2.927724	9.564088	-0.030366	-1.345675	-0.411933
2.190	12.213363	1.358798	710.806944	-2.846466	9.530286	-0.020269	-1.340770	-0.400456
2.200	12.127784	1.376651	710.834983	-2.763603	9.518731	-0.014933	-1.339092	-0.388783
2.210	11.947316	1.399910	710.794553	-2.680926	9.525001	-0.014844	-1.340050	-0.377173
2.220	11.725354	1.431380	710.675247	-2.601655	9.540364	-0.018984	-1.342437	-0.366082
2.230	11.526247	1.468953	710.483014	-2.529445	9.554953	-0.025090	-1.344853	-0.356018
2.240	11.404107	1.506908	710.243037	-2.467084	9.561120	-0.030423	-1.346176	-0.347358
2.250	11.384828	1.538027	709.994480	-2.415645	9.555706	-0.032681	-1.345885	-0.340234
2.260	11.458404	1.555705	709.779462	-2.374615	9.540435	-0.030715	-1.344141	-0.334557
2.270	11.584883	1.555671	709.631791	-2.342829	9.520522	-0.024800	-1.341614	-0.330147
2.280	11.711534	1.537190	709.569912	-2.319555	9.502246	-0.016507	-1.339156	-0.326896
2.290	11.793964	1.503428	709.594906	-2.305069	9.490590	-0.008242	-1.337466	-0.324843
2.300	11.812273	1.460639	709.692533	-2.300489	9.487839	-0.002556	-1.336894	-0.324153
2.310	11.775840	1.416102	709.838807	-2.307068	9.493476	-0.001343	-1.337413	-0.325013
2.320	11.715539	1.375423	710.008134	-2.325372	9.505135	-0.005185	-1.338736	-0.327513
2.330	11.667678	1.340321	710.181126	-2.354807	9.519947	-0.013151	-1.340496	-0.331578
2.340	11.657212	1.307867	710.348177	-2.393696	9.535650	-0.023181	-1.342391	-0.336975
