Time[s]	Fx[N]	Fy[N]	Fz[N]	Mx[Nm]	My[Nm]	Mz[Nm]	COPx[cm]	COPy[cm]
0.010	1.569284	-0.247081	535.531929	-0.772221	31.584524	-0.601417	-5.897785	-0.144197
0.020	1.722359	-0.275628	535.123124	-0.832414	31.533967	-0.597894	-5.892843	-0.155556
0.030	1.858813	-0.298886	534.723966	-0.888405	31.483163	-0.594338	-5.887741	-0.166143
0.040	1.966979	-0.314101	534.350118	-0.937166	31.432513	-0.590610	-5.882382	-0.175384
0.050	2.044003	-0.322073	534.025880	-0.977487	31.383267	-0.586488	-5.876731	-0.183041
0.060	2.095245	-0.326967	533.782292	-1.009841	31.336843	-0.581744	-5.870716	-0.189186
0.070	2.130860	-0.334819	533.649913	-1.035687	31.293738	-0.576269	-5.864095	-0.194076
0.080	2.161515	-0.351500	533.648352	-1.056705	31.252672	-0.570212	-5.856417	-0.198015
0.090	2.195186	-0.380962	533.776946	-1.074361	31.210401	-0.564005	-5.847087	-0.201275
0.100	2.236113	-0.424135	534.010995	-1.089868	31.162219	-0.558209	-5.835501	-0.204091
0.110	2.285846	-0.478487	534.305497	-1.104318	31.102968	-0.553211	-5.821196	-0.206683
0.120	2.345308	-0.538190	534.605172	-1.118730	31.028321	-0.548961	-5.803970	-0.209263
0.130	2.416481	-0.595060	534.857694	-1.133918	30.935961	-0.544921	-5.783961	-0.212004
0.140	2.502667	-0.640470	535.026129	-1.150323	30.826143	-0.540242	-5.761614	-0.215003
0.150	2.607199	-0.668096	535.096347	-1.167972	30.701348	-0.534091	-5.737537	-0.218273
0.160	2.731403	-0.676545	535.076517	-1.186660	30.565167	-0.525957	-5.712298	-0.221774
0.170	2.873085	-0.670487	534.989355	-1.206252	30.421030	-0.515803	-5.686287	-0.225472
0.180	3.026529	-0.659305	534.861463	-1.226903	30.271506	-0.504031	-5.659691	-0.229387
0.190	3.184076	-0.653644	534.715091	-1.249008	30.118504	-0.491329	-5.632626	-0.233584
0.200	3.338434	-0.661421	534.564924	-1.272872	29.964133	-0.478478	-5.605331	-0.238114
0.210	3.484546	-0.685097	534.418889	-1.298360	29.811506	-0.466232	-5.578303	-0.242948
0.220	3.620121	-0.721276	534.280562	-1.324812	29.664883	-0.455279	-5.552304	-0.247962
0.230	3.744663	-0.762533	534.151886	-1.351252	29.529061	-0.446253	-5.528214	-0.252971
0.240	3.857613	-0.800392	534.035917	-1.376642	29.408404	-0.439681	-5.506821	-0.257781
0.250	3.956672	-0.828147	533.938707	-1.399915	29.305961	-0.435822	-5.488638	-0.262186
0.260	4.037355	-0.842597	533.868787	-1.419800	29.222995	-0.434480	-5.473816	-0.265945
0.270	4.094192	-0.844382	533.833726	-1.434755	29.159016	-0.434953	-5.462191	-0.268764
0.280	4.123179	-0.837118	533.835581	-1.443259	29.112221	-0.436212	-5.453406	-0.270357
0.290	4.124195	-0.825868	533.868519	-1.444457	29.080077	-0.437297	-5.447048	-0.270564
0.300	4.101971	-0.815713	533.921000	-1.438713	29.059823	-0.437681	-5.442720	-0.269462
0.310	4.065006	-0.810903	533.981936	-1.427641	29.048761	-0.437397	-5.440027	-0.267358
0.320	4.023078	-0.814445	534.047234	-1.413526	29.044362	-0.436862	-5.438538	-0.264682
0.330	3.984573	-0.827731	534.122444	-1.398456	29.044341	-0.436575	-5.437768	-0.261823
0.340	3.954573	-0.850070	534.219372	-1.383607	29.046796	-0.436924	-5.437241	-0.258996
0.350	3.934108	-0.878570	534.348122	-1.368918	29.050388	-0.438179	-5.436603	-0.256185
0.360	3.920780	-0.908810	534.509084	-1.353279	29.054476	-0.440611	-5.435731	-0.253182
0.370	3.910623	-0.936211	534.689732	-1.335166	29.059112	-0.444615	-5.434762	-0.249709
0.380	3.900527	-0.957334	534.867883	-1.313386	29.064914	-0.450747	-5.434036	-0.245553
0.390	3.890153	-0.970349	535.018734	-1.287499	29.072887	-0.459615	-5.433994	-0.240646
0.400	3.882392	-0.974473	535.121346	-1.257725	29.084214	-0.471653	-5.435069	-0.235036
0.410	3.881978	-0.968842	535.162240	-1.224513	29.100013	-0.486845	-5.437606	-0.228811
0.420	3.892667	-0.951591	535.136615	-1.188112	29.121159	-0.504498	-5.441818	-0.222020
0.430	3.914226	-0.919868	535.048742	-1.148374	29.148315	-0.523182	-5.447787	-0.214630
0.440	3.940812	-0.871055	534.912106	-1.104829	29.182174	-0.540937	-5.455508	-0.206544
0.450	3.961818	-0.804766	534.748772	-1.057015	29.223623	-0.555723	-5.464926	-0.197666
0.460	3.965142	-0.724578	534.587155	-1.004920	29.273546	-0.565949	-5.475917	-0.187981
0.470	3.941524	-0.638353	534.457143	-0.949365	29.332226	-0.570843	-5.488228	-0.177632
0.480	3.888023	-0.556603	534.381769	-0.892166	29.398668	-0.570592	-5.501435	-0.166953
0.490	3.809147	-0.489298	534.367168	-0.835990	29.470311	-0.566282	-5.514993	-0.156445
0.500	3.715334	-0.442397	534.396222	-0.783787	29.543410	-0.559718	-5.528372	-0.146668
0.510	3.619561	-0.415617	534.431589	-0.737829	29.613972	-0.553079	-5.541209	-0.138059
0.520	3.533473	-0.402447	534.429063	-0.698598	29.678862	-0.548401	-5.553377	-0.130718
0.530	3.464383	-0.392382	534.355802	-0.664141	29.736700	-0.546990	-5.564963	-0.124288
0.540	3.413976	-0.374402	534.205026	-0.630419	29.788339	-0.549016	-5.576200	-0.118011
0.550	3.378748	-0.340229	534.000593	-0.592714	29.836748	-0.553507	-5.587400	-0.110995
0.560	3.351625	-0.286170	533.789427	-0.547484	29.886222	-0.558822	-5.598879	-0.102566
0.570	3.324120	-0.213221	533.624542	-0.493774	29.941110	-0.563400	-5.610895	-0.092532
0.580	3.288573	-0.125975	533.545218	-0.433491	30.004592	-0.566424	-5.623627	-0.081247
0.590	3.240067	-0.031234	533.562450	-0.370448	30.078008	-0.568045	-5.637205	-0.069429
0.600	3.177489	0.063204	533.655976	-0.308685	30.160892	-0.569073	-5.651748	-0.057843
0.610	3.103294	0.149604	533.784195	-0.250923	30.251438	-0.570362	-5.667354	-0.047008
0.620	3.021975	0.221494	533.902353	-0.197908	30.347096	-0.572294	-5.684016	-0.037068
0.630	2.937916	0.274962	533.980807	-0.148894	30.445174	-0.574613	-5.701548	-0.027884
0.640	2.853675	0.309542	534.015757	-0.102940	30.543400	-0.576654	-5.719569	-0.019277
0.650	2.769605	0.328037	534.028647	-0.060233	30.640353	-0.577784	-5.737586	-0.011279
0.660	2.684993	0.335147	534.055263	-0.022667	30.735573	-0.577795	-5.755130	-0.004244
0.670	2.599855	0.335537	534.129207	0.006609	30.829225	-0.577050	-5.771867	0.001237
0.680	2.516017	0.332176	534.266109	0.024235	30.921426	-0.576349	-5.787645	0.004536
0.690	2.436629	0.325620	534.454550	0.027607	31.011526	-0.576610	-5.802463	0.005166
0.700	2.364450	0.314520	534.657348	0.015410	31.097815	-0.578562	-5.816401	0.002882
0.710	2.300223	0.297083	534.822863	-0.012243	31.177915	-0.582542	-5.829578	-0.002289
0.720	2.242355	0.272604	534.901788	-0.053908	31.249760	-0.588416	-5.842149	-0.010078
0.730	2.188083	0.242109	534.862794	-0.107099	31.312683	-0.595609	-5.854339	-0.020024
0.740	2.135163	0.207764	534.701319	-0.168727	31.368004	-0.603265	-5.866453	-0.031555
0.750	2.082826	0.171436	534.439505	-0.235627	31.418778	-0.610485	-5.878828	-0.044089
0.760	2.031432	0.133229	534.119040	-0.305104	31.468757	-0.616580	-5.891712	-0.057123
0.770	1.981247	0.090797	533.790563	-0.375347	31.521062	-0.621234	-5.905137	-0.070317
0.780	1.931335	0.040001	533.502807	-0.445509	31.577211	-0.624581	-5.918846	-0.083506
0.790	1.879292	-0.023153	533.293416	-0.515377	31.636968	-0.627192	-5.932375	-0.096640
0.800	1.821988	-0.100052	533.182636	-0.584820	31.699013	-0.629921	-5.945245	-0.109685
0.810	1.757018	-0.187830	533.170876	-0.653323	31.761961	-0.633578	-5.957182	-0.122535
0.820	1.684308	-0.279615	533.240567	-0.719912	31.825163	-0.638529	-5.968256	-0.135007
0.830	1.607154	-0.366716	533.361909	-0.783566	31.888851	-0.644442	-5.978839	-0.146911
0.840	1.532046	-0.441599	533.501559	-0.843942	31.953491	-0.650372	-5.989390	-0.158189
0.850	1.467049	-0.500133	533.632604	-0.901929	32.018655	-0.655132	-6.000131	-0.169017
0.860	1.419235	-0.542281	533.742633	-0.959552	32.082053	-0.657710	-6.010772	-0.179778
0.870	1.392309	-0.571332	533.835779	-1.019106	32.139328	-0.657542	-6.020452	-0.190902
0.880	1.385589	-0.592337	533.926525	-1.081891	32.184819	-0.654597	-6.027949	-0.202629
0.890	1.394926	-0.610454	534.027715	-1.147205	32.213048	-0.649334	-6.032093	-0.214821
0.900	1.415052	-0.629684	534.139317	-1.212138	32.220393	-0.642534	-6.032208	-0.226933
0.910	1.442126	-0.652133	534.244774	-1.272354	32.206343	-0.635043	-6.028387	-0.238159
0.920	1.475245	-0.677747	534.317700	-1.323510	32.173811	-0.627490	-6.021476	-0.247701
0.930	1.516339	-0.704458	534.335686	-1.362663	32.128376	-0.620116	-6.012770	-0.255020
0.940	1.568689	-0.728832	534.293599	-1.389056	32.076713	-0.612758	-6.003574	-0.259980
0.950	1.634821	-0.747174	534.208681	-1.404028	32.024774	-0.604949	-5.994806	-0.262824
0.960	1.714761	-0.756813	534.114276	-1.410191	31.976277	-0.596091	-5.986786	-0.264024
0.970	1.805503	-0.757023	534.045836	-1.410254	31.931951	-0.585681	-5.979253	-0.264070
0.980	1.901947	-0.749175	534.026954	-1.405864	31.889676	-0.573584	-5.971548	-0.263257
0.990	1.998689	-0.735941	534.062071	-1.396900	31.845434	-0.560252	-5.962871	-0.261561
1.000	2.091675	-0.719822	534.137858	-1.381528	31.794735	-0.546788	-5.952534	-0.258646
1.010	2.178924	-0.701638	534.231090	-1.357109	31.734126	-0.534715	-5.940150	-0.254030
1.020	2.260246	-0.679795	534.318929	-1.321603	31.662238	-0.525521	-5.925719	-0.247343
1.030	2.336559	-0.650950	534.387519	-1.274722	31.579990	-0.520175	-5.909567	-0.238539
1.040	2.409570	-0.612029	534.435889	-1.218152	31.489896	-0.518859	-5.892175	-0.227932
1.050	2.481949	-0.562603	534.473917	-1.154759	31.394834	-0.521061	-5.873969	-0.216055
1.060	2.557335	-0.506159	534.515410	-1.087373	31.296827	-0.525920	-5.855178	-0.203431
1.070	2.639478	-0.449175	534.569447	-1.017917	31.196365	-0.532621	-5.835793	-0.190418
1.080	2.730660	-0.398152	534.634016	-0.947191	31.092501	-0.540608	-5.815661	-0.177166
1.090	2.830353	-0.356068	534.695140	-0.875103	30.983599	-0.549591	-5.794629	-0.163664
1.100	2.935046	-0.320274	534.732253	-0.801056	30.868332	-0.559414	-5.772671	-0.149805
1.110	3.039507	-0.283281	534.727402	-0.724386	30.746508	-0.569903	-5.749941	-0.135468
1.120	3.138868	-0.236394	534.673738	-0.644941	30.619453	-0.580771	-5.726755	-0.120623
1.130	3.230460	-0.174476	534.579195	-0.563659	30.489857	-0.591595	-5.703525	-0.105440
1.140	3.314480	-0.099338	534.464049	-0.482838	30.361248	-0.601851	-5.680690	-0.090341
1.150	3.393322	-0.019947	534.354181	-0.405794	30.237271	-0.611023	-5.658657	-0.075941
1.160	3.470088	0.050612	534.273176	-0.335998	30.121036	-0.618740	-5.637759	-0.062889
1.170	3.547041	0.099863	534.235615	-0.276146	30.014699	-0.624863	-5.618251	-0.051690
1.180	3.624397	0.120231	534.242646	-0.227640	29.919366	-0.629430	-5.600333	-0.042610
1.190	3.699664	0.111241	534.280367	-0.190655	29.835253	-0.632523	-5.584194	-0.035684
1.200	3.767821	0.079075	534.321958	-0.164603	29.761955	-0.634171	-5.570042	-0.030806
1.210	3.822665	0.034049	534.334597	-0.148634	29.698655	-0.634394	-5.558063	-0.027817
1.220	3.859088	-0.012701	534.290651	-0.141856	29.644230	-0.633308	-5.548334	-0.026550
1.230	3.875286	-0.051999	534.179546	-0.143213	29.597322	-0.631151	-5.540707	-0.026810
1.240	3.873730	-0.078079	534.014410	-0.151189	29.556460	-0.628136	-5.534768	-0.028312
1.250	3.860264	-0.088728	533.828844	-0.163548	29.520358	-0.624253	-5.529929	-0.030637
1.260	3.841756	-0.084629	533.664599	-0.177373	29.488336	-0.619217	-5.525631	-0.033237
1.270	3.823515	-0.068528	533.556464	-0.189582	29.460728	-0.612677	-5.521577	-0.035532
1.280	3.807867	-0.044608	533.521806	-0.197856	29.439013	-0.604557	-5.517865	-0.037085
1.290	3.794378	-0.018151	533.558423	-0.201492	29.425543	-0.595249	-5.514962	-0.037764
1.300	3.781084	0.004777	533.649467	-0.201588	29.422939	-0.585463	-5.513533	-0.037775
1.310	3.765599	0.018019	533.771621	-0.200478	29.433356	-0.575814	-5.514223	-0.037559
1.320	3.745601	0.016555	533.902874	-0.200879	29.457859	-0.566450	-5.517456	-0.037625
1.330	3.719012	-0.002064	534.027666	-0.205288	29.496016	-0.557061	-5.523312	-0.038441
1.340	3.684441	-0.036717	534.138468	-0.215799	29.545776	-0.547291	-5.531483	-0.040401
1.350	3.641914	-0.082619	534.233957	-0.234082	29.603682	-0.537239	-5.541333	-0.043816
1.360	3.593450	-0.132350	534.314982	-0.261204	29.665484	-0.527663	-5.552059	-0.048886
1.370	3.542942	-0.177897	534.380398	-0.297168	29.727074	-0.519670	-5.562905	-0.055610
1.380	3.495155	-0.213223	534.424968	-0.340424	29.785439	-0.514085	-5.573362	-0.063699
1.390	3.454216	-0.236339	534.440728	-0.387763	29.839262	-0.510935	-5.583269	-0.072555
1.400	3.422308	-0.249788	534.421606	-0.434922	29.888888	-0.509385	-5.592754	-0.081382
1.410	3.399279	-0.259164	534.369193	-0.477815	29.935716	-0.508172	-5.602066	-0.089417
1.420	3.383385	-0.270468	534.296139	-0.513860	29.981368	-0.506243	-5.611376	-0.096175
1.430	3.372690	-0.287661	534.224206	-0.542719	30.027053	-0.503237	-5.620684	-0.101590
1.440	3.366387	-0.311475	534.176887	-0.566187	30.073390	-0.499602	-5.629856	-0.105992
1.450	3.365422	-0.339690	534.170037	-0.587410	30.120633	-0.496371	-5.638772	-0.109967
1.460	3.372120	-0.368504	534.205221	-0.609857	30.169059	-0.494716	-5.647466	-0.114162
1.470	3.388835	-0.394280	534.268990	-0.636357	30.219261	-0.495391	-5.656188	-0.119108
1.480	3.416125	-0.415039	534.338221	-0.668406	30.272169	-0.498284	-5.665357	-0.125090
1.490	3.451267	-0.431181	534.389049	-0.705886	30.328753	-0.502292	-5.675407	-0.132092
1.500	3.487893	-0.445161	534.405686	-0.747176	30.389519	-0.505709	-5.686601	-0.139814
1.510	3.517083	-0.460159	534.385974	-0.789529	30.454108	-0.506990	-5.698897	-0.147745
1.520	3.529647	-0.478293	534.341973	-0.829576	30.521300	-0.505528	-5.711941	-0.155252
1.530	3.518823	-0.499319	534.295262	-0.863903	30.589474	-0.501976	-5.725200	-0.161690
1.540	3.482544	-0.520530	534.268237	-0.889617	30.657244	-0.497960	-5.738175	-0.166511
1.550	3.424557	-0.537817	534.274623	-0.904775	30.723831	-0.495360	-5.750569	-0.169346
1.560	3.353960	-0.547141	534.313546	-0.908589	30.788904	-0.495576	-5.762329	-0.170048
1.570	3.283002	-0.545576	534.370302	-0.901325	30.852037	-0.499069	-5.773531	-0.168670
1.580	3.223596	-0.531630	534.424098	-0.883869	30.912242	-0.505308	-5.784216	-0.165387
1.590	3.183672	-0.505088	534.459401	-0.857142	30.968074	-0.513004	-5.794280	-0.160375
1.600	3.164849	-0.466740	534.474721	-0.821693	31.018349	-0.520520	-5.803520	-0.153739
1.610	3.162473	-0.418073	534.483083	-0.777813	31.063060	-0.526387	-5.811795	-0.145526
1.620	3.167945	-0.360804	534.503302	-0.726108	31.103855	-0.529827	-5.819207	-0.135847
1.630	3.172103	-0.296350	534.547163	-0.668192	31.143714	-0.531091	-5.826186	-0.125002
1.640	3.168073	-0.225606	534.610048	-0.606977	31.185976	-0.531382	-5.833406	-0.113536
1.650	3.152516	-0.149450	534.670237	-0.546260	31.233234	-0.532336	-5.841588	-0.102168
1.660	3.125158	-0.069989	534.697470	-0.489677	31.286614	-0.535258	-5.851274	-0.091580
1.670	3.087325	0.008171	534.666896	-0.439475	31.345623	-0.540462	-5.862645	-0.082196
1.680	3.040485	0.077824	534.571837	-0.395733	31.408447	-0.547033	-5.875440	-0.074028
1.690	2.985592	0.131098	534.428951	-0.356393	31.472517	-0.553158	-5.888999	-0.066687
1.700	2.923404	0.163006	534.272960	-0.318116	31.535249	-0.556894	-5.902460	-0.059542
1.710	2.855247	0.174752	534.143269	-0.277571	31.594869	-0.557032	-5.915055	-0.051966
1.720	2.783318	0.174440	534.068498	-0.232678	31.651096	-0.553630	-5.926411	-0.043567
1.730	2.710118	0.174213	534.055620	-0.183360	31.705413	-0.547998	-5.936725	-0.034334
1.740	2.637445	0.185027	534.088277	-0.131601	31.760715	-0.542178	-5.946716	-0.024640
1.750	2.565801	0.211894	534.134778	-0.080881	31.820381	-0.538161	-5.957369	-0.015142
1.760	2.494570	0.252112	534.161776	-0.035287	31.887120	-0.537152	-5.969562	-0.006606
1.770	2.422618	0.297205	534.147113	0.001370	31.962084	-0.539153	-5.983760	0.000256
1.780	2.348900	0.337150	534.086359	0.026240	32.044622	-0.543044	-5.999895	0.004913
1.790	2.273159	0.364421	533.991519	0.037949	32.132689	-0.547121	-6.017453	0.007107
1.800	2.196876	0.375909	533.884661	0.036874	32.223635	-0.549850	-6.035692	0.006907
1.810	2.124119	0.372389	533.790999	0.025027	32.314990	-0.550492	-6.053866	0.004689
1.820	2.061436	0.356698	533.734251	0.005467	32.404927	-0.549346	-6.071360	0.001024
1.830	2.016317	0.332191	533.733704	-0.018574	32.492189	-0.547593	-6.087715	-0.003480
1.840	1.994832	0.302408	533.800699	-0.044540	32.575522	-0.546873	-6.102563	-0.008344
1.850	1.999653	0.271717	533.933866	-0.071160	32.652945	-0.548792	-6.115541	-0.013328
1.860	2.029493	0.245832	534.115537	-0.098716	32.721409	-0.554472	-6.126279	-0.018482
1.870	2.080133	0.231087	534.312662	-0.128856	32.777253	-0.564205	-6.134471	-0.024116
1.880	2.146319	0.232268	534.483463	-0.163917	32.817394	-0.577266	-6.140020	-0.030668
1.890	2.223398	0.250004	534.587966	-0.205911	32.840615	-0.591964	-6.143164	-0.038518
1.900	2.307895	0.279252	534.598937	-0.255519	32.848214	-0.606010	-6.144459	-0.047796
1.910	2.397106	0.309747	534.509597	-0.311573	32.843654	-0.617143	-6.144633	-0.058291
1.920	2.488395	0.328234	534.335650	-0.371346	32.831555	-0.623786	-6.144369	-0.069497
1.930	2.578838	0.321771	534.111264	-0.431675	32.816612	-0.625502	-6.144153	-0.080821
1.940	2.665222	0.281322	533.880873	-0.490488	32.802819	-0.623059	-6.144221	-0.091872
1.950	2.744063	0.204713	533.689562	-0.548059	32.792987	-0.618112	-6.144581	-0.102692
1.960	2.811444	0.097804	533.574298	-0.607312	32.788435	-0.612668	-6.145055	-0.113820
1.970	2.862957	-0.026961	533.557133	-0.672939	32.788909	-0.608573	-6.145342	-0.126123
1.980	2.894271	-0.154293	533.640959	-0.749656	32.792911	-0.607172	-6.145126	-0.140479
1.990	2.902401	-0.270611	533.808689	-0.840368	32.798548	-0.609171	-6.144251	-0.157429
2.000	2.887114	-0.367632	534.026928	-0.944998	32.804655	-0.614580	-6.142884	-0.176957
2.010	2.851669	-0.443901	534.254251	-1.060407	32.811669	-0.622713	-6.141583	-0.198484
2.020	2.802440	-0.504120	534.452378	-1.181337	32.821679	-0.632293	-6.141179	-0.221037
2.030	2.747577	-0.556840	534.597052	-1.301922	32.837470	-0.641777	-6.142471	-0.243533
2.040	2.695322	-0.611274	534.684918	-1.417109	32.860960	-0.649831	-6.145855	-0.265036
2.050	2.652620	-0.674033	534.733153	-1.523566	32.891881	-0.655746	-6.151083	-0.284921
2.060	2.624484	-0.746731	534.770848	-1.619894	32.927549	-0.659576	-6.157319	-0.302914
2.070	2.614141	-0.825398	534.824885	-1.706287	32.963844	-0.661911	-6.163484	-0.319037
2.080	2.623443	-0.902147	534.905967	-1.783939	32.996745	-0.663398	-6.168700	-0.333505
2.090	2.652965	-0.968485	535.000846	-1.854498	33.023418	-0.664270	-6.172592	-0.346635
2.100	2.701613	-1.018792	535.074718	-1.919675	33.042360	-0.664136	-6.175280	-0.358768
2.110	2.766083	-1.052393	535.083853	-1.980892	33.052891	-0.662097	-6.177142	-0.370202
2.120	2.840585	-1.073355	534.994130	-2.038895	33.054675	-0.657164	-6.178512	-0.381106
2.130	2.917237	-1.088224	534.798035	-2.093448	33.047754	-0.648774	-6.179483	-0.391446
2.140	2.987406	-1.102872	534.522646	-2.143287	33.033096	-0.637165	-6.179925	-0.400972
2.150	3.043815	-1.120031	534.224320	-2.186401	33.013203	-0.623391	-6.179652	-0.409267
2.160	3.082541	-1.138747	533.971335	-2.220608	32.992209	-0.608950	-6.178648	-0.415867
2.170	3.103809	-1.155809	533.821213	-2.244255	32.975103	-0.595262	-6.177181	-0.420413
2.180	3.111123	-1.168120	533.802109	-2.256838	32.966226	-0.583257	-6.175739	-0.422786
2.190	3.109229	-1.174645	533.905370	-2.259367	32.967786	-0.573276	-6.174837	-0.423178
2.200	3.101941	-1.177089	534.090900	-2.254446	32.979221	-0.565248	-6.174833	-0.422109
2.210	3.090679	-1.179250	534.301966	-2.246040	32.997882	-0.558999	-6.175886	-0.420369
2.220	3.074036	-1.185615	534.483486	-2.238830	33.020667	-0.554474	-6.178052	-0.418877
2.230	3.048460	-1.199881	534.597542	-2.237040	33.045663	-0.551699	-6.181410	-0.418453
2.240	3.009872	-1.223947	534.631442	-2.243015	33.072862	-0.550468	-6.186105	-0.419544
2.250	2.955631	-1.257629	534.596715	-2.256147	33.103485	-0.550007	-6.192235	-0.422028
2.260	2.885960	-1.299175	534.520717	-2.272764	33.138343	-0.548946	-6.199637	-0.425197
2.270	2.804289	-1.346326	534.434637	-2.287227	33.176297	-0.545739	-6.207737	-0.427971
2.280	2.716726	-1.397263	534.362183	-2.293879	33.213920	-0.539282	-6.215619	-0.429274
2.290	2.631146	-1.450686	534.312525	-2.289088	33.246642	-0.529343	-6.222321	-0.428417
2.300	2.556084	-1.505045	534.279661	-2.272486	33.270652	-0.516598	-6.227198	-0.425336
2.310	2.499320	-1.557695	534.248161	-2.246789	33.284392	-0.502376	-6.230137	-0.420552
2.320	2.466192	-1.604839	534.202575	-2.216288	33.289007	-0.488316	-6.231532	-0.414878
