Time[s]	Fx[N]	Fy[N]	Fz[N]	Mx[Nm]	My[Nm]	Mz[Nm]	COPx[cm]	COPy[cm]
0.010	5.001516	-4.352698	569.874398	0.850589	-1.583905	0.045682	0.277939	0.149259
0.020	5.061063	-4.365373	569.735948	0.837791	-1.541285	0.037040	0.270526	0.147049
0.030	5.096502	-4.379587	569.590193	0.819360	-1.491867	0.032118	0.261919	0.143851
0.040	5.088599	-4.397505	569.440862	0.791515	-1.429385	0.033599	0.251015	0.138999
0.050	5.028385	-4.421773	569.306381	0.753295	-1.349572	0.042317	0.237055	0.132318
0.060	4.919633	-4.454507	569.214388	0.706675	-1.251149	0.057196	0.219803	0.124149
0.070	4.778155	-4.495838	569.189043	0.655719	-1.136214	0.075796	0.199620	0.115202
0.080	4.628067	-4.542900	569.237414	0.604994	-1.009750	0.095175	0.177386	0.106281
0.090	4.495811	-4.590017	569.342333	0.557705	-0.878149	0.112764	0.154239	0.097956
0.100	4.402965	-4.630333	569.466173	0.514280	-0.747022	0.126994	0.131179	0.090309
0.110	4.359039	-4.658406	569.564484	0.472091	-0.618904	0.137523	0.108663	0.082886
0.120	4.356043	-4.672833	569.603668	0.426496	-0.491574	0.145081	0.086301	0.074876
0.130	4.367122	-4.677799	569.575076	0.372675	-0.357564	0.151069	0.062777	0.065430
0.140	4.350972	-4.682720	569.499161	0.307326	-0.205170	0.157109	0.036026	0.053964
0.150	4.261764	-4.699738	569.417833	0.229511	-0.020938	0.164716	0.003677	0.040306
0.160	4.061955	-4.739731	569.378990	0.140543	0.206761	0.175114	-0.036313	0.024683
0.170	3.734064	-4.808152	569.420525	0.043285	0.483924	0.189061	-0.084985	0.007602
0.180	3.287758	-4.902331	569.559402	-0.058656	0.807981	0.206534	-0.141861	-0.010298
0.190	2.760077	-5.011424	569.787205	-0.161601	1.166820	0.226312	-0.204782	-0.028362
0.200	2.208505	-5.119347	570.071265	-0.262237	1.540375	0.245702	-0.270208	-0.046001
0.210	1.698413	-5.209796	570.360646	-0.357843	1.904586	0.260715	-0.333927	-0.062740
0.220	1.288145	-5.271470	570.596451	-0.446374	2.236606	0.266856	-0.391977	-0.078229
0.230	1.016007	-5.301410	570.724458	-0.526540	2.519651	0.260354	-0.441483	-0.092258
0.240	0.893123	-5.305254	570.706751	-0.597939	2.745996	0.239446	-0.481157	-0.104772
0.250	0.904034	-5.294696	570.529398	-0.661224	2.917316	0.205206	-0.511335	-0.115897
0.260	1.014148	-5.283581	570.205071	-0.718098	3.042565	0.161519	-0.533591	-0.125937
0.270	1.180910	-5.284268	569.771168	-0.770978	3.134409	0.114125	-0.550117	-0.135314
0.280	1.364855	-5.305240	569.284792	-0.822377	3.205555	0.069062	-0.563085	-0.144458
0.290	1.537404	-5.350047	568.815280	-0.874302	3.265986	0.031129	-0.574173	-0.153706
0.300	1.683909	-5.417030	568.434107	-0.927965	3.321584	0.002909	-0.584339	-0.163249
0.310	1.802349	-5.499402	568.202752	-0.983923	3.374082	-0.015421	-0.593817	-0.173164
0.320	1.899368	-5.585884	568.161168	-1.042379	3.422074	-0.025636	-0.602307	-0.183465
0.330	1.985613	-5.662537	568.319950	-1.103274	3.462643	-0.030634	-0.609277	-0.194129
0.340	2.071750	-5.715946	568.657381	-1.165970	3.493030	-0.033538	-0.614259	-0.205039
0.350	2.165761	-5.737021	569.120906	-1.228826	3.511730	-0.036972	-0.617045	-0.215917
0.360	2.271561	-5.724026	569.633275	-1.289268	3.518726	-0.042625	-0.617718	-0.226333
0.370	2.388587	-5.683583	570.104482	-1.344646	3.515034	-0.051082	-0.616560	-0.235860
0.380	2.511979	-5.629075	570.449334	-1.393441	3.502090	-0.061856	-0.613918	-0.244271
0.390	2.633133	-5.576790	570.607150	-1.435958	3.481448	-0.073600	-0.610130	-0.251654
0.400	2.740685	-5.540968	570.557435	-1.473898	3.454950	-0.084481	-0.605539	-0.258326
0.410	2.822102	-5.529466	570.325565	-1.509031	3.425062	-0.092643	-0.600545	-0.264591
0.420	2.866017	-5.541656	569.976012	-1.541905	3.394998	-0.096643	-0.595639	-0.270521
0.430	2.865106	-5.569258	569.595220	-1.571488	3.368444	-0.095724	-0.591375	-0.275896
0.440	2.818759	-5.599529	569.269361	-1.595996	3.349027	-0.089936	-0.588303	-0.280359
0.450	2.734419	-5.619465	569.063191	-1.614289	3.339681	-0.080124	-0.586874	-0.283675
0.460	2.626676	-5.619691	569.005799	-1.626856	3.341981	-0.067850	-0.587337	-0.285912
0.470	2.514144	-5.597018	569.087114	-1.635801	3.355532	-0.055213	-0.589634	-0.287443
0.480	2.415295	-5.554986	569.265263	-1.643953	3.377644	-0.044533	-0.593334	-0.288785
0.490	2.344829	-5.502375	569.481045	-1.653710	3.403616	-0.037892	-0.597670	-0.290389
0.500	2.311539	-5.450331	569.674188	-1.666186	3.427723	-0.036627	-0.601699	-0.292481
0.510	2.317609	-5.409179	569.797115	-1.680976	3.444663	-0.040958	-0.604542	-0.295013
0.520	2.359039	-5.385876	569.823838	-1.696483	3.450990	-0.049976	-0.605624	-0.297721
0.530	2.427002	-5.382683	569.753184	-1.710511	3.446027	-0.062023	-0.604828	-0.300220
0.540	2.509975	-5.397170	569.606483	-1.720814	3.432021	-0.075274	-0.602525	-0.302106
0.550	2.596096	-5.423365	569.420725	-1.725535	3.413552	-0.088226	-0.599478	-0.303033
0.560	2.675060	-5.453643	569.239120	-1.723726	3.396405	-0.099887	-0.596657	-0.302812
0.570	2.739236	-5.480881	569.101327	-1.715941	3.386212	-0.109651	-0.595010	-0.301518
0.580	2.784092	-5.500385	569.035454	-1.704592	3.387107	-0.117051	-0.595237	-0.299558
0.590	2.808318	-5.511023	569.053330	-1.693595	3.400522	-0.121641	-0.597575	-0.297616
0.600	2.814017	-5.515147	569.149702	-1.687220	3.424296	-0.123124	-0.601651	-0.296446
0.610	2.807111	-5.517206	569.304998	-1.688599	3.452409	-0.121618	-0.606425	-0.296607
0.620	2.797514	-5.521572	569.490731	-1.698613	3.475727	-0.117837	-0.610322	-0.298269
0.630	2.798329	-5.530596	569.676417	-1.715657	3.483923	-0.112989	-0.611562	-0.301163
0.640	2.823568	-5.543913	569.836467	-1.736281	3.468192	-0.108449	-0.608629	-0.304698
0.650	2.884632	-5.559361	569.954923	-1.756326	3.423864	-0.105371	-0.600725	-0.308152
0.660	2.986505	-5.574822	570.026287	-1.772093	3.351954	-0.104414	-0.588035	-0.310879
0.670	3.125032	-5.589635	570.052621	-1.781250	3.259141	-0.105621	-0.571726	-0.312471
0.680	3.286540	-5.604679	570.039423	-1.783325	3.156277	-0.108432	-0.553694	-0.312842
0.690	3.450377	-5.621199	569.993181	-1.779742	3.055833	-0.111785	-0.536117	-0.312239
0.700	3.593861	-5.639291	569.921667	-1.773354	2.968895	-0.114298	-0.520930	-0.311157
0.710	3.698046	-5.657079	569.835794	-1.767597	2.902407	-0.114511	-0.509341	-0.310194
0.720	3.752288	-5.671196	569.750860	-1.765563	2.857483	-0.111184	-0.501532	-0.309883
0.730	3.756271	-5.678411	569.685300	-1.769361	2.829486	-0.103617	-0.496675	-0.310586
0.740	3.719447	-5.677538	569.656491	-1.779911	2.809957	-0.091914	-0.493272	-0.312453
0.750	3.658750	-5.670473	569.675312	-1.797003	2.789665	-0.077057	-0.489694	-0.315443
0.760	3.595460	-5.661532	569.742064	-1.819302	2.761479	-0.060716	-0.484689	-0.319320
0.770	3.551557	-5.655425	569.845256	-1.844360	2.721989	-0.044853	-0.477672	-0.323660
0.780	3.545680	-5.655124	569.963277	-1.868960	2.671568	-0.031240	-0.468726	-0.327909
0.790	3.589139	-5.660922	570.068455	-1.890064	2.613307	-0.021032	-0.458420	-0.331550
0.800	3.682983	-5.671095	570.132824	-1.906072	2.551583	-0.014466	-0.447542	-0.334321
0.810	3.817117	-5.683557	570.134033	-1.917759	2.490927	-0.010824	-0.436902	-0.336370
0.820	3.971936	-5.697322	570.059563	-1.928348	2.435518	-0.008731	-0.427239	-0.338271
0.830	4.122173	-5.712774	569.908646	-1.942585	2.389220	-0.006713	-0.419229	-0.340859
0.840	4.242221	-5.730642	569.692884	-1.965109	2.355795	-0.003767	-0.413520	-0.344942
0.850	4.311943	-5.750625	569.436581	-1.998742	2.338828	0.000346	-0.410727	-0.351003
0.860	4.321656	-5.770851	569.176051	-2.043351	2.341121	0.005220	-0.411318	-0.359002
0.870	4.274722	-5.788622	568.955679	-2.095705	2.363702	0.010200	-0.415446	-0.368342
0.880	4.186518	-5.801809	568.819428	-2.150351	2.404969	0.014799	-0.422800	-0.378038
0.890	4.079793	-5.809852	568.799619	-2.201215	2.460479	0.018908	-0.432574	-0.386993
0.900	3.978093	-5.813830	568.906797	-2.243375	2.523631	0.022696	-0.443593	-0.394331
0.910	3.899791	-5.815937	569.123817	-2.274454	2.587060	0.026298	-0.454569	-0.399641
0.920	3.854772	-5.818921	569.405862	-2.295106	2.644378	0.029504	-0.464410	-0.403070
0.930	3.844335	-5.825751	569.687817	-2.308450	2.691735	0.031668	-0.472493	-0.405213
0.940	3.863292	-5.839328	569.899360	-2.318734	2.728752	0.031947	-0.478813	-0.406867
0.950	3.902509	-5.862039	569.984302	-2.329895	2.758559	0.029734	-0.483971	-0.408765
0.960	3.950541	-5.895148	569.916577	-2.344671	2.787003	0.025049	-0.489019	-0.411406
0.970	3.994010	-5.938118	569.705928	-2.364473	2.821339	0.018718	-0.495227	-0.415034
0.980	4.017355	-5.988290	569.392105	-2.389760	2.868784	0.012248	-0.503833	-0.419704
0.990	4.003239	-6.041507	569.032421	-2.420359	2.935155	0.007468	-0.515815	-0.425346
1.000	3.934880	-6.093803	568.688989	-2.455430	3.023768	0.005989	-0.531709	-0.431770
1.010	3.800716	-6.143227	568.419664	-2.493171	3.134721	0.008640	-0.551480	-0.438615
1.020	3.600327	-6.190381	568.273268	-2.530674	3.264709	0.015054	-0.574496	-0.445327
1.030	3.349069	-6.237065	568.287087	-2.564288	3.407428	0.023612	-0.599596	-0.451231
1.040	3.078545	-6.283802	568.483357	-2.590505	3.554520	0.031837	-0.625264	-0.455687
1.050	2.831273	-6.327871	568.862433	-2.607088	3.696925	0.037121	-0.649880	-0.458298
1.060	2.650484	-6.363197	569.393668	-2.613996	3.826377	0.037448	-0.672009	-0.459084
1.070	2.568471	-6.382364	570.009037	-2.613660	3.936749	0.031807	-0.690647	-0.458530
1.080	2.597844	-6.379887	570.606190	-2.610316	4.025027	0.020199	-0.705395	-0.457464
1.090	2.728765	-6.355339	571.064983	-2.608558	4.091795	0.003376	-0.716520	-0.456788
1.100	2.932566	-6.315057	571.275550	-2.611747	4.141202	-0.017390	-0.724905	-0.457178
1.110	3.169612	-6.271598	571.169904	-2.620971	4.180458	-0.040333	-0.731911	-0.458878
1.120	3.398164	-6.240800	570.746214	-2.634987	4.219002	-0.063096	-0.739208	-0.461674
1.130	3.581427	-6.237152	570.076385	-2.651135	4.267508	-0.082752	-0.748585	-0.465049
1.140	3.691376	-6.268950	569.292509	-2.666867	4.336689	-0.096177	-0.761768	-0.468453
1.150	3.709679	-6.335096	568.554361	-2.681175	4.435813	-0.100731	-0.780192	-0.471578
1.160	3.627350	-6.424973	568.006869	-2.695276	4.570995	-0.094952	-0.804743	-0.474515
1.170	3.444912	-6.521790	567.741564	-2.712171	4.743639	-0.078969	-0.835528	-0.477712
1.180	3.173665	-6.608311	567.775825	-2.735200	4.949595	-0.054481	-0.871752	-0.481739
1.190	2.836890	-6.672717	568.056877	-2.766155	5.179450	-0.024384	-0.911784	-0.486950
1.200	2.468879	-6.712111	568.486803	-2.803883	5.420027	0.007789	-0.953413	-0.493219
1.210	2.110413	-6.732258	568.956092	-2.844164	5.656865	0.038460	-0.994253	-0.499892
1.220	1.800961	-6.743984	569.371473	-2.881060	5.877184	0.064534	-1.032223	-0.506007
1.230	1.569522	-6.758167	569.670276	-2.909101	6.072663	0.083830	-1.065996	-0.510664
1.240	1.427017	-6.781680	569.822907	-2.925259	6.241224	0.095380	-1.095292	-0.513363
1.250	1.363124	-6.815903	569.829628	-2.929904	6.387187	0.099507	-1.120894	-0.514172
1.260	1.349119	-6.857988	569.715995	-2.926516	6.519645	0.097650	-1.144368	-0.513680
1.270	1.346120	-6.903741	569.527485	-2.920483	6.649509	0.091950	-1.167548	-0.512791
1.280	1.316285	-6.950405	569.322068	-2.917500	6.786097	0.084685	-1.191961	-0.512452
1.290	1.233660	-6.997916	569.159870	-2.921919	6.934293	0.077680	-1.218338	-0.513374
1.300	1.091605	-7.048256	569.090661	-2.935240	7.093020	0.071845	-1.246378	-0.515777
1.310	0.904671	-7.103508	569.142118	-2.954971	7.255331	0.066929	-1.274784	-0.519197
1.320	0.704181	-7.163855	569.313351	-2.974349	7.410030	0.061635	-1.301573	-0.522445
1.330	0.528488	-7.226674	569.576903	-2.983385	7.544487	0.054103	-1.324577	-0.523790
1.340	0.410776	-7.287218	569.888389	-2.971248	7.647856	0.042632	-1.341992	-0.521374
1.350	0.368680	-7.340255	570.199286	-2.929318	7.713650	0.026354	-1.352799	-0.513736
1.360	0.399733	-7.381336	570.468039	-2.853735	7.740767	0.005604	-1.356915	-0.500244
1.370	0.484364	-7.406882	570.666976	-2.746424	7.732773	-0.018174	-1.355041	-0.481266
1.380	0.594726	-7.413539	570.784445	-2.614217	7.695995	-0.042888	-1.348319	-0.458004
1.390	0.705090	-7.397876	570.822253	-2.466556	7.637277	-0.066428	-1.337943	-0.432106
1.400	0.799427	-7.356971	570.789322	-2.312656	7.562170	-0.087198	-1.324862	-0.405168
1.410	0.873855	-7.289477	570.694351	-2.159099	7.473916	-0.104386	-1.309618	-0.378328
1.420	0.934311	-7.196334	570.541414	-2.008520	7.373286	-0.117958	-1.292331	-0.352038
1.430	0.991540	-7.080551	570.331314	-1.859666	7.259121	-0.128422	-1.272790	-0.326068
1.440	1.055938	-6.946184	570.068124	-1.708527	7.129338	-0.136526	-1.250612	-0.299706
1.450	1.134370	-6.797204	569.766796	-1.549880	6.982085	-0.143017	-1.225429	-0.272020
1.460	1.229995	-6.636851	569.456670	-1.378659	6.816588	-0.148546	-1.197034	-0.242101
1.470	1.344610	-6.467459	569.177948	-1.190882	6.633261	-0.153674	-1.165411	-0.209228
1.480	1.481669	-6.290404	568.972274	-0.984142	6.433023	-0.158864	-1.130639	-0.172968
1.490	1.647912	-6.106134	568.871772	-0.757784	6.216228	-0.164356	-1.092729	-0.133208
1.500	1.852485	-5.914521	568.891469	-0.512865	5.981928	-0.169982	-1.051506	-0.090152
1.510	2.103788	-5.715564	569.027423	-0.252019	5.728050	-0.175083	-1.006639	-0.044289
1.520	2.405333	-5.510153	569.259060	0.020787	5.452685	-0.178602	-0.957856	0.003652
1.530	2.752325	-5.300543	569.552416	0.300583	5.156004	-0.179347	-0.905273	0.052775
1.540	3.130456	-5.090404	569.862675	0.581843	4.841921	-0.176302	-0.849665	0.102102
1.550	3.517637	-4.884405	570.137760	0.859046	4.518590	-0.168926	-0.792544	0.150673
1.560	3.888387	-4.687338	570.325998	1.127433	4.197420	-0.157357	-0.735969	0.197682
1.570	4.219550	-4.503032	570.388503	1.383775	3.890953	-0.142468	-0.682158	0.242602
1.580	4.495513	-4.333640	570.312288	1.626779	3.610350	-0.125682	-0.633048	0.285244
1.590	4.711185	-4.179771	570.116951	1.856835	3.363212	-0.108597	-0.589916	0.325694
1.600	4.871918	-4.041471	569.849669	2.075221	3.152348	-0.092558	-0.553189	0.364170
1.610	4.990824	-3.919356	569.569934	2.283144	2.975786	-0.078350	-0.522462	0.400854
1.620	5.084743	-3.815025	569.331863	2.480961	2.827980	-0.066079	-0.496719	0.435767
1.630	5.170105	-3.730309	569.172056	2.667833	2.701722	-0.055245	-0.474676	0.468722
1.640	5.259373	-3.665672	569.105458	2.841910	2.590125	-0.044916	-0.455122	0.499364
1.650	5.358341	-3.618653	569.126565	3.001037	2.488090	-0.034005	-0.437177	0.527306
1.660	5.464704	-3.583167	569.213140	3.143734	2.392851	-0.021606	-0.420379	0.552295
1.670	5.568710	-3.550148	569.332257	3.270091	2.303585	-0.007354	-0.404612	0.574373
1.680	5.656637	-3.509629	569.449441	3.382190	2.220448	0.008362	-0.389929	0.593940
1.690	5.716615	-3.453858	569.539223	3.483806	2.143613	0.024441	-0.376377	0.611689
1.700	5.744520	-3.380271	569.592788	3.579424	2.072685	0.039380	-0.363889	0.628418
1.710	5.746908	-3.292819	569.618792	3.672902	2.006596	0.051720	-0.352270	0.644800
1.720	5.739116	-3.200786	569.636610	3.766334	1.943913	0.060435	-0.341255	0.661182
1.730	5.739211	-3.115628	569.664735	3.859500	1.883471	0.065174	-0.330628	0.677504
1.740	5.760656	-3.047402	569.709321	3.950037	1.825160	0.066311	-0.320367	0.693343
1.750	5.806915	-3.002361	569.758597	4.034171	1.770541	0.064841	-0.310753	0.708049
1.760	5.869953	-2.982473	569.787368	4.107697	1.722897	0.062165	-0.302375	0.720918
1.770	5.932802	-2.986520	569.771062	4.166857	1.686545	0.059841	-0.296004	0.731321
1.780	5.975008	-3.011685	569.702042	4.208851	1.665641	0.059340	-0.292370	0.738781
1.790	5.979069	-3.054625	569.597058	4.231958	1.662989	0.061802	-0.291959	0.742974
1.800	5.935813	-3.111659	569.488679	4.235498	1.679338	0.067758	-0.294885	0.743737
1.810	5.846994	-3.178467	569.404103	4.219959	1.713362	0.076888	-0.300904	0.741119
1.820	5.724343	-3.250025	569.344643	4.187325	1.762226	0.088004	-0.309518	0.735464
1.830	5.585512	-3.321227	569.280578	4.141246	1.822541	0.099350	-0.320148	0.727452
1.840	5.448648	-3.387938	569.166641	4.086663	1.891422	0.109109	-0.332314	0.718008
1.850	5.327785	-3.447734	568.969617	4.028868	1.967320	0.115853	-0.345769	0.708099
1.860	5.230671	-3.499834	568.691623	3.972452	2.050228	0.118761	-0.360517	0.698525
1.870	5.159067	-3.544515	568.376107	3.920597	2.141070	0.117597	-0.376700	0.689789
1.880	5.110239	-3.582641	568.094269	3.874931	2.240601	0.112628	-0.394407	0.682093
1.890	5.078050	-3.615588	567.919505	3.835783	2.348598	0.104597	-0.413544	0.675410
1.900	5.052838	-3.645337	567.901491	3.802478	2.464103	0.094679	-0.433896	0.669566
1.910	5.020414	-3.674483	568.050013	3.773375	2.586809	0.084302	-0.455384	0.664268
1.920	4.961521	-3.706161	568.333807	3.745604	2.718886	0.074856	-0.478396	0.659050
1.930	4.853241	-3.743862	568.693262	3.714850	2.866042	0.067476	-0.503970	0.653226
1.940	4.673062	-3.790935	569.060043	3.675553	3.036992	0.063068	-0.533686	0.645899
1.950	4.404926	-3.849723	569.374967	3.621807	3.241302	0.062453	-0.569274	0.636102
1.960	4.045501	-3.920670	569.598853	3.548869	3.486378	0.066368	-0.612076	0.623047
1.970	3.608607	-4.002037	569.716335	3.454897	3.774693	0.075140	-0.662557	0.606424
1.980	3.126004	-4.090530	569.734915	3.342216	4.102134	0.088152	-0.720007	0.586626
1.990	2.643324	-4.182572	569.680534	3.217452	4.458013	0.103504	-0.782546	0.564782
2.000	2.211080	-4.275687	569.589415	3.090193	4.826857	0.118173	-0.847427	0.542530
2.010	1.872491	-4.369584	569.496496	2.970433	5.191656	0.128776	-0.911622	0.521589
2.020	1.651525	-4.466634	569.423162	2.865672	5.537730	0.132671	-0.972516	0.503259
2.030	1.545298	-4.571262	569.369104	2.778863	5.856008	0.128955	-1.028508	0.488060
2.040	1.524040	-4.688044	569.312498	2.708021	6.144619	0.118885	-1.079305	0.475665
2.050	1.539449	-4.819115	569.219317	2.647521	6.408235	0.105474	-1.125794	0.465114
2.060	1.539113	-4.962279	569.058696	2.590387	6.655409	0.092399	-1.169547	0.455206
2.070	1.482520	-5.111095	568.818895	2.530680	6.894869	0.082638	-1.212138	0.444901
2.080	1.353762	-5.257023	568.518005	2.465228	7.131987	0.077357	-1.254487	0.433623
2.090	1.167016	-5.392390	568.205182	2.394215	7.366517	0.075440	-1.296454	0.421364
2.100	0.962693	-5.512578	567.951710	2.320642	7.592200	0.073782	-1.336769	0.408599
2.110	0.794849	-5.616521	567.834755	2.249100	7.798293	0.068262	-1.373338	0.396084
2.120	0.713550	-5.705837	567.918194	2.184502	7.972523	0.055062	-1.403815	0.384651
2.130	0.748081	-5.783462	568.234974	2.131193	8.104533	0.031980	-1.426264	0.375055
2.140	0.896946	-5.852379	568.775428	2.092448	8.188737	-0.000692	-1.439714	0.367886
2.150	1.128264	-5.914482	569.485149	2.070143	8.225672	-0.040036	-1.444405	0.363511
2.160	1.390153	-5.969635	570.273483	2.064465	8.221535	-0.081223	-1.441683	0.362013
2.170	1.626654	-6.015267	571.030790	2.073718	8.186285	-0.118853	-1.433598	0.363154
2.180	1.792825	-6.046878	571.650283	2.094372	8.131132	-0.148423	-1.422396	0.366373
2.190	1.863827	-6.059403	572.048764	2.121491	8.066268	-0.167396	-1.410066	0.370858
2.200	1.836273	-6.049025	572.180369	2.149642	7.999396	-0.175514	-1.398055	0.375693
2.210	1.723447	-6.014918	572.039840	2.174115	7.935281	-0.174334	-1.387190	0.380064
2.220	1.547794	-5.960406	571.656351	2.191972	7.876174	-0.166261	-1.377781	0.383442
2.230	1.334062	-5.892946	571.082604	2.202450	7.822664	-0.153535	-1.369795	0.385662
2.240	1.105205	-5.822438	570.384360	2.206658	7.774451	-0.137601	-1.363020	0.386872
2.250	0.881282	-5.758140	569.633163	2.206867	7.730688	-0.119101	-1.357135	0.387419
2.260	0.680057	-5.705422	568.902136	2.205825	7.689881	-0.098376	-1.351705	0.387734
2.270	0.517601	-5.664085	568.262622	2.206239	7.649516	-0.076183	-1.346123	0.388243
2.280	0.407822	-5.629295	567.778861	2.210392	7.605748	-0.054199	-1.339562	0.389305
2.290	0.360979	-5.594743	567.499463	2.219765	7.553453	-0.035052	-1.331006	0.391148
2.300	0.382030	-5.556257	567.447679	2.234797	7.486820	-0.021809	-1.319385	0.393833
2.310	0.469737	-5.513876	567.614839	2.254965	7.400301	-0.017103	-1.303754	0.397270
2.320	0.616943	-5.471349	567.960794	2.279228	7.289671	-0.022208	-1.283481	0.401300
2.330	0.811770	-5.433600	568.422272	2.306550	7.152955	-0.036452	-1.258387	0.405781
2.340	1.039190	-5.403724	568.926702	2.336143	6.991055	-0.057226	-1.228815	0.410623
2.350	1.282520	-5.381224	569.406839	2.367327	6.807852	-0.080620	-1.195604	0.415753
2.360	1.524887	-5.362309	569.811210	2.399192	6.609516	-0.102461	-1.159948	0.421050
2.370	1.751163	-5.341826	570.107649	2.430425	6.403010	-0.119431	-1.123123	0.426310
2.380	1.950768	-5.315578	570.281243	2.459514	6.194164	-0.129880	-1.086159	0.431281
