Time[s]	Fx[N]	Fy[N]	Fz[N]	Mx[Nm]	My[Nm]	Mz[Nm]	COPx[cm]	COPy[cm]
0.010	0.513671	-3.703535	676.185371	-2.605827	11.855958	-0.753517	-1.753359	-0.385372
0.020	0.713381	-4.826079	674.959467	-3.590980	11.867935	-0.757354	-1.758318	-0.532029
0.030	0.923836	-5.804904	673.635605	-4.511719	11.847887	-0.775035	-1.758798	-0.669757
0.040	1.153066	-6.525616	672.131176	-5.315534	11.770320	-0.816270	-1.751194	-0.790848
0.050	1.404212	-6.923252	670.388873	-5.971160	11.620182	-0.883326	-1.733349	-0.890701
0.060	1.673252	-6.991648	668.390826	-6.471857	11.394154	-0.970385	-1.704714	-0.968274
0.070	1.948283	-6.780303	666.167899	-6.832975	11.099203	-1.065243	-1.666127	-1.025714
0.080	2.211109	-6.380728	663.797956	-7.085285	10.749538	-1.152616	-1.619399	-1.067386
0.090	2.441116	-5.905944	661.391474	-7.266489	10.363289	-1.217930	-1.566892	-1.098667
0.100	2.620723	-5.467285	659.069432	-7.413281	9.959666	-1.250561	-1.511171	-1.124810
0.110	2.741219	-5.152921	656.943090	-7.555543	9.556743	-1.245793	-1.454729	-1.150106
0.120	2.807317	-5.012660	655.104108	-7.713429	9.169640	-1.205228	-1.399723	-1.177436
0.130	2.838441	-5.052870	653.625912	-7.897183	8.809135	-1.135791	-1.347733	-1.208211
0.140	2.865271	-5.242769	652.569251	-8.108756	8.480950	-1.047761	-1.299625	-1.242589
0.150	2.921974	-5.529421	651.983279	-8.343810	8.186001	-0.952439	-1.255554	-1.279758
0.160	3.036991	-5.855270	651.898584	-8.593098	7.921565	-0.859978	-1.215153	-1.318165
0.170	3.226389	-6.171389	652.315278	-8.843187	7.682974	-0.777794	-1.177801	-1.355661
0.180	3.492294	-6.442613	653.192569	-9.077189	7.465262	-0.709760	-1.142888	-1.389665
0.190	3.825830	-6.645561	654.445170	-9.276173	7.264326	-0.656268	-1.109998	-1.417410
0.200	4.211504	-6.763848	655.948187	-9.421295	7.077508	-0.615177	-1.078974	-1.436286
0.210	4.629859	-6.784572	657.548995	-9.496086	6.903886	-0.583370	-1.049942	-1.444164
0.220	5.057178	-6.697529	659.083538	-9.488047	6.744522	-0.558340	-1.023318	-1.439582
0.230	5.463602	-6.496229	660.394385	-9.389027	6.602587	-0.539137	-0.999795	-1.421730
0.240	5.812571	-6.179094	661.347427	-9.194549	6.483056	-0.526294	-0.980280	-1.390275
0.250	6.063969	-5.749920	661.843783	-8.902721	6.391813	-0.520890	-0.965759	-1.345139
0.260	6.181241	-5.217767	661.824861	-8.513400	6.334487	-0.523342	-0.957124	-1.286352
0.270	6.140423	-4.596952	661.271842	-8.027811	6.315594	-0.532570	-0.955068	-1.213996
0.280	5.937785	-3.907544	660.203612	-7.448518	6.338327	-0.545870	-0.960056	-1.128215
0.290	5.592948	-3.175865	658.676936	-6.779630	6.404930	-0.559383	-0.972393	-1.029280
0.300	5.145710	-2.433956	656.789805	-6.027358	6.517320	-0.568845	-0.992299	-0.917700
0.310	4.646779	-1.717118	654.686291	-5.201044	6.677576	-0.570293	-1.019966	-0.794433
0.320	4.144948	-1.059585	652.559547	-4.314384	6.887865	-0.560668	-1.055515	-0.661148
0.330	3.674904	-0.489288	650.647823	-3.386050	7.149561	-0.538327	-1.098837	-0.520412
0.340	3.249902	-0.023173	649.217158	-2.438906	7.461721	-0.503522	-1.149341	-0.375669
0.350	2.861694	0.335508	648.527392	-1.497746	7.819505	-0.458659	-1.205732	-0.230946
0.360	2.487307	0.596990	648.786788	-0.586362	8.213216	-0.408032	-1.265934	-0.090378
0.370	2.100042	0.781859	650.109595	0.274934	8.628326	-0.356879	-1.327211	0.042290
0.380	1.681044	0.916072	652.492459	1.070647	9.046416	-0.310016	-1.386440	0.164086
0.390	1.228192	1.025780	655.817522	1.790286	9.446721	-0.270578	-1.440450	0.272985
0.400	0.759928	1.133204	659.877570	2.427900	9.807925	-0.239376	-1.486325	0.367932
0.410	0.312716	1.254098	664.409505	2.981447	10.109919	-0.215144	-1.521640	0.448736
0.420	-0.067745	1.397054	669.121959	3.452231	10.335390	-0.195536	-1.544620	0.515935
0.430	-0.339643	1.564732	673.710938	3.844281	10.471259	-0.178483	-1.554266	0.570613
0.440	-0.478624	1.756376	677.868168	4.163480	10.509933	-0.163341	-1.550439	0.614202
0.450	-0.486609	1.969981	681.292514	4.416437	10.450089	-0.151338	-1.533862	0.648244
0.460	-0.391088	2.202677	683.712301	4.609387	10.296503	-0.145147	-1.505970	0.674171
0.470	-0.233560	2.449203	684.918513	4.747550	10.058587	-0.147797	-1.468582	0.693155
0.480	-0.051191	2.699677	684.800638	4.835128	9.747851	-0.161417	-1.423458	0.706064
0.490	0.140039	2.938214	683.372286	4.875706	9.375211	-0.186331	-1.371904	0.713477
0.500	0.352847	3.143564	680.774602	4.872677	8.949319	-0.220803	-1.314579	0.715755
0.510	0.623794	3.292277	677.252297	4.829625	8.476639	-0.261445	-1.251622	0.713120
0.520	0.998929	3.363965	673.107549	4.751019	7.963094	-0.304034	-1.183034	0.705833
0.530	1.516101	3.347445	668.646460	4.643514	7.416242	-0.344490	-1.109142	0.694465
0.540	2.190242	3.246079	664.136106	4.517505	6.846795	-0.379778	-1.030933	0.680208
0.550	3.005970	3.080519	659.785228	4.387880	6.268747	-0.408594	-0.950119	0.665047
0.560	3.918903	2.887222	655.750129	4.273047	5.698162	-0.431640	-0.868953	0.651627
0.570	4.864163	2.711924	652.155203	4.192071	5.151303	-0.451332	-0.789889	0.642803
0.580	5.768604	2.598893	649.111086	4.160694	4.642930	-0.470882	-0.715275	0.640983
0.590	6.563074	2.578633	646.717060	4.187425	4.185420	-0.493044	-0.647179	0.647490
0.600	7.192172	2.657923	645.046004	4.271014	3.788770	-0.518990	-0.587364	0.662125
0.610	7.620474	2.816082	644.122599	4.400389	3.460986	-0.547848	-0.537318	0.683160
0.620	7.835202	3.009779	643.910857	4.557481	3.208203	-0.577172	-0.498237	0.707781
0.630	7.845472	3.185652	644.322041	4.722274	3.034343	-0.604161	-0.470936	0.732906
0.640	7.678204	3.296745	645.242302	4.878287	2.940529	-0.626985	-0.455725	0.756040
0.650	7.371235	3.316758	646.568066	5.016295	2.924598	-0.645543	-0.452326	0.775834
0.660	6.965269	3.246536	648.233203	5.134761	2.980803	-0.661326	-0.459835	0.792116
0.670	6.497310	3.110152	650.216704	5.237052	3.099678	-0.676549	-0.476715	0.805432
0.680	5.997986	2.942388	652.528837	5.327062	3.268144	-0.693050	-0.500843	0.816372
0.690	5.493235	2.773355	655.181394	5.405630	3.470063	-0.711517	-0.529634	0.825059
0.700	5.008070	2.617404	658.152010	5.469664	3.687473	-0.731382	-0.560277	0.831064
0.710	4.568663	2.471301	661.354937	5.514433	3.902473	-0.751405	-0.590072	0.833808
0.720	4.200208	2.322000	664.630282	5.537687	4.099392	-0.770594	-0.616793	0.833198
0.730	3.921393	2.159690	667.757870	5.543248	4.266549	-0.789007	-0.638937	0.830128
0.740	3.739003	1.989379	670.492093	5.542014	4.396959	-0.807995	-0.655781	0.826559
0.750	3.646249	1.835051	672.606391	5.549906	4.487811	-0.829756	-0.667227	0.825134
0.760	3.625968	1.734192	673.934658	5.583869	4.539077	-0.856326	-0.673519	0.828548
0.770	3.657128	1.725465	674.400065	5.657790	4.551935	-0.888498	-0.674961	0.838937
0.780	3.721799	1.835601	674.025784	5.779758	4.527606	-0.925180	-0.671726	0.857498
0.790	3.809927	2.071051	672.925825	5.951107	4.466932	-0.963563	-0.663807	0.884363
0.800	3.920451	2.416677	671.278776	6.166852	4.370580	-1.000037	-0.651083	0.918672
0.810	4.058851	2.840168	669.292053	6.416852	4.239503	-1.031407	-0.633431	0.958752
0.820	4.232746	3.299238	667.167102	6.687202	4.075211	-1.055851	-0.610823	1.002328
0.830	4.447975	3.748983	665.074561	6.961815	3.879717	-1.073200	-0.583351	1.046772
0.840	4.706973	4.148373	663.142766	7.224407	3.655331	-1.084588	-0.551213	1.089419
0.850	5.009447	4.466080	661.456225	7.460902	3.404640	-1.091817	-0.514719	1.127951
0.860	5.353475	4.685757	660.057786	7.661768	3.130904	-1.096784	-0.474338	1.160772
0.870	5.734788	4.809585	658.950735	7.823312	2.838901	-1.101089	-0.430821	1.187238
0.880	6.143663	4.858013	658.101814	7.947036	2.535910	-1.105711	-0.385337	1.207569
0.890	6.561254	4.864211	657.447920	8.036919	2.232364	-1.110666	-0.339550	1.222442
0.900	6.958482	4.863801	656.907310	8.095642	1.941813	-1.114703	-0.295599	1.232387
0.910	7.299401	4.882808	656.393372	8.121556	1.680194	-1.115189	-0.255974	1.237300
0.920	7.548348	4.928279	655.828850	8.107977	1.464548	-1.108384	-0.223312	1.236295
0.930	7.678127	4.985589	655.160535	8.045282	1.311264	-1.090228	-0.200144	1.227986
0.940	7.676230	5.023918	654.375590	7.925014	1.233846	-1.057630	-0.188553	1.211080
0.950	7.547464	5.007837	653.517808	7.744373	1.240373	-1.009938	-0.189799	1.185029
0.960	7.313177	4.910226	652.696531	7.509270	1.331230	-0.949971	-0.203959	1.150499
0.970	7.008318	4.721302	652.078180	7.234585	1.497918	-0.884039	-0.229714	1.109466
0.980	6.677029	4.450686	651.854814	6.941405	1.723689	-0.820730	-0.264428	1.064870
0.990	6.366211	4.122896	652.194452	6.652173	1.986226	-0.768755	-0.304545	1.019968
1.000	6.116334	3.769438	653.188482	6.385552	2.261812	-0.734583	-0.346272	0.977597
1.010	5.950860	3.421440	654.816105	6.152757	2.529859	-0.720712	-0.386346	0.939616
1.020	5.868354	3.105536	656.940847	5.956476	2.776508	-0.725186	-0.422642	0.906699
1.030	5.841913	2.843346	659.341226	5.792379	2.996308	-0.742446	-0.454440	0.878510
1.040	5.827851	2.652694	661.764060	5.652216	3.191559	-0.765115	-0.482281	0.854113
1.050	5.781080	2.547882	663.981933	5.527038	3.369526	-0.786075	-0.507473	0.832408
1.060	5.671299	2.537253	665.837149	5.409346	3.538349	-0.800158	-0.531414	0.812413
1.070	5.493882	2.618411	667.260233	5.293702	3.702866	-0.804988	-0.554936	0.793349
1.080	5.271938	2.773614	668.260127	5.176264	3.861620	-0.800830	-0.577862	0.774588
1.090	5.049536	2.968797	668.893721	5.054176	4.006031	-0.789757	-0.598904	0.755602
1.100	4.878787	3.158651	669.229297	4.925479	4.122092	-0.774574	-0.615946	0.735993
1.110	4.805049	3.297442	669.317907	4.789435	4.194177	-0.757933	-0.626635	0.715570
1.120	4.854690	3.351913	669.179863	4.646568	4.209878	-0.741762	-0.629110	0.694368
1.130	5.028628	3.310733	668.805509	4.497856	4.164450	-0.726940	-0.622670	0.672521
1.140	5.302733	3.185899	668.164627	4.343267	4.063470	-0.713138	-0.608154	0.650029
1.150	5.634217	3.005310	667.219071	4.180477	3.922823	-0.698900	-0.587936	0.626552
1.160	5.972031	2.800083	665.936623	4.004767	3.765909	-0.682092	-0.565506	0.601374
1.170	6.268784	2.592526	664.305995	3.810534	3.618916	-0.660665	-0.544766	0.573611
1.180	6.491435	2.389826	662.351047	3.593888	3.505618	-0.633525	-0.529269	0.542596
1.190	6.628041	2.185336	660.139277	3.354990	3.443180	-0.601207	-0.521584	0.508225
1.200	6.688773	1.965621	657.779833	3.098605	3.440060	-0.566100	-0.522980	0.471070
1.210	6.701212	1.719133	655.410030	2.832145	3.496383	-0.532040	-0.533465	0.432118
1.220	6.701434	1.442520	653.173418	2.561840	3.606620	-0.503246	-0.552169	0.392214
1.230	6.722718	1.142405	651.193866	2.288718	3.763915	-0.482823	-0.578002	0.351465
1.240	6.783132	0.832504	649.550142	2.006343	3.965163	-0.471367	-0.610448	0.308882
1.250	6.873675	0.527515	648.257637	1.701672	4.215577	-0.466336	-0.650293	0.262499
1.260	6.950695	0.236302	647.267484	1.359262	4.531116	-0.462708	-0.700038	0.210000
1.270	6.938212	-0.042460	646.492244	0.967750	4.937039	-0.454924	-0.763666	0.149692
1.280	6.744280	-0.319465	645.857461	0.526339	5.461797	-0.439460	-0.845666	0.081495
1.290	6.289626	-0.608221	645.363141	0.048525	6.127437	-0.417010	-0.949456	0.007519
1.300	5.539555	-0.915493	645.128266	-0.438994	6.939650	-0.393262	-1.075701	-0.068048
1.310	4.526350	-1.233848	645.393614	-0.902534	7.881296	-0.377678	-1.221161	-0.139842
1.320	3.351662	-1.540790	646.473356	-1.310825	8.912124	-0.380401	-1.378576	-0.202766
1.330	2.165365	-1.805403	648.665359	-1.644017	9.975178	-0.408254	-1.537800	-0.253446
1.340	1.125684	-1.999364	652.145719	-1.898584	11.008015	-0.461415	-1.687969	-0.291129
1.350	0.352538	-2.106992	656.881352	-2.086182	11.955322	-0.532304	-1.820012	-0.317589
1.360	-0.109957	-2.129848	662.593045	-2.227348	12.779126	-0.607396	-1.928654	-0.336156
1.370	-0.306836	-2.084643	668.786601	-2.343348	13.463724	-0.671343	-2.013157	-0.350388
1.380	-0.354046	-1.996930	674.843937	-2.449942	14.014405	-0.711733	-2.076688	-0.363038
1.390	-0.393954	-1.894887	680.141886	-2.555226	14.451197	-0.722527	-2.124733	-0.375690
1.400	-0.542483	-1.806258	684.158878	-2.661379	14.800405	-0.704967	-2.163299	-0.389000
1.410	-0.850300	-1.758323	686.542292	-2.768434	15.086953	-0.665947	-2.197527	-0.403243
1.420	-1.293429	-1.778164	687.131516	-2.877827	15.329636	-0.614939	-2.230961	-0.418817
1.430	-1.793933	-1.890192	685.948413	-2.994026	15.539789	-0.560951	-2.265446	-0.436480
1.440	-2.257624	-2.109995	683.170401	-3.123721	15.722591	-0.510645	-2.301416	-0.457239
1.450	-2.610132	-2.436593	679.095243	-3.273220	15.879659	-0.467875	-2.338355	-0.481997
1.460	-2.816854	-2.847142	674.100196	-3.445391	16.011683	-0.434177	-2.375268	-0.511110
1.470	-2.882591	-3.297636	668.597989	-3.637433	16.120286	-0.409524	-2.411058	-0.544039
1.480	-2.836754	-3.730376	662.996148	-3.840260	16.208791	-0.392935	-2.444779	-0.579228
1.490	-2.714876	-4.085672	657.667076	-4.039558	16.282054	-0.382965	-2.475729	-0.614225
1.500	-2.545700	-4.313502	652.930787	-4.218081	16.345850	-0.378327	-2.503458	-0.646023
1.510	-2.347839	-4.381723	649.045176	-4.358576	16.406456	-0.378688	-2.527783	-0.671537
1.520	-2.134816	-4.280025	646.196693	-4.446859	16.470902	-0.385275	-2.548899	-0.688159
1.530	-1.924345	-4.020867	644.488605	-4.474692	16.547890	-0.400808	-2.567600	-0.694301
1.540	-1.747036	-3.638696	643.931125	-4.441887	16.648767	-0.428577	-2.585489	-0.689808
1.550	-1.649835	-3.187120	644.442450	-4.356820	16.787485	-0.470941	-2.604963	-0.676060
1.560	-1.690303	-2.732532	645.868447	-4.234718	16.978623	-0.527910	-2.628805	-0.655663
1.570	-1.920255	-2.343292	648.020207	-4.093986	17.233302	-0.596313	-2.659377	-0.631768
1.580	-2.362318	-2.075844	650.716947	-3.951803	17.554080	-0.669869	-2.697652	-0.607300
1.590	-2.989192	-1.961548	653.815068	-3.820527	17.930932	-0.740158	-2.742508	-0.584344
1.600	-3.718190	-1.998946	657.209736	-3.705817	18.340526	-0.798289	-2.790666	-0.563871
1.610	-4.428625	-2.154760	660.811480	-3.606409	18.749697	-0.836883	-2.837375	-0.545755
1.620	-4.997594	-2.373505	664.514889	-3.514712	19.121904	-0.851920	-2.877573	-0.528914
1.630	-5.338166	-2.591848	668.178549	-3.417461	19.423968	-0.844025	-2.907003	-0.511459
1.640	-5.421368	-2.752112	671.625086	-3.296372	19.630623	-0.818768	-2.922854	-0.490805
1.650	-5.272270	-2.810316	674.657199	-3.129451	19.726083	-0.785679	-2.923868	-0.463858
1.660	-4.945316	-2.737212	677.079688	-2.893680	19.703486	-0.755989	-2.910069	-0.427377
1.670	-4.495135	-2.514221	678.720786	-2.569052	19.563677	-0.739644	-2.882434	-0.378514
1.680	-3.959186	-2.128396	679.452772	-2.143064	19.314140	-0.742597	-2.842602	-0.315410
1.690	-3.358308	-1.570803	679.213536	-1.614360	18.967918	-0.765410	-2.792630	-0.237681
1.700	-2.708659	-0.840885	678.025490	-0.994494	18.541982	-0.803689	-2.734703	-0.146675
1.710	-2.032695	0.043845	676.002179	-0.307402	18.054816	-0.850005	-2.670822	-0.045474
1.720	-1.360694	1.037017	673.333798	0.413310	17.523781	-0.896298	-2.602540	0.061383
1.730	-0.723211	2.058311	670.252065	1.128876	16.963244	-0.935745	-2.530875	0.168426
1.740	-0.141571	3.000448	666.986413	1.801119	16.384265	-0.963551	-2.456462	0.270038
1.750	0.376166	3.750275	663.728825	2.398597	15.795841	-0.976839	-2.379864	0.361382
1.760	0.831495	4.218848	660.619578	2.901938	15.206922	-0.974253	-2.301918	0.439275
1.770	1.227868	4.369583	657.754840	3.306898	14.627978	-0.955786	-2.223925	0.502755
1.780	1.565469	4.232795	655.207486	3.624060	14.071144	-0.922937	-2.147586	0.553116
1.790	1.842177	3.900131	653.048903	3.875117	13.548685	-0.878897	-2.074682	0.593388
1.800	2.059494	3.500585	651.360942	4.086861	13.070453	-0.828356	-2.006637	0.627434
1.810	2.228595	3.166515	650.231966	4.284566	12.641537	-0.776839	-1.944158	0.658929
1.820	2.371509	3.000664	649.738220	4.486303	12.261236	-0.729744	-1.887104	0.690479
1.830	2.515361	3.053502	649.918993	4.699174	11.923829	-0.691428	-1.834664	0.723040
1.840	2.681788	3.316002	650.757347	4.918017	11.620821	-0.664535	-1.785738	0.755738
1.850	2.876946	3.727925	652.175682	5.126839	11.343598	-0.649642	-1.739347	0.786113
1.860	3.088063	4.197481	654.048251	5.302790	11.085303	-0.645218	-1.694875	0.810764
1.870	3.289436	4.625891	656.224508	5.421908	10.841260	-0.647906	-1.652066	0.826228
1.880	3.455538	4.930321	658.552001	5.465244	10.608194	-0.653150	-1.610836	0.829888
1.890	3.574503	5.060210	660.889201	5.423841	10.383093	-0.656206	-1.571079	0.820688
1.900	3.654544	5.004201	663.106694	5.301299	10.162522	-0.653381	-1.532562	0.799464
1.910	3.719900	4.787226	665.083363	5.113276	9.942739	-0.643152	-1.494961	0.768817
1.920	3.799342	4.459621	666.705863	4.884037	9.720445	-0.626656	-1.457981	0.732563
1.930	3.914533	4.082224	667.874889	4.641089	9.493732	-0.607236	-1.421484	0.694904
1.940	4.074229	3.712069	668.515540	4.409494	9.262782	-0.589109	-1.385575	0.659595
1.950	4.275105	3.392207	668.586239	4.207420	9.030035	-0.575751	-1.350616	0.629301
1.960	4.505776	3.147055	668.082790	4.043797	8.799797	-0.568769	-1.317172	0.605284
1.970	4.750602	2.982856	667.038979	3.918286	8.577444	-0.567754	-1.285898	0.587415
1.980	4.992666	2.891817	665.527446	3.823159	8.368340	-0.571047	-1.257400	0.574455
1.990	5.217172	2.858127	663.661173	3.746314	8.176602	-0.576881	-1.232045	0.564492
2.000	5.415586	2.864037	661.590152	3.674420	8.004072	-0.584224	-1.209823	0.555392
2.010	5.588483	2.894352	659.486215	3.595225	7.850127	-0.592929	-1.190340	0.545155
2.020	5.744057	2.937939	657.514738	3.498566	7.712932	-0.603181	-1.173043	0.532089
2.030	5.891066	2.985642	655.801162	3.376172	7.592021	-0.614665	-1.157671	0.514816
2.040	6.028771	3.025456	654.405866	3.220813	7.491141	-0.626012	-1.144724	0.492174
2.050	6.139451	3.037506	653.318631	3.025552	7.419924	-0.634880	-1.135728	0.463105
2.060	6.188828	2.991927	652.476021	2.783748	7.393409	-0.638651	-1.133131	0.426644
2.070	6.135740	2.851585	651.796556	2.489891	7.429267	-0.635321	-1.139814	0.382004
2.080	5.947457	2.579342	651.223108	2.140900	7.543358	-0.624142	-1.158337	0.328751
2.090	5.614171	2.147763	650.759712	1.737299	7.744830	-0.605832	-1.190121	0.266965
2.100	5.156713	1.548573	650.490464	1.283981	8.032319	-0.582453	-1.234810	0.197387
2.110	4.624359	0.799674	650.571083	0.790572	8.392612	-0.557188	-1.290038	0.121520
2.120	4.083084	-0.051801	651.190350	0.271583	8.802369	-0.534113	-1.351735	0.041706
2.130	3.597769	-0.931685	652.509757	-0.253783	9.232475	-0.517883	-1.414918	-0.038893
2.140	3.214098	-1.747345	654.601439	-0.762568	9.653585	-0.513196	-1.474727	-0.116493
2.150	2.946471	-2.402707	657.408868	-1.230199	10.041002	-0.523996	-1.527360	-0.187129
2.160	2.776396	-2.817702	660.746869	-1.633761	10.377371	-0.552532	-1.570552	-0.247260
2.170	2.662104	-2.947512	664.340315	-1.955731	10.652753	-0.598533	-1.603508	-0.294387
2.180	2.555886	-2.795543	667.884040	-2.187130	10.862838	-0.658844	-1.626456	-0.327471
2.190	2.422560	-2.414967	671.099644	-2.329162	11.006613	-0.727719	-1.640086	-0.347067
2.200	2.251779	-1.897169	673.770719	-2.392935	11.084525	-0.797739	-1.645148	-0.355156
2.210	2.059485	-1.350163	675.750958	-2.397405	11.097541	-0.861036	-1.642253	-0.354776
2.220	1.878928	-0.873647	676.951439	-2.366174	11.047100	-0.910512	-1.631890	-0.349534
2.230	1.746362	-0.538441	677.319481	-2.323908	10.935846	-0.940798	-1.614577	-0.343104
2.240	1.688041	-0.375984	676.822098	-2.292964	10.768873	-0.948872	-1.591094	-0.338784
2.250	1.713268	-0.379755	675.444063	-2.290635	10.554892	-0.934318	-1.562660	-0.339130
2.260	1.814985	-0.516720	673.204251	-2.327387	10.306579	-0.899282	-1.530974	-0.345718
2.270	1.976612	-0.744242	670.184124	-2.406475	10.039563	-0.848212	-1.498031	-0.359077
2.280	2.181849	-1.026391	666.552465	-2.525013	9.770115	-0.787389	-1.465768	-0.378817
2.290	2.423042	-1.343634	662.567471	-2.675951	9.512333	-0.724209	-1.435678	-0.403876
2.300	2.703895	-1.692428	658.545545	-2.850070	9.276110	-0.666160	-1.408575	-0.432783
2.310	3.034311	-2.075683	654.803283	-3.037257	9.066984	-0.619610	-1.384688	-0.463843
2.320	3.418919	-2.489269	651.595391	-3.226864	8.887932	-0.588731	-1.364026	-0.495225
2.330	3.844597	-2.911537	649.074966	-3.407571	8.741990	-0.574937	-1.346838	-0.524989
2.340	4.273661	-3.301432	647.290939	-3.567381	8.634142	-0.577017	-1.333889	-0.551125
2.350	4.647189	-3.606960	646.218878	-3.694384	8.571433	-0.591829	-1.326398	-0.571692
2.360	4.898419	-3.780834	645.807065	-3.778462	8.561285	-0.615236	-1.325672	-0.585076
2.370	4.971544	-3.796413	646.015720	-3.813476	8.608904	-0.642913	-1.332615	-0.590307
