Time[s]	Fx[N]	Fy[N]	Fz[N]	Mx[Nm]	My[Nm]	Mz[Nm]	COPx[cm]	COPy[cm]
0.010	3.271768	1.132477	502.302729	-0.188024	-2.962717	-0.117070	0.589827	-0.037432
0.020	3.208308	0.994440	502.454864	-0.254112	-2.941716	-0.129955	0.585469	-0.050574
0.030	3.143847	0.875502	502.623710	-0.322730	-2.926714	-0.142837	0.582287	-0.064209
0.040	3.080323	0.787732	502.806805	-0.395713	-2.924426	-0.155180	0.581620	-0.078701
0.050	3.025466	0.732912	502.972191	-0.474333	-2.942361	-0.165701	0.584995	-0.094306
0.060	2.992157	0.703826	503.062674	-0.559716	-2.987679	-0.172573	0.593898	-0.111262
0.070	2.995239	0.688310	503.016193	-0.653308	-3.065201	-0.173940	0.609364	-0.129878
0.080	3.047306	0.673469	502.795729	-0.756917	-3.175465	-0.168442	0.631562	-0.150542
0.090	3.155528	0.648398	502.414743	-0.872232	-3.313857	-0.155567	0.659586	-0.173608
0.100	3.320655	0.605067	501.943400	-1.000070	-3.471375	-0.135746	0.691587	-0.199240
0.110	3.537676	0.538017	501.489147	-1.139817	-3.636832	-0.110283	0.725206	-0.227286
0.120	3.796642	0.443811	501.158376	-1.289428	-3.799653	-0.081214	0.758174	-0.257290
0.130	4.082740	0.321137	501.016047	-1.445994	-3.952238	-0.051057	0.788845	-0.288612
0.140	4.376149	0.171753	501.061843	-1.606536	-4.091055	-0.022374	0.816477	-0.320626
0.150	4.653090	0.001510	501.234284	-1.768543	-4.216214	0.002815	0.841166	-0.352838
0.160	4.889063	-0.179755	501.441955	-1.929941	-4.329954	0.023462	0.863501	-0.384878
0.170	5.063966	-0.360011	501.608266	-2.088635	-4.434842	0.039496	0.884125	-0.416388
0.180	5.167656	-0.527901	501.708579	-2.242174	-4.532587	0.051363	0.903430	-0.446908
0.190	5.204025	-0.675399	501.780595	-2.388043	-4.623995	0.059457	0.921517	-0.475914
0.200	5.191795	-0.799259	501.901044	-2.524533	-4.709938	0.063829	0.938420	-0.502994
0.210	5.160961	-0.900847	502.138794	-2.651625	-4.792527	0.064329	0.954423	-0.528066
0.220	5.145321	-0.984664	502.507744	-2.771190	-4.875437	0.061017	0.970221	-0.551472
0.230	5.173300	-1.056461	502.944594	-2.886378	-4.962814	0.054501	0.986752	-0.573896
0.240	5.260330	-1.121906	503.324731	-3.000695	-5.057120	0.045988	1.004743	-0.596175
0.250	5.405397	-1.186041	503.510125	-3.117327	-5.156980	0.037055	1.024206	-0.619119
0.260	5.592519	-1.252935	503.407408	-3.238794	-5.256195	0.029270	1.044124	-0.643374
0.270	5.795946	-1.324989	503.010294	-3.366547	-5.344520	0.023812	1.062507	-0.669280
0.280	5.986771	-1.402138	502.408333	-3.500220	-5.410004	0.021180	1.076814	-0.696688
0.290	6.138862	-1.481758	501.758254	-3.636811	-5.442042	0.021017	1.084594	-0.724813
0.300	6.233124	-1.559715	501.229162	-3.770527	-5.434025	0.022086	1.084140	-0.752256
0.310	6.259999	-1.631961	500.943534	-3.893757	-5.384725	0.022417	1.074917	-0.777285
0.320	6.220148	-1.695469	500.937817	-3.999059	-5.298084	0.019643	1.057633	-0.798314
0.330	6.122988	-1.747801	501.158007	-4.081341	-5.181743	0.011519	1.033954	-0.814382
0.340	5.983065	-1.785875	501.490181	-4.139316	-5.044997	-0.003411	1.006001	-0.825403
0.350	5.815202	-1.805342	501.810947	-4.175710	-4.896947	-0.025179	0.975855	-0.832128
0.360	5.630253	-1.801633	502.034962	-4.196307	-4.745311	-0.052031	0.945215	-0.835860
0.370	5.433272	-1.772601	502.139529	-4.208304	-4.596040	-0.080563	0.915291	-0.838075
0.380	5.224857	-1.721362	502.158271	-4.218474	-4.453530	-0.106362	0.886878	-0.840069
0.390	5.004886	-1.657438	502.151128	-4.231675	-4.321059	-0.124997	0.860510	-0.842709
0.400	4.776799	-1.595002	502.168467	-4.250020	-4.201193	-0.133102	0.836610	-0.846334
0.410	4.550470	-1.548431	502.227504	-4.272837	-4.096030	-0.129231	0.815573	-0.850777
0.420	4.342307	-1.526874	502.310157	-4.297255	-4.007225	-0.114173	0.797759	-0.855498
0.430	4.172263	-1.530397	502.379172	-4.319285	-3.935761	-0.090612	0.783424	-0.859766
0.440	4.058670	-1.549864	502.400927	-4.335214	-3.881570	-0.062260	0.772604	-0.862899
0.450	4.012782	-1.570814	502.362224	-4.342995	-3.843282	-0.032825	0.765042	-0.864515
0.460	4.035018	-1.579311	502.273612	-4.343103	-3.818345	-0.005148	0.760212	-0.864689
0.470	4.114225	-1.566937	502.159973	-4.338377	-3.803492	0.019300	0.757426	-0.863943
0.480	4.230198	-1.532985	502.045901	-4.332868	-3.795186	0.040481	0.755944	-0.863042
0.490	4.358718	-1.483582	501.945150	-4.330270	-3.789753	0.059423	0.755013	-0.862698
0.500	4.477535	-1.428684	501.859342	-4.332756	-3.783250	0.077579	0.753847	-0.863341
0.510	4.571317	-1.378402	501.784430	-4.340643	-3.771414	0.096152	0.751600	-0.865041
0.520	4.633880	-1.340145	501.719266	-4.352819	-3.749937	0.115600	0.747417	-0.867581
0.530	4.667032	-1.317463	501.671380	-4.367544	-3.714930	0.135486	0.740511	-0.870599
0.540	4.676860	-1.310694	501.658273	-4.383301	-3.663238	0.154632	0.730226	-0.873762
0.550	4.669390	-1.318618	501.704235	-4.399471	-3.592417	0.171474	0.716043	-0.876905
0.560	4.647588	-1.339968	501.832753	-4.416631	-3.500570	0.184526	0.697557	-0.880100
0.570	4.610721	-1.373801	502.055388	-4.436319	-3.386352	0.192849	0.674498	-0.883631
0.580	4.555787	-1.418589	502.360406	-4.460330	-3.249299	0.196418	0.646806	-0.887875
0.590	4.479828	-1.470822	502.705987	-4.489871	-3.090272	0.196212	0.614728	-0.893141
0.600	4.381758	-1.524283	503.021880	-4.525008	-2.911672	0.193950	0.578836	-0.899565
0.610	4.262694	-1.570770	503.221242	-4.564734	-2.717203	0.191482	0.539962	-0.907103
0.620	4.124552	-1.602251	503.222306	-4.607626	-2.511119	0.190084	0.499008	-0.915624
0.630	3.967622	-1.613753	502.976218	-4.652671	-2.297122	0.189940	0.456706	-0.925028
0.640	3.788914	-1.605740	502.492257	-4.699682	-2.077293	0.190070	0.413398	-0.935275
0.650	3.583086	-1.584716	501.848358	-4.748979	-1.851613	0.188660	0.368959	-0.946298
0.660	3.346239	-1.561488	501.178158	-4.800559	-1.618564	0.183586	0.322952	-0.957855
0.670	3.080707	-1.547686	500.635654	-4.853332	-1.376829	0.172953	0.275016	-0.969434
0.680	2.797918	-1.551953	500.349708	-4.904940	-1.127520	0.155536	0.225346	-0.980302
0.690	2.517382	-1.577278	500.385995	-4.952324	-0.875971	0.131133	0.175059	-0.989701
0.700	2.262052	-1.620324	500.730434	-4.992694	-0.632206	0.100805	0.126257	-0.997082
0.710	2.052266	-1.672690	501.297823	-5.024305	-0.409663	0.066920	0.081720	-1.002259
0.720	1.900962	-1.723375	501.959089	-5.046573	-0.222424	0.032849	0.044311	-1.005375
0.730	1.811809	-1.761524	502.575614	-5.059654	-0.081784	0.002187	0.016273	-1.006745
0.740	1.780360	-1.778793	503.030432	-5.063918	0.006788	-0.022338	-0.001349	-1.006682
0.750	1.797030	-1.770863	503.250406	-5.059619	0.045319	-0.039885	-0.009005	-1.005388
0.760	1.850234	-1.737826	503.216938	-5.046706	0.043109	-0.051878	-0.008567	-1.002889
0.770	1.928447	-1.683553	502.964641	-5.024649	0.014712	-0.061512	-0.002925	-0.999006
0.780	2.021001	-1.614433	502.569116	-4.992515	-0.023234	-0.072538	0.004623	-0.993399
0.790	2.118274	-1.537942	502.127030	-4.949529	-0.055339	-0.087837	0.011021	-0.985713
0.800	2.211981	-1.461325	501.733048	-4.896137	-0.070011	-0.108339	0.013954	-0.975845
0.810	2.295685	-1.390548	501.458858	-4.835074	-0.060718	-0.132698	0.012108	-0.964202
0.820	2.365028	-1.329617	501.339688	-4.771667	-0.025968	-0.157838	0.005180	-0.951783
0.830	2.417201	-1.280281	501.372049	-4.712800	0.031670	-0.180171	-0.006317	-0.939981
0.840	2.449901	-1.242130	501.522227	-4.664661	0.107143	-0.196954	-0.021363	-0.930101
0.850	2.460680	-1.213150	501.740591	-4.630274	0.194733	-0.207233	-0.038811	-0.922842
0.860	2.447473	-1.190720	501.975254	-4.608110	0.289694	-0.211947	-0.057711	-0.917995
0.870	2.410081	-1.172653	502.181070	-4.592593	0.389300	-0.213238	-0.077522	-0.914529
0.880	2.351529	-1.157695	502.323783	-4.576279	0.493104	-0.213396	-0.098165	-0.911022
0.890	2.278115	-1.145193	502.381299	-4.552728	0.602460	-0.214027	-0.119921	-0.906230
0.900	2.197765	-1.134460	502.344009	-4.518881	0.719498	-0.215826	-0.143228	-0.899559
0.910	2.117395	-1.124595	502.215398	-4.476191	0.845772	-0.218884	-0.168408	-0.891289
0.920	2.040617	-1.115023	502.013556	-4.430199	0.980910	-0.223180	-0.195395	-0.882486
0.930	1.966928	-1.106312	501.773103	-4.388777	1.121596	-0.228883	-0.223527	-0.874654
0.940	1.892749	-1.100692	501.544988	-4.359655	1.261151	-0.236299	-0.251453	-0.869245
0.950	1.813997	-1.101903	501.390368	-4.348101	1.389830	-0.245532	-0.277195	-0.867209
0.960	1.729542	-1.114163	501.366780	-4.355550	1.495857	-0.256128	-0.298356	-0.868735
0.970	1.644513	-1.140414	501.509953	-4.379545	1.567069	-0.266985	-0.312470	-0.873272
0.980	1.571922	-1.180608	501.818879	-4.414780	1.592905	-0.276590	-0.317426	-0.879756
0.990	1.531139	-1.230969	502.251408	-4.454683	1.566354	-0.283417	-0.311867	-0.886943
1.000	1.542838	-1.284721	502.732802	-4.492960	1.485441	-0.286273	-0.295473	-0.893707
1.010	1.621908	-1.333928	503.174034	-4.524818	1.353828	-0.284462	-0.269058	-0.899255
1.020	1.771331	-1.371549	503.493429	-4.547753	1.180228	-0.277805	-0.234408	-0.903240
1.030	1.980154	-1.392965	503.635072	-4.561890	0.976617	-0.266612	-0.193914	-0.905793
1.040	2.226929	-1.396795	503.579305	-4.569748	0.755761	-0.251651	-0.150078	-0.907453
1.050	2.487129	-1.385286	503.343460	-4.575355	0.529031	-0.234056	-0.105103	-0.908993
1.060	2.740754	-1.364346	502.974190	-4.582811	0.305398	-0.215090	-0.060718	-0.911142
1.070	2.976381	-1.342846	502.535597	-4.594708	0.091761	-0.195826	-0.018260	-0.914305
1.080	3.190292	-1.330779	502.098258	-4.611003	-0.106069	-0.176885	0.021125	-0.918347
1.090	3.382318	-1.336589	501.731870	-4.628860	-0.282674	-0.158400	0.056340	-0.922577
1.100	3.551466	-1.364742	501.499893	-4.643627	-0.433237	-0.140222	0.086388	-0.925948
1.110	3.693803	-1.414714	501.451782	-4.650658	-0.554577	-0.122252	0.110594	-0.927439
1.120	3.803272	-1.481832	501.610520	-4.647279	-0.646380	-0.104691	0.128861	-0.926472
1.130	3.874585	-1.559267	501.959171	-4.633980	-0.711790	-0.088113	0.141802	-0.923179
1.140	3.906548	-1.639781	502.434702	-4.614148	-0.756843	-0.073360	0.150635	-0.918358
1.150	3.904205	-1.716198	502.935405	-4.592431	-0.788826	-0.061352	0.156844	-0.913125
1.160	3.878672	-1.780812	503.341354	-4.572536	-0.814247	-0.052928	0.161768	-0.908436
1.170	3.844519	-1.824957	503.541771	-4.555577	-0.837311	-0.048788	0.166284	-0.904707
1.180	3.815801	-1.839930	503.462057	-4.539645	-0.859391	-0.049470	0.170696	-0.901686
1.190	3.802377	-1.819413	503.084390	-4.520632	-0.879359	-0.055252	0.174793	-0.898583
1.200	3.807661	-1.762330	502.456807	-4.493798	-0.894287	-0.065874	0.177983	-0.894365
1.210	3.827949	-1.674476	501.687245	-4.455391	-0.900070	-0.080209	0.179409	-0.888081
1.220	3.853129	-1.567801	500.922084	-4.403777	-0.891874	-0.096144	0.178047	-0.879134
1.230	3.868687	-1.457397	500.312970	-4.339765	-0.864621	-0.110868	0.172816	-0.867410
1.240	3.858837	-1.357447	499.980104	-4.266083	-0.813776	-0.121556	0.162762	-0.853251
1.250	3.810280	-1.277835	499.982608	-4.186166	-0.736524	-0.126157	0.147310	-0.837262
1.260	3.715860	-1.222765	500.305091	-4.102739	-0.633079	-0.123922	0.126538	-0.820047
1.270	3.577436	-1.191678	500.863858	-4.016846	-0.507622	-0.115444	0.101349	-0.801984
1.280	3.407207	-1.181416	501.529409	-3.927820	-0.368331	-0.102231	0.073442	-0.783168
1.290	3.226702	-1.187923	502.157568	-3.834201	-0.226189	-0.086088	0.045043	-0.763545
1.300	3.062808	-1.206439	502.621083	-3.735103	-0.092723	-0.068604	0.018448	-0.743125
1.310	2.941203	-1.230650	502.835504	-3.631285	0.022687	-0.050929	-0.004512	-0.722162
1.320	2.878947	-1.252271	502.774937	-3.525415	0.115049	-0.033815	-0.022883	-0.701192
1.330	2.878879	-1.262272	502.474764	-3.421466	0.184827	-0.017758	-0.036783	-0.680923
1.340	2.927925	-1.253737	502.020531	-3.323508	0.237564	-0.003090	-0.047321	-0.662026
1.350	2.999839	-1.225100	501.525659	-3.234282	0.282200	0.010035	-0.056268	-0.644889
1.360	3.061390	-1.181916	501.104216	-3.154016	0.328603	0.021646	-0.065576	-0.629413
1.370	3.080293	-1.135663	500.846878	-3.080009	0.385013	0.031863	-0.076872	-0.614960
1.380	3.033227	-1.099397	500.806097	-3.007285	0.456028	0.040691	-0.091059	-0.600489
1.390	2.912493	-1.081785	500.990835	-2.930123	0.541516	0.047780	-0.108089	-0.584866
1.400	2.729711	-1.082216	501.366651	-2.843784	0.636491	0.052277	-0.126951	-0.567206
1.410	2.514935	-1.089636	501.858302	-2.745632	0.731907	0.052896	-0.145839	-0.547093
1.420	2.310289	-1.085956	502.357626	-2.635303	0.816292	0.048222	-0.162492	-0.524587
1.430	2.159076	-1.052489	502.741989	-2.514148	0.878095	0.037202	-0.174661	-0.500087
1.440	2.093286	-0.976504	502.904042	-2.384538	0.908391	0.019648	-0.180629	-0.474154
1.450	2.123607	-0.855351	502.785226	-2.249509	0.903311	-0.003437	-0.179661	-0.447409
1.460	2.235625	-0.697079	502.400089	-2.112843	0.865365	-0.029873	-0.172246	-0.420550
1.470	2.393998	-0.517954	501.839639	-1.979272	0.803051	-0.056748	-0.160021	-0.394403
1.480	2.553497	-0.338166	501.249413	-1.854381	0.728755	-0.081146	-0.145388	-0.369952
1.490	2.673007	-0.177233	500.788403	-1.743975	0.655609	-0.100831	-0.130915	-0.348246
1.500	2.727210	-0.050250	500.583157	-1.652968	0.594332	-0.114646	-0.118728	-0.330208
1.510	2.711762	0.034524	500.692806	-1.584089	0.551001	-0.122530	-0.110048	-0.316379
1.520	2.640919	0.076786	501.095434	-1.536852	0.526278	-0.125263	-0.105025	-0.306698
1.530	2.539900	0.084028	501.698177	-1.507183	0.516125	-0.124034	-0.102876	-0.300416
1.540	2.435887	0.069831	502.366213	-1.487956	0.513626	-0.120026	-0.102241	-0.296189
1.550	2.350946	0.050576	502.960789	-1.470378	0.511336	-0.114171	-0.101665	-0.292345
1.560	2.298416	0.041317	503.374455	-1.445952	0.503463	-0.107177	-0.100018	-0.287252
1.570	2.282786	0.052243	503.553374	-1.408514	0.487159	-0.099720	-0.096744	-0.279715
1.580	2.302121	0.086950	503.501428	-1.355728	0.462476	-0.092608	-0.091852	-0.269260
1.590	2.351547	0.142931	503.267340	-1.289493	0.431143	-0.086799	-0.085669	-0.256224
1.600	2.426244	0.213767	502.921496	-1.215067	0.395001	-0.083234	-0.078541	-0.241602
1.610	2.522774	0.291981	502.531892	-1.139204	0.355130	-0.082568	-0.070668	-0.226693
1.620	2.638357	0.371312	502.147919	-1.067966	0.312253	-0.084947	-0.062184	-0.212680
1.630	2.768559	0.447457	501.796934	-1.005035	0.268152	-0.089998	-0.053438	-0.200287
1.640	2.904700	0.517123	501.492261	-0.951108	0.227071	-0.097012	-0.045279	-0.189656
1.650	3.032591	0.576305	501.245415	-0.904491	0.196046	-0.105198	-0.039112	-0.180449
1.660	3.133725	0.619151	501.073678	-0.862463	0.183652	-0.113830	-0.036652	-0.172123
1.670	3.188720	0.638395	500.997895	-0.822773	0.197528	-0.122302	-0.039427	-0.164227
1.680	3.181787	0.627395	501.032011	-0.784559	0.241644	-0.130172	-0.048229	-0.156589
1.690	3.104784	0.582931	501.170876	-0.748286	0.314365	-0.137248	-0.062726	-0.149308
1.700	2.959859	0.507534	501.383565	-0.714815	0.407924	-0.143682	-0.081360	-0.142569
1.710	2.760140	0.410241	501.616268	-0.684262	0.509420	-0.149976	-0.101556	-0.136411
1.720	2.528222	0.305293	501.804434	-0.655348	0.602987	-0.156849	-0.120164	-0.130598
1.730	2.292603	0.209020	501.890712	-0.625582	0.672607	-0.164995	-0.134015	-0.124645
1.740	2.082648	0.135867	501.843752	-0.592118	0.704938	-0.174832	-0.140470	-0.117989
1.750	1.923198	0.094853	501.672218	-0.552860	0.691487	-0.186317	-0.137836	-0.110204
1.760	1.830183	0.087635	501.428154	-0.507271	0.629497	-0.198851	-0.125541	-0.101165
1.770	1.808535	0.108764	501.195680	-0.456472	0.521233	-0.211257	-0.103998	-0.091077
1.780	1.852975	0.148003	501.066631	-0.402563	0.372046	-0.221872	-0.074251	-0.080341
1.790	1.951360	0.193882	501.111896	-0.347543	0.188090	-0.228812	-0.037535	-0.069354
1.800	2.089307	0.237325	501.360142	-0.292348	-0.025384	-0.230399	0.005063	-0.058311
1.810	2.254502	0.274188	501.791454	-0.236428	-0.264607	-0.225582	0.052733	-0.047117
1.820	2.439396	0.306074	502.345631	-0.177883	-0.526789	-0.214156	0.104866	-0.035410
1.830	2.641787	0.339401	502.939343	-0.113951	-0.809045	-0.196682	0.160863	-0.022657
1.840	2.863606	0.383283	503.485114	-0.041621	-1.107500	-0.174267	0.219967	-0.008267
1.850	3.108602	0.446912	503.906727	0.041675	-1.417094	-0.148426	0.281222	0.008270
1.860	3.379508	0.536912	504.148658	0.137204	-1.732072	-0.121068	0.343564	0.027215
1.870	3.675189	0.654891	504.180544	0.243967	-2.046596	-0.094453	0.405925	0.048389
1.880	3.988403	0.795534	503.999558	0.357944	-2.354901	-0.070894	0.467243	0.071021
1.890	4.305047	0.945891	503.632073	0.471933	-2.650887	-0.052182	0.526354	0.093706
1.900	4.605665	1.086433	503.132721	0.576075	-2.927698	-0.038959	0.581894	0.114498
1.910	4.869441	1.194013	502.577876	0.658960	-3.178000	-0.030387	0.632340	0.131116
1.920	5.079873	1.246277	502.052759	0.709394	-3.395332	-0.024313	0.676290	0.141299
1.930	5.230281	1.226726	501.634802	0.718884	-3.576119	-0.017893	0.712893	0.143308
1.940	5.326777	1.129402	501.378073	0.684481	-3.721361	-0.008475	0.742226	0.136520
1.950	5.387003	0.961922	501.303462	0.610896	-3.837047	0.005557	0.765414	0.121861
1.960	5.434772	0.745678	501.397067	0.510637	-3.932954	0.024207	0.784399	0.101843
1.970	5.492854	0.512578	501.616345	0.401482	-4.020210	0.045727	0.801451	0.080038
1.980	5.576895	0.298786	501.901466	0.301782	-4.108518	0.066954	0.818590	0.060128
1.990	5.692429	0.136912	502.188760	0.225203	-4.203933	0.084065	0.837122	0.044844
2.000	5.835110	0.048747	502.423653	0.177070	-4.307868	0.093549	0.857417	0.035243
2.010	5.993186	0.040683	502.570964	0.153915	-4.417388	0.093131	0.878958	0.030626
2.020	6.150938	0.103380	502.620203	0.146349	-4.526358	0.082424	0.900552	0.029117
2.030	6.292116	0.215801	502.583450	0.143688	-4.626785	0.063161	0.920600	0.028590
2.040	6.402928	0.351985	502.485774	0.137997	-4.709966	0.038925	0.937333	0.027463
2.050	6.474409	0.487635	502.352771	0.125884	-4.767484	0.014371	0.949031	0.025059
2.060	6.503730	0.603879	502.202289	0.107850	-4.792296	-0.005930	0.954256	0.021475
2.070	6.493801	0.687517	502.044781	0.086258	-4.780013	-0.018713	0.952109	0.017181
2.080	6.451022	0.729389	501.890643	0.063345	-4.730078	-0.022873	0.942452	0.012621
2.090	6.382261	0.723457	501.758074	0.040236	-4.646313	-0.019643	0.926007	0.008019
2.100	6.292805	0.668215	501.674255	0.017052	-4.536527	-0.012066	0.904277	0.003399
2.110	6.186391	0.569816	501.666754	-0.006599	-4.411298	-0.003991	0.879328	-0.001315
2.120	6.066939	0.444352	501.749325	-0.031562	-4.282278	0.001067	0.853470	-0.006290
2.130	5.940334	0.316436	501.911461	-0.059726	-4.160291	0.000883	0.828889	-0.011900
2.140	5.814467	0.213026	502.119121	-0.094695	-4.053373	-0.004987	0.807253	-0.018859
2.150	5.696955	0.154327	502.326520	-0.141682	-3.965001	-0.015302	0.789327	-0.028205
2.160	5.591642	0.145807	502.492141	-0.206162	-3.893031	-0.027741	0.774745	-0.041028
2.170	5.496041	0.175361	502.590538	-0.291690	-3.829914	-0.039777	0.762035	-0.058037
2.180	5.401463	0.217330	502.615057	-0.397894	-3.764459	-0.049473	0.748974	-0.079165
2.190	5.295992	0.241790	502.572508	-0.519694	-3.684780	-0.055939	0.733184	-0.103407
2.200	5.168698	0.225101	502.475458	-0.648187	-3.581440	-0.059372	0.712759	-0.128999
2.210	5.013038	0.157573	502.338329	-0.772888	-3.449609	-0.060734	0.686710	-0.153858
2.220	4.828362	0.045831	502.179585	-0.884391	-3.289531	-0.061286	0.655051	-0.176110
2.230	4.619731	-0.090177	502.026886	-0.976440	-3.105310	-0.062226	0.618555	-0.194499
2.240	4.396717	-0.223857	501.919011	-1.046773	-2.902760	-0.064534	0.578332	-0.208554
2.250	4.171606	-0.329973	501.899573	-1.096802	-2.687432	-0.068970	0.535452	-0.218530
2.260	3.957218	-0.391796	502.002251	-1.130669	-2.463803	-0.076043	0.490795	-0.225232
2.270	3.764693	-0.405677	502.232424	-1.154141	-2.235871	-0.085873	0.445187	-0.229802
2.280	3.601795	-0.381898	502.552864	-1.173525	-2.008531	-0.097979	0.399666	-0.233513
2.290	3.472159	-0.341529	502.880693	-1.194690	-1.788640	-0.111205	0.355679	-0.237569
2.300	3.375404	-0.310150	503.099985	-1.222344	-1.584885	-0.123955	0.315024	-0.242962
2.310	3.307651	-0.310315	503.090485	-1.259750	-1.406222	-0.134706	0.279517	-0.250402
2.320	3.262005	-0.355150	502.767477	-1.308807	-1.259369	-0.142522	0.250487	-0.260321
2.330	3.229104	-0.445142	502.121062	-1.370235	-1.146295	-0.147283	0.228291	-0.272889
2.340	3.198249	-0.569160	501.238244	-1.443583	-1.062845	-0.149531	0.212044	-0.288003
2.350	3.159277	-0.709183	500.293516	-1.527062	-0.999321	-0.150101	0.199747	-0.305233
2.360	3.104539	-0.846751	499.505163	-1.617538	-0.943073	-0.149780	0.188802	-0.323828
