Time[s]	Fx[N]	Fy[N]	Fz[N]	Mx[Nm]	My[Nm]	Mz[Nm]	COPx[cm]	COPy[cm]
0.010	4.640094	-0.416541	593.226754	-3.407916	4.340182	-1.013521	-0.731623	-0.574471
0.020	4.543985	-0.450185	593.259757	-3.438703	4.361921	-1.015403	-0.735246	-0.579629
0.030	4.449716	-0.484778	593.259268	-3.468428	4.381705	-1.016417	-0.738582	-0.584639
0.040	4.360028	-0.520325	593.205878	-3.495884	4.398379	-1.016357	-0.741459	-0.589321
0.050	4.278130	-0.555572	593.103837	-3.519721	4.412315	-1.015835	-0.743936	-0.593441
0.060	4.207445	-0.587867	592.984722	-3.538658	4.425448	-1.016014	-0.746301	-0.596754
0.070	4.150430	-0.613561	592.900814	-3.552036	4.440547	-1.017985	-0.748953	-0.599094
0.080	4.106706	-0.628934	592.908413	-3.560467	4.459957	-1.022127	-0.752217	-0.600509
0.090	4.071738	-0.631540	593.046176	-3.566025	4.484430	-1.027801	-0.756169	-0.601307
0.100	4.037446	-0.621555	593.316818	-3.571655	4.512579	-1.033529	-0.760568	-0.601981
0.110	3.994934	-0.602495	593.680224	-3.579968	4.541112	-1.037569	-0.764909	-0.603013
0.120	3.938157	-0.580793	594.061854	-3.592062	4.565586	-1.038596	-0.768537	-0.604661
0.130	3.866900	-0.564203	594.373700	-3.606997	4.581356	-1.036208	-0.770787	-0.606857
0.140	3.788051	-0.559477	594.539617	-3.622209	4.584431	-1.031110	-0.771089	-0.609246
0.150	3.714821	-0.570062	594.515607	-3.634630	4.572041	-1.024921	-0.769036	-0.611360
0.160	3.663962	-0.594650	594.299196	-3.641981	4.542754	-1.019670	-0.764388	-0.612819
0.170	3.651417	-0.627150	593.927258	-3.643631	4.496159	-1.017122	-0.757022	-0.613481
0.180	3.687564	-0.658203	593.464937	-3.640672	4.432357	-1.018140	-0.746861	-0.613460
0.190	3.773718	-0.677812	592.989269	-3.635183	4.351685	-1.022333	-0.733856	-0.613027
0.200	3.901096	-0.678385	592.571687	-3.629034	4.254967	-1.028124	-0.718051	-0.612421
0.210	4.052358	-0.657432	592.264254	-3.622851	4.144220	-1.033239	-0.699725	-0.611695
0.220	4.205184	-0.619018	592.093228	-3.615697	4.023263	-1.035450	-0.679498	-0.610664
0.230	4.337253	-0.573193	592.060438	-3.605646	3.897596	-1.033330	-0.658311	-0.609000
0.240	4.431819	-0.533150	592.149439	-3.590897	3.773286	-1.026725	-0.637218	-0.606417
0.250	4.482365	-0.510798	592.331862	-3.570818	3.655332	-1.016769	-0.617109	-0.602841
0.260	4.494372	-0.512454	592.570895	-3.546410	3.546398	-1.005420	-0.598477	-0.598479
0.270	4.483009	-0.536609	592.822919	-3.520108	3.446586	-0.994733	-0.581385	-0.593787
0.280	4.467308	-0.574855	593.041420	-3.495128	3.354328	-0.986183	-0.565615	-0.589356
0.290	4.463212	-0.615448	593.185992	-3.474695	3.267894	-0.980340	-0.550905	-0.585768
0.300	4.478455	-0.647727	593.234020	-3.461370	3.186793	-0.977020	-0.537190	-0.583475
0.310	4.511337	-0.665410	593.188529	-3.456505	3.112521	-0.975721	-0.524710	-0.582699
0.320	4.553469	-0.667574	593.076894	-3.459697	3.048432	-0.976024	-0.514003	-0.583347
0.330	4.594678	-0.657403	592.940413	-3.468269	2.998833	-0.977748	-0.505756	-0.584927
0.340	4.627573	-0.639818	592.819728	-3.477237	2.967725	-0.980874	-0.500612	-0.586559
0.350	4.649944	-0.619339	592.742681	-3.480280	2.957664	-0.985433	-0.498979	-0.587148
0.360	4.664411	-0.599000	592.719062	-3.471662	2.969172	-0.991458	-0.500941	-0.585718
0.370	4.675767	-0.580305	592.742571	-3.448311	3.000847	-0.998970	-0.506265	-0.581755
0.380	4.687298	-0.563735	592.797075	-3.410980	3.049990	-1.007934	-0.514508	-0.575404
0.390	4.697962	-0.549253	592.863833	-3.363862	3.113423	-1.018150	-0.525150	-0.567392
0.400	4.701996	-0.536472	592.927738	-3.312824	3.188101	-1.029159	-0.537688	-0.558723
0.410	4.691262	-0.524447	592.981730	-3.263008	3.271360	-1.040269	-0.551680	-0.550271
0.420	4.659163	-0.511421	593.028637	-3.216833	3.360819	-1.050759	-0.566721	-0.542441
0.430	4.604190	-0.494965	593.080007	-3.173266	3.454189	-1.060149	-0.582415	-0.535048
0.440	4.531403	-0.472762	593.151983	-3.128742	3.549239	-1.068346	-0.598369	-0.527477
0.450	4.451258	-0.443738	593.258636	-3.079278	3.643989	-1.075489	-0.614233	-0.519045
0.460	4.376397	-0.408832	593.404045	-3.022684	3.736989	-1.081561	-0.629755	-0.509380
0.470	4.317739	-0.370725	593.576442	-2.959762	3.827467	-1.086101	-0.644814	-0.498632
0.480	4.281264	-0.332544	593.748666	-2.894034	3.915213	-1.088304	-0.659406	-0.487417
0.490	4.266644	-0.296331	593.886325	-2.830252	4.000247	-1.087527	-0.673571	-0.476565
0.500	4.268235	-0.262353	593.959965	-2.772434	4.082468	-1.083858	-0.687330	-0.466771
0.510	4.278015	-0.229644	593.955018	-2.722261	4.161491	-1.078349	-0.700641	-0.458328
0.520	4.289060	-0.197292	593.874935	-2.678579	4.236767	-1.072758	-0.713411	-0.451034
0.530	4.297872	-0.165470	593.736774	-2.638205	4.307934	-1.068908	-0.725563	-0.444339
0.540	4.304462	-0.135488	593.562221	-2.597606	4.375227	-1.068005	-0.737113	-0.437630
0.550	4.310399	-0.108856	593.369283	-2.554520	4.439688	-1.070215	-0.748217	-0.430511
0.560	4.316136	-0.086014	593.169172	-2.508707	4.503010	-1.074648	-0.759144	-0.422933
0.570	4.319282	-0.065570	592.969233	-2.461639	4.567052	-1.079732	-0.770201	-0.415138
0.580	4.314925	-0.044561	592.778545	-2.415449	4.633265	-1.083783	-0.781618	-0.407479
0.590	4.297945	-0.019713	592.611332	-2.371701	4.702270	-1.085560	-0.793483	-0.400212
0.600	4.266006	0.010970	592.485473	-2.330550	4.773721	-1.084614	-0.805711	-0.393351
0.610	4.221392	0.047287	592.417284	-2.290776	4.846452	-1.081370	-0.818081	-0.386683
0.620	4.170622	0.087275	592.416033	-2.250779	4.918805	-1.076940	-0.830296	-0.379932
0.630	4.122181	0.128617	592.480931	-2.209953	4.989030	-1.072764	-0.842057	-0.373000
0.640	4.083652	0.169823	592.601029	-2.169494	5.055753	-1.070169	-0.853146	-0.366097
0.650	4.059333	0.210239	592.757319	-2.132015	5.118524	-1.069940	-0.863511	-0.359678
0.660	4.048920	0.249060	592.926628	-2.100180	5.178288	-1.072004	-0.873344	-0.354206
0.670	4.047500	0.284364	593.086907	-2.075109	5.237485	-1.075342	-0.883089	-0.349883
0.680	4.046970	0.313169	593.222481	-2.055370	5.299500	-1.078270	-0.893341	-0.346475
0.690	4.038755	0.332661	593.327059	-2.037046	5.367531	-1.079021	-0.904650	-0.343326
0.700	4.017056	0.341863	593.403045	-2.014995	5.443220	-1.076398	-0.917289	-0.339566
0.710	3.981230	0.342622	593.457002	-1.984940	5.525630	-1.070205	-0.931092	-0.334471
0.720	3.935999	0.339228	593.492591	-1.945514	5.611094	-1.061278	-0.945436	-0.327808
0.730	3.889214	0.336844	593.503996	-1.899197	5.694205	-1.051127	-0.959421	-0.319997
0.740	3.848280	0.339610	593.474081	-1.851526	5.769660	-1.041361	-0.972184	-0.311981
0.750	3.816945	0.349338	593.380126	-1.808936	5.834267	-1.033156	-0.983226	-0.304853
0.760	3.793882	0.365164	593.205921	-1.776306	5.888237	-1.026998	-0.992613	-0.299442
0.770	3.773541	0.383864	592.954682	-1.755385	5.935232	-1.022772	-1.000959	-0.296040
0.780	3.748692	0.400486	592.655841	-1.744731	5.981231	-1.020061	-1.009225	-0.294392
0.790	3.713407	0.409405	592.361768	-1.740987	6.032729	-1.018455	-1.018420	-0.293906
0.800	3.665241	0.405981	592.135834	-1.740727	6.094933	-1.017730	-1.029313	-0.293974
0.810	3.605827	0.388464	592.036486	-1.741902	6.170417	-1.017877	-1.042236	-0.294222
0.820	3.539847	0.359125	592.101883	-1.744243	6.258525	-1.019050	-1.057001	-0.294585
0.830	3.473191	0.323865	592.338663	-1.748654	6.355601	-1.021450	-1.072967	-0.295212
0.840	3.411351	0.290388	592.717849	-1.756227	6.455876	-1.025176	-1.089199	-0.296301
0.850	3.358588	0.265705	593.179267	-1.767629	6.552678	-1.030040	-1.104671	-0.297992
0.860	3.317729	0.253897	593.643108	-1.783144	6.639646	-1.035488	-1.118458	-0.300373
0.870	3.290180	0.254801	594.025387	-1.803082	6.711756	-1.040728	-1.129877	-0.303536
0.880	3.275891	0.263856	594.253864	-1.828007	6.766090	-1.045047	-1.138586	-0.307614
0.890	3.273182	0.273055	594.281637	-1.858534	6.802251	-1.048118	-1.144617	-0.312736
0.900	3.278520	0.272874	594.096420	-1.894912	6.822344	-1.050098	-1.148356	-0.318957
0.910	3.286530	0.254962	593.724197	-1.936759	6.830510	-1.051475	-1.150452	-0.326205
0.920	3.290546	0.215021	593.226146	-1.983183	6.832073	-1.052816	-1.151681	-0.334305
0.930	3.283815	0.154820	592.687807	-2.033161	6.832560	-1.054596	-1.152809	-0.343041
0.940	3.261074	0.082289	592.201311	-2.085893	6.836861	-1.057195	-1.154483	-0.352227
0.950	3.219934	0.009217	591.845027	-2.140918	6.848668	-1.060953	-1.157173	-0.361736
0.960	3.161651	-0.052932	591.667370	-2.197912	6.870142	-1.066134	-1.161149	-0.371478
0.970	3.091204	-0.097455	591.679683	-2.256265	6.901720	-1.072751	-1.166462	-0.381332
0.980	3.016835	-0.124945	591.858611	-2.314707	6.942087	-1.080336	-1.172930	-0.391091
0.990	2.949023	-0.142572	592.155164	-2.371317	6.988367	-1.087896	-1.180158	-0.400455
1.000	2.898771	-0.160600	592.507056	-2.424028	7.036614	-1.094155	-1.187600	-0.409114
1.010	2.875393	-0.188222	592.851474	-2.471435	7.082590	-1.098042	-1.194665	-0.416872
1.020	2.884405	-0.230633	593.136079	-2.513432	7.122665	-1.099115	-1.200848	-0.423753
1.030	2.926216	-0.288032	593.326854	-2.551278	7.154638	-1.097706	-1.205851	-0.429995
1.040	2.996073	-0.356173	593.412044	-2.586952	7.178182	-1.094719	-1.209646	-0.435945
1.050	3.085355	-0.427804	593.401342	-2.622111	7.194776	-1.091265	-1.212464	-0.441878
1.060	3.183870	-0.494445	593.319689	-2.657189	7.207211	-1.088376	-1.214726	-0.447851
1.070	3.282129	-0.548180	593.197143	-2.691100	7.218992	-1.086889	-1.216963	-0.453660
1.080	3.372481	-0.583350	593.059206	-2.721637	7.233860	-1.087444	-1.219753	-0.458915
1.090	3.448768	-0.598012	592.922399	-2.746269	7.255384	-1.090453	-1.223665	-0.463175
1.100	3.505347	-0.594544	592.796426	-2.763016	7.286421	-1.095961	-1.229161	-0.466099
1.110	3.536802	-0.578677	592.689408	-2.771151	7.328496	-1.103496	-1.236482	-0.467555
1.120	3.539008	-0.557013	592.610830	-2.771545	7.381476	-1.111989	-1.245586	-0.467684
1.130	3.511111	-0.534335	592.569646	-2.766496	7.443889	-1.119865	-1.256205	-0.466864
1.140	3.457257	-0.512444	592.570031	-2.758956	7.513747	-1.125362	-1.267993	-0.465591
1.150	3.386934	-0.491194	592.609371	-2.751367	7.589353	-1.127034	-1.280667	-0.464280
1.160	3.313426	-0.470640	592.680353	-2.744558	7.669598	-1.124270	-1.294053	-0.463076
1.170	3.250793	-0.452414	592.774596	-2.737180	7.753710	-1.117633	-1.308037	-0.461757
1.180	3.210442	-0.439271	592.883959	-2.726006	7.840777	-1.108801	-1.322481	-0.459787
1.190	3.198400	-0.433316	592.998543	-2.707059	7.929469	-1.100068	-1.337182	-0.456504
1.200	3.213896	-0.434248	593.104226	-2.677184	8.018241	-1.093519	-1.351911	-0.451385
1.210	3.249454	-0.438688	593.183471	-2.635432	8.106016	-1.090210	-1.366528	-0.444286
1.220	3.292305	-0.440856	593.220430	-2.583571	8.193009	-1.089736	-1.381107	-0.435516
1.230	3.326868	-0.434297	593.207704	-2.525420	8.281265	-1.090430	-1.396014	-0.425723
1.240	3.337835	-0.413979	593.150523	-2.465370	8.374608	-1.090058	-1.411886	-0.415640
1.250	3.313222	-0.378116	593.065350	-2.406943	8.477985	-1.086703	-1.429520	-0.405848
1.260	3.246646	-0.329269	592.973460	-2.352080	8.596391	-1.079440	-1.449709	-0.396659
1.270	3.138425	-0.274511	592.893552	-2.301268	8.733645	-1.068595	-1.473054	-0.388142
1.280	2.995452	-0.224482	592.837788	-2.254147	8.891332	-1.055594	-1.499792	-0.380230
1.290	2.829948	-0.191099	592.812433	-2.210160	9.068188	-1.042480	-1.529689	-0.372826
1.300	2.657037	-0.184027	592.820846	-2.169017	9.260167	-1.031322	-1.562052	-0.365881
1.310	2.491239	-0.206826	592.865785	-2.130878	9.461262	-1.023695	-1.595852	-0.359420
1.320	2.342580	-0.254501	592.949142	-2.096281	9.664954	-1.020400	-1.629980	-0.353535
1.330	2.213532	-0.314012	593.068786	-2.065857	9.865827	-1.021461	-1.663522	-0.348333
1.340	2.098155	-0.367988	593.214038	-2.039962	10.060721	-1.026330	-1.695968	-0.343883
1.350	1.984370	-0.400289	593.363247	-2.018342	10.248954	-1.034165	-1.727265	-0.340153
1.360	1.859283	-0.401232	593.486984	-1.999924	10.431556	-1.044085	-1.757672	-0.336979
1.370	1.715831	-0.370468	593.557342	-1.982814	10.609813	-1.055355	-1.787496	-0.334056
1.380	1.557546	-0.316507	593.559330	-1.964520	10.783799	-1.067487	-1.816802	-0.330973
1.390	1.398479	-0.253216	593.498245	-1.942382	10.951537	-1.080228	-1.845252	-0.327277
1.400	1.257820	-0.194768	593.398573	-1.914173	11.109131	-1.093434	-1.872120	-0.322578
1.410	1.151876	-0.151063	593.294450	-1.878784	11.251708	-1.106882	-1.896480	-0.316670
1.420	1.087505	-0.125364	593.216270	-1.836807	11.374700	-1.120145	-1.917463	-0.309635
1.430	1.060090	-0.114796	593.179860	-1.790691	11.475019	-1.132650	-1.934492	-0.301880
1.440	1.056469	-0.112856	593.182659	-1.744218	11.551811	-1.143895	-1.947429	-0.294044
1.450	1.060757	-0.112433	593.207510	-1.701378	11.606573	-1.153652	-1.956579	-0.286810
1.460	1.060115	-0.108080	593.231667	-1.665117	11.642596	-1.161996	-1.962572	-0.280686
1.470	1.048353	-0.097083	593.237479	-1.636517	11.663941	-1.169184	-1.966150	-0.275862
1.480	1.026681	-0.079364	593.221019	-1.614714	11.674384	-1.175595	-1.967965	-0.272194
1.490	1.001958	-0.056556	593.195329	-1.597442	11.676732	-1.181796	-1.968446	-0.269294
1.500	0.983316	-0.030759	593.186539	-1.581874	11.672589	-1.188605	-1.967777	-0.266674
1.510	0.978401	-0.003633	593.223817	-1.565402	11.662401	-1.196932	-1.965936	-0.263881
1.520	0.990629	0.023788	593.326919	-1.546190	11.645544	-1.207352	-1.962753	-0.260597
1.530	1.018509	0.050749	593.496514	-1.523472	11.620467	-1.219653	-1.957967	-0.256694
1.540	1.057185	0.076483	593.711430	-1.497600	11.585000	-1.232673	-1.951285	-0.252244
1.550	1.101331	0.100454	593.933927	-1.469785	11.536858	-1.244623	-1.942448	-0.247466
1.560	1.148108	0.123023	594.120599	-1.441599	11.474104	-1.253773	-1.931275	-0.242644
1.570	1.199051	0.145874	594.234319	-1.414451	11.395379	-1.259209	-1.917658	-0.238029
1.580	1.260182	0.171630	594.252830	-1.389291	11.299835	-1.261274	-1.901520	-0.233788
1.590	1.340124	0.202731	594.171959	-1.366537	11.186972	-1.261441	-1.882784	-0.229990
1.600	1.446669	0.240210	594.004062	-1.346134	11.056574	-1.261583	-1.861363	-0.226620
1.610	1.582935	0.283014	593.773246	-1.327661	10.908733	-1.262968	-1.837188	-0.223597
1.620	1.744712	0.328193	593.508808	-1.310426	10.743851	-1.265495	-1.810226	-0.220793
1.630	1.920587	0.371853	593.238737	-1.293587	10.562612	-1.267602	-1.780499	-0.218055
1.640	2.095426	0.410411	592.985503	-1.276341	10.366069	-1.266951	-1.748115	-0.215240
1.650	2.256140	0.441589	592.765404	-1.258238	10.155967	-1.261560	-1.713320	-0.212266
1.660	2.397027	0.464862	592.590739	-1.239567	9.935133	-1.250838	-1.676559	-0.209178
1.670	2.521800	0.481464	592.472430	-1.221659	9.707708	-1.236012	-1.638508	-0.206197
1.680	2.640942	0.494033	592.420557	-1.206911	9.479020	-1.219708	-1.600049	-0.203725
1.690	2.765620	0.505780	592.441832	-1.198495	9.255114	-1.204899	-1.562198	-0.202297
1.700	2.901304	0.519159	592.535411	-1.199787	9.041982	-1.193723	-1.525982	-0.202484
1.710	3.044246	0.534490	592.689963	-1.213689	8.844593	-1.186766	-1.492280	-0.204776
1.720	3.182514	0.549315	592.884414	-1.241953	8.665915	-1.183093	-1.461653	-0.209476
1.730	3.301060	0.558903	593.092416	-1.284628	8.506188	-1.180897	-1.434209	-0.216598
1.740	3.388599	0.557744	593.288265	-1.339745	8.362745	-1.178333	-1.409558	-0.225817
1.750	3.443304	0.541406	593.451770	-1.403378	8.230505	-1.174135	-1.386887	-0.236477
1.760	3.474802	0.508088	593.570699	-1.470230	8.103069	-1.167815	-1.365140	-0.247692
1.770	3.501420	0.459368	593.639939	-1.534645	7.974131	-1.159490	-1.343261	-0.258514
1.780	3.543624	0.399884	593.657341	-1.591755	7.838807	-1.149552	-1.320426	-0.268127
1.790	3.616307	0.336080	593.618902	-1.638380	7.694520	-1.138372	-1.296205	-0.275999
1.800	3.723204	0.274536	593.517999	-1.673494	7.541270	-1.126178	-1.270605	-0.281962
1.810	3.855669	0.220434	593.351004	-1.698278	7.381374	-1.113139	-1.244015	-0.286218
1.820	3.996013	0.176457	593.125997	-1.715796	7.218861	-1.099543	-1.217087	-0.289280
1.830	4.123670	0.142235	592.867842	-1.730315	7.058786	-1.085934	-1.190617	-0.291855
1.840	4.221652	0.114625	592.615145	-1.746317	6.906570	-1.073082	-1.165439	-0.294680
1.850	4.281006	0.088945	592.410225	-1.767386	6.767404	-1.061777	-1.142351	-0.298338
1.860	4.302124	0.060817	592.287102	-1.795344	6.645656	-1.052565	-1.122033	-0.303121
1.870	4.293052	0.027706	592.262757	-1.829924	6.544341	-1.045571	-1.104973	-0.308972
1.880	4.265949	-0.010477	592.334653	-1.869106	6.464702	-1.040518	-1.091393	-0.315549
1.890	4.233115	-0.051779	592.484223	-1.909860	6.406011	-1.036934	-1.081212	-0.322348
1.900	4.203847	-0.093179	592.683173	-1.948934	6.365650	-1.034401	-1.074039	-0.328832
1.910	4.182893	-0.131631	592.899128	-1.983348	6.339514	-1.032720	-1.069240	-0.334517
1.920	4.170726	-0.164857	593.099481	-2.010545	6.322720	-1.031872	-1.066047	-0.338990
1.930	4.165083	-0.191682	593.254557	-2.028356	6.310489	-1.031835	-1.063707	-0.341903
1.940	4.162770	-0.211753	593.341313	-2.035091	6.299054	-1.032387	-1.061624	-0.342988
1.950	4.160812	-0.224720	593.347357	-2.029839	6.286343	-1.033016	-1.059471	-0.342100
1.960	4.156635	-0.229318	593.273889	-2.012782	6.272206	-1.033041	-1.057219	-0.339267
1.970	4.147599	-0.222976	593.136045	-1.985229	6.258047	-1.031876	-1.055078	-0.334700
1.980	4.130676	-0.202388	592.960016	-1.949396	6.245967	-1.029356	-1.053354	-0.328757
1.990	4.103028	-0.164895	592.777734	-1.908239	6.237695	-1.025917	-1.052282	-0.321915
2.000	4.063544	-0.110125	592.621251	-1.865475	6.233667	-1.022539	-1.051881	-0.314784
2.010	4.014427	-0.041225	592.518896	-1.825544	6.232569	-1.020409	-1.051877	-0.308099
2.020	3.961590	0.034842	592.493343	-1.793106	6.231438	-1.020430	-1.051731	-0.302637
2.030	3.913450	0.108261	592.559663	-1.772071	6.226173	-1.022800	-1.050725	-0.299054
2.040	3.878861	0.168536	592.721589	-1.764577	6.212185	-1.026915	-1.048078	-0.297708
2.050	3.865363	0.207291	592.966664	-1.770397	6.185062	-1.031695	-1.043071	-0.298566
2.060	3.878294	0.220738	593.263296	-1.787029	6.141333	-1.036161	-1.035178	-0.301220
2.070	3.920377	0.210777	593.562931	-1.810490	6.079326	-1.039914	-1.024209	-0.305021
2.080	3.991012	0.184257	593.808552	-1.836672	5.999925	-1.043249	-1.010414	-0.309304
2.090	4.085271	0.150657	593.947850	-1.862846	5.906858	-1.046900	-0.994508	-0.313638
2.100	4.193612	0.119244	593.947144	-1.888621	5.806257	-1.051604	-0.977571	-0.317978
2.110	4.303388	0.096915	593.801627	-1.915669	5.705463	-1.057682	-0.960836	-0.322611
2.120	4.402026	0.087335	593.538615	-1.946174	5.611403	-1.064821	-0.945415	-0.327893
2.130	4.480373	0.091038	593.212343	-1.980839	5.529045	-1.072131	-0.932052	-0.333917
2.140	4.534523	0.105896	592.891484	-2.017765	5.460494	-1.078492	-0.920994	-0.340326
2.150	4.565492	0.127727	592.643077	-2.052926	5.405109	-1.083006	-0.912035	-0.346402
2.160	4.577475	0.151212	592.517426	-2.081932	5.360542	-1.085357	-0.904706	-0.351371
2.170	4.575966	0.171155	592.537124	-2.102031	5.324124	-1.085904	-0.898530	-0.354751
2.180	4.566457	0.183708	592.691792	-2.113350	5.293879	-1.085500	-0.893193	-0.356568
2.190	4.553702	0.187042	592.939808	-2.118882	5.268831	-1.085132	-0.888595	-0.357352
2.200	4.541218	0.181293	593.218025	-2.123329	5.248752	-1.085579	-0.884793	-0.357934
2.210	4.531064	0.168027	593.458162	-2.131305	5.233766	-1.087200	-0.881910	-0.359133
2.220	4.524161	0.149647	593.605190	-2.145683	5.224054	-1.089899	-0.880055	-0.361466
2.230	4.521138	0.129058	593.631539	-2.166829	5.219675	-1.093212	-0.879279	-0.365012
2.240	4.523099	0.109582	593.542652	-2.193030	5.220420	-1.096489	-0.879536	-0.369482
2.250	4.531546	0.094834	593.372838	-2.221646	5.225740	-1.099146	-0.880684	-0.374410
2.260	4.547249	0.088094	593.173380	-2.250114	5.234761	-1.100898	-0.882501	-0.379335
2.270	4.568781	0.091101	592.996682	-2.276334	5.246405	-1.101857	-0.884728	-0.383870
2.280	4.591845	0.102813	592.881146	-2.298561	5.259554	-1.102434	-0.887118	-0.387693
2.290	4.610059	0.119063	592.841424	-2.315272	5.273227	-1.103120	-0.889484	-0.390538
2.300	4.616862	0.133652	592.867026	-2.325395	5.286712	-1.104239	-0.891720	-0.392229
2.310	4.607629	0.140512	592.929165	-2.328907	5.299654	-1.105775	-0.893809	-0.392780
2.320	4.581056	0.135875	592.992795	-2.327457	5.312146	-1.107337	-0.895820	-0.392493
2.330	4.539365	0.119487	593.029139	-2.324477	5.324879	-1.108293	-0.897912	-0.391967
2.340	4.487410	0.094482	593.024393	-2.324553	5.339290	-1.108011	-0.900349	-0.391983
2.350	4.431169	0.066197	592.982199	-2.332290	5.357515	-1.106108	-0.903487	-0.393315
