Time[s]	Fx[N]	Fy[N]	Fz[N]	Mx[Nm]	My[Nm]	Mz[Nm]	COPx[cm]	COPy[cm]
0.010	5.759500	1.183696	646.474717	-1.906606	10.679239	-1.268781	-1.651919	-0.294923
0.020	5.979121	1.031269	645.839237	-1.872163	10.540534	-1.263406	-1.632068	-0.289881
0.030	6.168579	0.888361	645.275110	-1.842291	10.415849	-1.258188	-1.614172	-0.285505
0.040	6.301572	0.764624	644.837767	-1.820371	10.317468	-1.253202	-1.600010	-0.282299
0.050	6.359684	0.667615	644.549525	-1.808478	10.254063	-1.248534	-1.590888	-0.280580
0.060	6.334522	0.602361	644.396917	-1.808050	10.229767	-1.244376	-1.587495	-0.280580
0.070	6.228081	0.570636	644.339392	-1.820945	10.244087	-1.241128	-1.589859	-0.282606
0.080	6.051548	0.569655	644.325262	-1.850117	10.292533	-1.239411	-1.597413	-0.287140
0.090	5.823238	0.590612	644.308041	-1.899450	10.367708	-1.239967	-1.609123	-0.294805
0.100	5.566193	0.617931	644.256780	-1.972747	10.460698	-1.243462	-1.623685	-0.306205
0.110	5.305568	0.630259	644.158258	-2.072233	10.562591	-1.250294	-1.639751	-0.321696
0.120	5.065748	0.603924	644.014150	-2.197145	10.665949	-1.260534	-1.656167	-0.341164
0.130	4.867217	0.518655	643.838335	-2.342982	10.765969	-1.274003	-1.672154	-0.363908
0.140	4.723346	0.364005	643.656730	-2.501824	10.861207	-1.290343	-1.687422	-0.388689
0.150	4.637372	0.144011	643.507729	-2.663770	10.953825	-1.308960	-1.702206	-0.413945
0.160	4.600468	-0.122280	643.439235	-2.819081	11.049322	-1.328851	-1.717228	-0.438127
0.170	4.592276	-0.405304	643.499314	-2.960281	11.155683	-1.348520	-1.733597	-0.460029
0.180	4.584822	-0.673246	643.720298	-3.083496	11.281808	-1.366145	-1.752595	-0.479012
0.190	4.549166	-0.900928	644.100035	-3.188731	11.435288	-1.380028	-1.775390	-0.495068
0.200	4.462821	-1.075710	644.587618	-3.279166	11.619953	-1.389108	-1.802696	-0.508723
0.210	4.315605	-1.198247	645.081845	-3.359772	11.834022	-1.393325	-1.834499	-0.520829
0.220	4.112194	-1.278638	645.446946	-3.435772	12.069717	-1.393655	-1.869978	-0.532309
0.230	3.870614	-1.330566	645.543591	-3.511449	12.314665	-1.391872	-1.907643	-0.543952
0.240	3.617110	-1.366395	645.267258	-3.589637	12.554663	-1.390111	-1.945653	-0.556302
0.250	3.378988	-1.394921	644.582703	-3.671814	12.776900	-1.390359	-1.982197	-0.569642
0.260	3.177688	-1.421814	643.543329	-3.758541	12.972720	-1.394014	-2.015827	-0.584039
0.270	3.024161	-1.451505	642.287720	-3.849978	13.139252	-1.401662	-2.045696	-0.599416
0.280	2.917779	-1.488903	641.011963	-3.946375	13.279449	-1.413218	-2.071638	-0.615648
0.290	2.848795	-1.539701	639.924024	-4.048539	13.400494	-1.428351	-2.094076	-0.632659
0.300	2.803114	-1.608907	639.193084	-4.158168	13.510963	-1.446934	-2.113753	-0.650534
0.310	2.767423	-1.698269	638.909158	-4.277819	13.617630	-1.469262	-2.131388	-0.669550
0.320	2.732915	-1.804076	639.064519	-4.410263	13.722917	-1.495925	-2.147344	-0.690112
0.330	2.696829	-1.916840	639.560263	-4.557306	13.823784	-1.527422	-2.161451	-0.712569
0.340	2.661962	-2.023482	640.233682	-4.718561	13.912401	-1.563735	-2.173019	-0.737006
0.350	2.634847	-2.111398	640.898253	-4.890795	13.978291	-1.604097	-2.181047	-0.763116
0.360	2.623297	-2.172862	641.387211	-5.068256	14.011328	-1.647063	-2.184535	-0.790202
0.370	2.633894	-2.208073	641.591483	-5.243888	14.004769	-1.690810	-2.182817	-0.817325
0.380	2.669902	-2.225549	641.483130	-5.410900	13.957606	-1.733442	-2.175834	-0.843498
0.390	2.730076	-2.239412	641.117949	-5.564029	13.875616	-1.773151	-2.164284	-0.867864
0.400	2.808729	-2.264316	640.616123	-5.700109	13.770746	-1.808265	-2.149610	-0.889785
0.410	2.897076	-2.309935	640.126501	-5.817897	13.658869	-1.837323	-2.133777	-0.908867
0.420	2.985349	-2.377328	639.785477	-5.917366	13.556356	-1.859271	-2.118891	-0.924898
0.430	3.065137	-2.458486	639.683223	-5.998879	13.476237	-1.873720	-2.106705	-0.937789
0.440	3.131506	-2.538710	639.847165	-6.062740	13.424947	-1.881105	-2.098149	-0.947529
0.450	3.184603	-2.600501	640.246309	-6.109341	13.400648	-1.882586	-2.093046	-0.954217
0.460	3.230340	-2.627761	640.812250	-6.139612	13.393795	-1.879662	-2.090128	-0.958098
0.470	3.279678	-2.609529	641.466403	-6.155262	13.389849	-1.873619	-2.087381	-0.959561
0.480	3.346318	-2.542468	642.141554	-6.158480	13.373270	-1.865043	-2.082605	-0.959053
0.490	3.443216	-2.431389	642.790755	-6.151279	13.331510	-1.853601	-2.074005	-0.956965
0.500	3.578989	-2.287663	643.384541	-6.135028	13.257828	-1.838202	-2.060638	-0.953555
0.510	3.755264	-2.126329	643.903191	-6.110442	13.152327	-1.817483	-2.042594	-0.948969
0.520	3.965460	-1.963214	644.331877	-6.077878	13.021269	-1.790434	-2.020895	-0.943284
0.530	4.195102	-1.813016	644.663317	-6.037462	12.875195	-1.756899	-1.997197	-0.936529
0.540	4.423861	-1.688383	644.906633	-5.988904	12.726487	-1.717756	-1.973384	-0.928647
0.550	4.629351	-1.599219	645.095495	-5.931253	12.586909	-1.674734	-1.951170	-0.919438
0.560	4.792073	-1.551436	645.287128	-5.863017	12.465540	-1.629961	-1.931782	-0.908590
0.570	4.900039	-1.545065	645.547986	-5.782898	12.367402	-1.585397	-1.915799	-0.895812
0.580	4.951336	-1.572523	645.929440	-5.690933	12.292994	-1.542342	-1.903148	-0.881046
0.590	4.953444	-1.618345	646.443792	-5.589394	12.238750	-1.501201	-1.893243	-0.864637
0.600	4.919416	-1.661504	647.053264	-5.482623	12.198324	-1.461568	-1.885212	-0.847322
0.610	4.862574	-1.680405	647.680167	-5.375605	12.164444	-1.422532	-1.878156	-0.829978
0.620	4.792130	-1.658992	648.236496	-5.271930	12.130984	-1.383001	-1.871382	-0.813273
0.630	4.711669	-1.591374	648.660502	-5.172233	12.094645	-1.341920	-1.864557	-0.797371
0.640	4.620717	-1.482741	648.943202	-5.073891	12.055543	-1.298471	-1.857719	-0.781870
0.650	4.517893	-1.346228	649.132721	-4.971945	12.016338	-1.252346	-1.851137	-0.765937
0.660	4.403552	-1.197394	649.315293	-4.860675	11.980269	-1.204087	-1.845062	-0.748585
0.670	4.280770	-1.049095	649.581465	-4.735121	11.949014	-1.155234	-1.839494	-0.728949
0.680	4.154991	-0.908855	649.990865	-4.592146	11.921307	-1.108081	-1.834073	-0.706494
0.690	4.033440	-0.779045	650.548623	-4.430899	11.892808	-1.065057	-1.828120	-0.681102
0.700	3.925103	-0.658618	651.201540	-4.252808	11.857096	-1.028043	-1.820803	-0.653071
0.710	3.840956	-0.544995	651.853533	-4.061408	11.807229	-0.998004	-1.811332	-0.623055
0.720	3.793394	-0.435600	652.392124	-3.862202	11.737315	-0.975017	-1.799120	-0.592006
0.730	3.794120	-0.329256	652.715510	-3.662531	11.643704	-0.958546	-1.783887	-0.561122
0.740	3.850854	-0.227594	652.752768	-3.471197	11.525710	-0.947696	-1.765708	-0.531778
0.750	3.964196	-0.136092	652.474149	-3.297601	11.385921	-0.941349	-1.745038	-0.505399
0.760	4.126068	-0.063919	651.892018	-3.150364	11.230160	-0.938175	-1.722702	-0.483265
0.770	4.320536	-0.021941	651.055439	-3.035786	11.067013	-0.936633	-1.699857	-0.466287
0.780	4.526798	-0.019209	650.042008	-2.956731	10.906778	-0.935039	-1.677857	-0.454852
0.790	4.723473	-0.059329	648.948544	-2.912462	10.759872	-0.931771	-1.658047	-0.448797
0.800	4.893009	-0.138316	647.879598	-2.899415	10.635134	-0.925571	-1.641529	-0.447524
0.810	5.025015	-0.244775	646.932379	-2.912511	10.538605	-0.915799	-1.629012	-0.450203
0.820	5.117486	-0.362303	646.179271	-2.946476	10.473116	-0.902483	-1.620776	-0.455984
0.830	5.175488	-0.473475	645.652121	-2.996852	10.438559	-0.886173	-1.616747	-0.464159
0.840	5.207880	-0.564425	645.333977	-3.060610	10.432408	-0.867755	-1.616591	-0.474268
0.850	5.223499	-0.628701	645.163146	-3.136363	10.450331	-0.848340	-1.619797	-0.486135
0.860	5.228332	-0.668933	645.051112	-3.224240	10.487003	-0.829258	-1.625763	-0.499843
0.870	5.224298	-0.695450	644.910390	-3.325541	10.537270	-0.812002	-1.633912	-0.515659
0.880	5.209348	-0.722269	644.683395	-3.442389	10.597449	-0.798061	-1.643822	-0.533966
0.890	5.178212	-0.762238	644.362171	-3.577459	10.666318	-0.788648	-1.655330	-0.555194
0.900	5.123497	-0.823522	643.991999	-3.733638	10.745425	-0.784419	-1.668565	-0.579765
0.910	5.037198	-0.908753	643.657415	-3.913313	10.838634	-0.785260	-1.683913	-0.607981
0.920	4.912642	-1.016719	643.455094	-4.117262	10.950977	-0.790251	-1.701902	-0.639868
0.930	4.746465	-1.145191	643.462568	-4.343595	11.086986	-0.797913	-1.723020	-0.675035
0.940	4.539974	-1.293070	643.713017	-4.587430	11.248804	-0.806673	-1.747487	-0.712651
0.950	4.299452	-1.460496	644.183530	-4.841683	11.434571	-0.815359	-1.775049	-0.751600
0.960	4.035479	-1.646977	644.799052	-5.098772	11.637596	-0.823456	-1.804841	-0.790754
0.970	3.761799	-1.849082	645.449436	-5.352448	11.846666	-0.831025	-1.835413	-0.829259
0.980	3.494174	-2.059704	646.014323	-5.598776	12.047581	-0.838365	-1.864909	-0.866664
0.990	3.249260	-2.269561	646.390065	-5.835675	12.225711	-0.845588	-1.891383	-0.902810
1.000	3.043223	-2.469748	646.513374	-6.061350	12.368995	-0.852312	-1.913185	-0.937544
1.010	2.889990	-2.653494	646.376869	-6.272709	12.470607	-0.857618	-1.929309	-0.970441
1.020	2.799302	-2.816421	646.032204	-6.464774	12.530416	-0.860297	-1.939596	-1.000689
1.030	2.774867	-2.956129	645.578178	-6.631393	12.554763	-0.859231	-1.944732	-1.027202
1.040	2.812816	-3.072241	645.135103	-6.766777	12.554636	-0.853657	-1.946048	-1.048893
1.050	2.900879	-3.167107	644.812015	-6.867119	12.542916	-0.843231	-1.945205	-1.064980
1.060	3.019091	-3.246278	644.677052	-6.931606	12.531501	-0.828009	-1.943842	-1.075206
1.070	3.142876	-3.317748	644.740717	-6.962461	12.529016	-0.808528	-1.943264	-1.079885
1.080	3.248455	-3.389483	644.956842	-6.963999	12.539522	-0.786047	-1.944242	-1.079762
1.090	3.319061	-3.465608	645.239511	-6.941076	12.562432	-0.762812	-1.946941	-1.075736
1.100	3.349547	-3.542433	645.489172	-6.897632	12.593591	-0.742109	-1.951015	-1.068590
1.110	3.347295	-3.606171	645.619419	-6.835932	12.627199	-0.727969	-1.955827	-1.058818
1.120	3.328944	-3.634052	645.577486	-6.756632	12.657989	-0.724514	-1.960723	-1.046603
1.130	3.314261	-3.599552	645.354862	-6.659349	12.683010	-0.735147	-1.965277	-1.031890
1.140	3.319662	-3.480586	644.987586	-6.543227	12.702509	-0.761817	-1.969419	-1.014473
1.150	3.353793	-3.267797	644.547640	-6.407262	12.719678	-0.804579	-1.973427	-0.994071
1.160	3.416421	-2.969472	644.127073	-6.250488	12.739334	-0.861580	-1.977767	-0.970381
1.170	3.500323	-2.610904	643.816384	-6.072328	12.766028	-0.929463	-1.982868	-0.943177
1.180	3.594833	-2.228359	643.680180	-5.873291	12.802386	-1.004071	-1.988936	-0.912455
1.190	3.689417	-1.859862	643.736507	-5.655903	12.848373	-1.081271	-1.995906	-0.878605
1.200	3.775940	-1.535801	643.948959	-5.425545	12.901767	-1.157651	-2.003539	-0.842543
1.210	3.848960	-1.271989	644.238794	-5.190762	12.959598	-1.230893	-2.011614	-0.805720
1.220	3.904221	-1.066913	644.516102	-4.962716	13.019881	-1.299792	-2.020102	-0.769991
1.230	3.936384	-0.903887	644.717768	-4.753647	13.082845	-1.363968	-2.029236	-0.737322
1.240	3.937402	-0.757780	644.833382	-4.574513	13.151021	-1.423411	-2.039445	-0.709410
1.250	3.896586	-0.604513	644.904649	-4.432424	13.228034	-1.477987	-2.051161	-0.687299
1.260	3.802743	-0.430146	644.998011	-4.328789	13.316464	-1.527066	-2.064574	-0.671132
1.270	3.648038	-0.236142	645.165233	-4.259038	13.415645	-1.569470	-2.079412	-0.660147
1.280	3.432502	-0.038794	645.412806	-4.214201	13.520332	-1.603806	-2.094835	-0.652947
1.290	3.167439	0.136759	645.694925	-4.183880	13.620864	-1.629057	-2.109489	-0.647966
1.300	2.876141	0.265413	645.931419	-4.159531	13.704849	-1.645073	-2.121719	-0.643959
1.310	2.591187	0.330599	646.040329	-4.136901	13.759891	-1.652598	-2.129881	-0.640347
1.320	2.348910	0.329512	645.970200	-4.116772	13.776581	-1.652770	-2.132696	-0.637301
1.330	2.182604	0.273473	645.719796	-4.103765	13.750844	-1.646370	-2.129537	-0.635533
1.340	2.116540	0.183669	645.339581	-4.103762	13.684852	-1.633248	-2.120566	-0.635907
1.350	2.162523	0.084286	644.916018	-4.121070	13.586184	-1.612245	-2.106659	-0.639009
1.360	2.319498	-0.004326	644.544604	-4.156421	13.465557	-1.581666	-2.089158	-0.644862
1.370	2.575285	-0.070379	644.300702	-4.206283	13.333979	-1.540116	-2.069527	-0.652845
1.380	2.908990	-0.112229	644.218170	-4.263395	13.200344	-1.487372	-2.049049	-0.661794
1.390	3.293233	-0.136797	644.282755	-4.318269	13.070190	-1.424949	-2.028642	-0.670244
1.400	3.696255	-0.155576	644.441042	-4.361322	12.945829	-1.356144	-2.008846	-0.676760
1.410	4.084413	-0.179586	644.620166	-4.385146	12.827651	-1.285526	-1.989955	-0.680268
1.420	4.425415	-0.214999	644.751207	-4.386284	12.715990	-1.218037	-1.972232	-0.680306
1.430	4.692183	-0.261082	644.789396	-4.366068	12.612726	-1.158008	-1.956100	-0.677131
1.440	4.866648	-0.311241	644.725869	-4.330379	12.521828	-1.108391	-1.942194	-0.671662
1.450	4.942326	-0.356521	644.588169	-4.288486	12.448532	-1.070415	-1.931238	-0.665306
1.460	4.924733	-0.389788	644.429921	-4.251276	12.397606	-1.043669	-1.923810	-0.659696
1.470	4.829445	-0.408665	644.313224	-4.229236	12.371590	-1.026496	-1.920120	-0.656394
1.480	4.678583	-0.416214	644.289498	-4.230544	12.369826	-1.016498	-1.919917	-0.656622
1.490	4.496798	-0.419652	644.385032	-4.259714	12.388487	-1.011046	-1.922529	-0.661051
1.500	4.307629	-0.428181	644.595697	-4.317168	12.421315	-1.007771	-1.926993	-0.669748
1.510	4.130749	-0.450964	644.891304	-4.399966	12.460621	-1.005088	-1.932205	-0.682280
1.520	3.980367	-0.495706	645.226021	-4.503471	12.498256	-1.002634	-1.937035	-0.697968
1.530	3.864847	-0.567776	645.549812	-4.623339	12.526510	-1.001399	-1.940441	-0.716186
1.540	3.787342	-0.669762	645.817462	-4.757004	12.539019	-1.003321	-1.941573	-0.736587
1.550	3.747086	-0.801504	645.994167	-4.904021	12.531743	-1.010391	-1.939916	-0.759143
1.560	3.740875	-0.960676	646.058119	-5.065196	12.503796	-1.023644	-1.935398	-0.784016
1.570	3.764230	-1.143696	646.001082	-5.240929	12.457665	-1.042506	-1.928428	-0.811288
1.580	3.811871	-1.346371	645.828437	-5.429510	12.398525	-1.064809	-1.919786	-0.840705
1.590	3.877470	-1.563789	645.559849	-5.626117	12.332805	-1.087385	-1.910405	-0.871510
1.600	3.953162	-1.789629	645.229948	-5.823024	12.266556	-1.106941	-1.901114	-0.902473
1.610	4.029631	-2.015704	644.886600	-6.011127	12.204216	-1.120876	-1.892459	-0.932122
1.620	4.097470	-2.232403	644.584932	-6.182264	12.148110	-1.127867	-1.884641	-0.959108
1.630	4.149660	-2.429834	644.377513	-6.331405	12.098631	-1.128140	-1.877569	-0.982561
1.640	4.184026	-2.598911	644.302811	-6.457843	12.054755	-1.123402	-1.870977	-1.002299
1.650	4.204157	-2.731982	644.374733	-6.564949	12.014544	-1.116403	-1.864527	-1.018809
1.660	4.217908	-2.823331	644.576602	-6.658661	11.975560	-1.110193	-1.857895	-1.033029
1.670	4.233924	-2.870252	644.862982	-6.745319	11.935332	-1.107255	-1.850832	-1.046008
1.680	4.257727	-2.874705	645.170615	-6.829713	11.891956	-1.108788	-1.843227	-1.058590
1.690	4.289262	-2.844690	645.435583	-6.914032	11.844676	-1.114405	-1.835145	-1.071219
1.700	4.323072	-2.794160	645.610276	-6.997879	11.794066	-1.122308	-1.826809	-1.083917
1.710	4.350971	-2.740904	645.673962	-7.079015	11.741624	-1.129909	-1.818507	-1.096376
1.720	4.366051	-2.702713	645.634410	-7.154348	11.689026	-1.134717	-1.810471	-1.108111
1.730	4.366393	-2.692940	645.521874	-7.220891	11.637442	-1.135247	-1.802796	-1.118613
1.740	4.356996	-2.716879	645.378562	-7.276519	11.587162	-1.131625	-1.795405	-1.127481
1.750	4.349040	-2.770191	645.246769	-7.320366	11.537488	-1.125641	-1.788074	-1.134506
1.760	4.356688	-2.839845	645.158716	-7.352785	11.486884	-1.120160	-1.780474	-1.139686
1.770	4.392677	-2.907210	645.130925	-7.374916	11.433451	-1.118126	-1.772268	-1.143166
1.780	4.464310	-2.952432	645.164347	-7.387976	11.375714	-1.121563	-1.763227	-1.145131
1.790	4.570950	-2.959212	645.248492	-7.392460	11.313461	-1.131015	-1.753349	-1.145677
1.800	4.703472	-2.919036	645.365662	-7.387532	11.248248	-1.145602	-1.742926	-1.144705
1.810	4.845634	-2.833685	645.492742	-7.370899	11.183346	-1.163535	-1.732528	-1.141903
1.820	4.977159	-2.715111	645.601810	-7.339381	11.123187	-1.182738	-1.722918	-1.136828
1.830	5.078132	-2.582472	645.663465	-7.290010	11.072573	-1.201316	-1.714914	-1.129073
1.840	5.133791	-2.457163	645.654588	-7.221275	11.035763	-1.217800	-1.709236	-1.118442
1.850	5.138354	-2.357244	645.566816	-7.134135	11.015513	-1.231252	-1.706332	-1.105096
1.860	5.096599	-2.292755	645.409053	-7.032547	11.012147	-1.241317	-1.706228	-1.089626
1.870	5.022514	-2.263149	645.201150	-6.923305	11.023012	-1.248243	-1.708461	-1.073046
1.880	4.935270	-2.257752	644.963225	-6.815050	11.042738	-1.252841	-1.712150	-1.056657
1.890	4.853682	-2.259318	644.708583	-6.716507	11.064507	-1.256357	-1.716203	-1.041790
1.900	4.791129	-2.249596	644.444892	-6.634370	11.082059	-1.260239	-1.719629	-1.029471
1.910	4.752724	-2.214908	644.181664	-6.571553	11.091711	-1.265826	-1.721830	-1.020140
1.920	4.735553	-2.149774	643.937947	-6.526405	11.093548	-1.274035	-1.722767	-1.013515
1.930	4.731497	-2.057638	643.744778	-6.493255	11.091283	-1.285151	-1.722932	-1.008669
1.940	4.731203	-1.948960	643.640384	-6.464198	11.090834	-1.298779	-1.723141	-1.004318
1.950	4.727430	-1.837852	643.659630	-6.431624	11.098172	-1.313927	-1.724230	-0.999228
1.960	4.716448	-1.738615	643.821869	-6.390570	11.117235	-1.329195	-1.726756	-0.992599
1.970	4.697437	-1.663113	644.122482	-6.339964	11.148624	-1.343051	-1.730824	-0.984279
1.980	4.671036	-1.619098	644.531677	-6.282306	11.189468	-1.354144	-1.736062	-0.974709
1.990	4.638442	-1.609134	644.999867	-6.222042	11.234455	-1.361587	-1.741776	-0.964658
2.000	4.601450	-1.629927	645.466090	-6.163361	11.277674	-1.365100	-1.747214	-0.954870
2.010	4.562766	-1.672485	645.866980	-6.108340	11.314570	-1.365001	-1.751842	-0.945758
2.020	4.525695	-1.723591	646.146422	-6.056115	11.343320	-1.362027	-1.755534	-0.937267
2.030	4.493016	-1.768553	646.266403	-6.003310	11.365119	-1.357055	-1.758581	-0.928922
2.040	4.465815	-1.794430	646.216922	-5.945360	11.383383	-1.350822	-1.761542	-0.920025
2.050	4.443288	-1.792601	646.020373	-5.878068	11.402318	-1.343772	-1.765009	-0.909889
2.060	4.423872	-1.759887	645.726992	-5.798705	11.425507	-1.336026	-1.769402	-0.898012
2.070	4.406990	-1.698231	645.402245	-5.706290	11.454979	-1.327423	-1.774859	-0.884145
2.080	4.394066	-1.613562	645.110642	-5.601170	11.490937	-1.317595	-1.781235	-0.868250
2.090	4.387825	-1.514355	644.900801	-5.484509	11.532033	-1.306116	-1.788187	-0.850442
2.100	4.390080	-1.409996	644.794929	-5.358324	11.576012	-1.292763	-1.795301	-0.831012
2.110	4.399487	-1.308993	644.784796	-5.226153	11.620540	-1.277804	-1.802235	-0.810527
2.120	4.411008	-1.217506	644.835858	-5.093691	11.664009	-1.262162	-1.808834	-0.789921
2.130	4.417589	-1.138806	644.899592	-4.968570	11.706105	-1.247292	-1.815183	-0.770441
2.140	4.412956	-1.073778	644.930716	-4.858936	11.747906	-1.234775	-1.821576	-0.753404
2.150	4.393831	-1.021969	644.902958	-4.771304	11.791422	-1.225790	-1.828403	-0.739848
2.160	4.360456	-0.982465	644.816966	-4.708700	11.838758	-1.220719	-1.835987	-0.730238
2.170	4.315451	-0.954209	644.697362	-4.669944	11.891244	-1.219067	-1.844469	-0.724362
2.180	4.261834	-0.935877	644.581112	-4.650321	11.948919	-1.219696	-1.853750	-0.721449
2.190	4.201387	-0.925712	644.503488	-4.643164	12.010606	-1.221251	-1.863544	-0.720425
2.200	4.134314	-0.921607	644.488056	-4.641564	12.074498	-1.222571	-1.873502	-0.720194
2.210	4.060518	-0.921232	644.543161	-4.639606	12.138904	-1.222960	-1.883335	-0.719829
2.220	3.981867	-0.921910	644.662844	-4.633012	12.202715	-1.222297	-1.892883	-0.718672
2.230	3.903985	-0.920309	644.828891	-4.619438	12.265371	-1.220978	-1.902113	-0.716382
2.240	3.836040	-0.912479	645.012913	-4.598693	12.326483	-1.219713	-1.911044	-0.712961
2.250	3.788134	-0.894646	645.179741	-4.572814	12.385472	-1.219214	-1.919693	-0.708766
2.260	3.767464	-0.864780	645.293536	-4.545707	12.441592	-1.219905	-1.928052	-0.704440
2.270	3.775121	-0.824484	645.326210	-4.522109	12.494390	-1.221773	-1.936136	-0.700748
2.280	3.804972	-0.780303	645.265990	-4.506144	12.544402	-1.224364	-1.944067	-0.698339
2.290	3.844981	-0.743318	645.123525	-4.500059	12.593645	-1.226836	-1.952129	-0.697550
2.300	3.880319	-0.726408	644.933047	-4.503697	12.645451	-1.228073	-1.960739	-0.698320
2.310	3.897135	-0.739907	644.746583	-4.514884	12.703431	-1.226913	-1.970298	-0.700257
2.320	3.886135	-0.787509	644.621196	-4.530528	12.769906	-1.222488	-1.980994	-0.702820
