Time[s]	Fx[N]	Fy[N]	Fz[N]	Mx[Nm]	My[Nm]	Mz[Nm]	COPx[cm]	COPy[cm]
0.010	4.723490	2.865338	596.279952	11.985767	19.114091	-1.833562	-3.205557	2.010091
0.020	4.649160	3.045724	596.711828	12.071931	19.186209	-1.851939	-3.215322	2.023076
0.030	4.577504	3.194974	597.171330	12.144666	19.259612	-1.869580	-3.225140	2.033699
0.040	4.513532	3.288199	597.685014	12.191478	19.334222	-1.885537	-3.234851	2.039783
0.050	4.464714	3.310895	598.273582	12.203089	19.408293	-1.898695	-3.244050	2.039717
0.060	4.438515	3.260291	598.942988	12.174805	19.478323	-1.907973	-3.252116	2.032715
0.070	4.438648	3.144533	599.677090	12.107042	19.539595	-1.912635	-3.258353	2.018927
0.080	4.462357	2.980562	600.438100	12.004690	19.587244	-1.912632	-3.262159	1.999322
0.090	4.500452	2.790808	601.176619	11.875262	19.617446	-1.908823	-3.263175	1.975337
0.100	4.540214	2.598573	601.846977	11.726254	19.628158	-1.902917	-3.261320	1.948378
0.110	4.569932	2.422768	602.420530	11.562593	19.619062	-1.897029	-3.256705	1.919356
0.120	4.583272	2.273568	602.891058	11.385066	19.590761	-1.892920	-3.249469	1.888412
0.130	4.581893	2.150551	603.270911	11.190153	19.543630	-1.891211	-3.239611	1.854913
0.140	4.575424	2.043761	603.581272	10.971015	19.476814	-1.890935	-3.226875	1.817653
0.150	4.578895	1.936839	603.842025	10.719027	19.387779	-1.889700	-3.210737	1.775138
0.160	4.608619	1.810723	604.065386	10.425295	19.272623	-1.884504	-3.190486	1.725855
0.170	4.678012	1.646694	604.254282	10.082024	19.127070	-1.872933	-3.165401	1.668507
0.180	4.794770	1.428356	604.403683	9.683749	18.947791	-1.854277	-3.134956	1.602199
0.190	4.960183	1.143043	604.502003	9.228362	18.733496	-1.830087	-3.098996	1.526606
0.200	5.170467	0.783485	604.530734	8.717659	18.485427	-1.803918	-3.057814	1.442054
0.210	5.419239	0.350020	604.462981	8.157295	18.207329	-1.780326	-3.012150	1.349511
0.220	5.699972	-0.147355	604.263661	7.556295	17.905223	-1.763506	-2.963147	1.250496
0.230	6.007452	-0.688375	603.894233	6.926372	17.587114	-1.756068	-2.912284	1.146951
0.240	6.337887	-1.244357	603.322507	6.281077	17.262485	-1.758372	-2.861237	1.041081
0.250	6.687849	-1.782713	602.534442	5.634793	16.941454	-1.768626	-2.811699	0.935182
0.260	7.052432	-2.273261	601.542586	5.001645	16.633742	-1.783593	-2.765181	0.831470
0.270	7.423230	-2.694641	600.387200	4.394500	16.347772	-1.799558	-2.722872	0.731944
0.280	7.787120	-3.038797	599.130230	3.824141	16.090152	-1.813185	-2.685585	0.638282
0.290	8.126812	-3.311965	597.845881	3.298706	15.865594	-1.822034	-2.653793	0.551765
0.300	8.423351	-3.531780	596.612071	2.823389	15.677175	-1.824703	-2.627700	0.473237
0.310	8.659807	-3.721564	595.504820	2.400348	15.526716	-1.820720	-2.607320	0.403078
0.320	8.825099	-3.903806	594.594526	2.028655	15.415031	-1.810330	-2.592528	0.341183
0.330	8.917060	-4.094735	593.941586	1.704366	15.341940	-1.794349	-2.583072	0.286959
0.340	8.943863	-4.300938	593.589982	1.421025	15.306135	-1.774131	-2.578570	0.239395
0.350	8.922891	-4.518127	593.560073	1.170932	15.305147	-1.751591	-2.578534	0.197273
0.360	8.876608	-4.732028	593.843802	0.947100	15.335681	-1.729143	-2.582444	0.159486
0.370	8.826244	-4.921600	594.405685	0.745334	15.394283	-1.709449	-2.589861	0.125391
0.380	8.785375	-5.064276	595.190932	0.565616	15.478032	-1.694961	-2.600515	0.095031
0.390	8.755967	-5.141851	596.138317	0.412141	15.584793	-1.687390	-2.614291	0.069135
0.400	8.728549	-5.145036	597.192192	0.291694	15.712851	-1.687318	-2.631121	0.048844
0.410	8.686511	-5.075232	598.308260	0.210782	15.860190	-1.694083	-2.650839	0.035230
0.420	8.612908	-4.943365	599.451301	0.172650	16.023927	-1.705932	-2.673099	0.028801
0.430	8.497433	-4.766636	600.587243	0.175501	16.200237	-1.720382	-2.697400	0.029222
0.440	8.341145	-4.564563	601.674095	0.212748	16.384672	-1.734689	-2.723181	0.035359
0.450	8.157089	-4.355486	602.656166	0.275075	16.572556	-1.746342	-2.749919	0.045644
0.460	7.966148	-4.154201	603.464524	0.353313	16.759392	-1.753467	-2.777196	0.058548
0.470	7.789305	-3.970765	604.024081	0.440897	16.941444	-1.755100	-2.804763	0.072993
0.480	7.639299	-3.810279	604.265039	0.535144	17.116591	-1.751350	-2.832630	0.088561
0.490	7.515139	-3.673284	604.135450	0.637162	17.285241	-1.743428	-2.861153	0.105467
0.500	7.401807	-3.556314	603.612404	0.750645	17.450848	-1.733475	-2.891068	0.124359
0.510	7.275202	-3.452319	602.710491	0.879994	17.619620	-1.724153	-2.923397	0.146006
0.520	7.110410	-3.351291	601.486628	1.028317	17.799267	-1.718056	-2.959212	0.170963
0.530	6.890356	-3.241795	600.040455	1.195846	17.996973	-1.717122	-2.999293	0.199294
0.540	6.612001	-3.113636	598.508643	1.379206	18.217240	-1.722199	-3.043772	0.230440
0.550	6.288205	-2.960923	597.050759	1.571663	18.460489	-1.732910	-3.091946	0.263238
0.560	5.944758	-2.784210	595.826407	1.764293	18.723087	-1.747811	-3.142373	0.296109
0.570	5.613546	-2.590709	594.968462	1.947827	18.998853	-1.764783	-3.193254	0.327383
0.580	5.323876	-2.392596	594.561367	2.114772	19.281285	-1.781578	-3.242943	0.355686
0.590	5.094586	-2.204267	594.632214	2.261212	19.565462	-1.796408	-3.290347	0.380271
0.600	4.929555	-2.039599	595.156211	2.387608	19.848818	-1.808416	-3.335060	0.401173
0.610	4.818145	-1.909621	596.071641	2.498196	20.130610	-1.817820	-3.377213	0.419110
0.620	4.740240	-1.820601	597.296995	2.599095	20.410492	-1.825617	-3.417143	0.435143
0.630	4.673846	-1.772771	598.744789	2.695800	20.686862	-1.832941	-3.455038	0.450242
0.640	4.602569	-1.760384	600.329791	2.790986	20.955689	-1.840426	-3.490696	0.464909
0.650	4.520608	-1.773554	601.971434	2.883428	21.210332	-1.847865	-3.523478	0.478997
0.660	4.433828	-1.801411	603.591557	2.968396	21.442500	-1.854295	-3.552485	0.491789
0.670	4.356711	-1.835358	605.110492	3.039267	21.643977	-1.858415	-3.576864	0.502266
0.680	4.306405	-1.871070	606.445888	3.089703	21.808449	-1.859111	-3.596108	0.509477
0.690	4.296181	-1.908474	607.516827	3.115586	21.932731	-1.855879	-3.610226	0.512839
0.700	4.330881	-1.949996	608.251606	3.116063	22.017082	-1.848998	-3.619733	0.512298
0.710	4.405986	-1.998330	608.595347	3.093434	22.064686	-1.839445	-3.625510	0.508291
0.720	4.510200	-2.055038	608.515179	3.052111	22.080692	-1.828622	-3.628618	0.501567
0.730	4.629874	-2.120332	608.003381	2.997266	22.071225	-1.818017	-3.630116	0.492969
0.740	4.753091	-2.193356	607.079437	2.933774	22.042622	-1.808897	-3.630929	0.483260
0.750	4.871879	-2.272069	605.790547	2.865740	22.000971	-1.802148	-3.631779	0.473058
0.760	4.982192	-2.352590	604.208980	2.796438	21.951946	-1.798341	-3.633171	0.462826
0.770	5.082155	-2.428621	602.425652	2.728443	21.900872	-1.797921	-3.635448	0.452910
0.780	5.169531	-2.491801	600.542092	2.663762	21.853019	-1.801306	-3.638882	0.443560
0.790	5.239704	-2.533254	598.664312	2.603926	21.813943	-1.808754	-3.643769	0.434956
0.800	5.285209	-2.545975	596.899534	2.549934	21.789683	-1.820037	-3.650478	0.427197
0.810	5.297039	-2.527243	595.352667	2.502059	21.786617	-1.834168	-3.659447	0.420265
0.820	5.266991	-2.480291	594.118749	2.459641	21.810996	-1.849390	-3.671151	0.413998
0.830	5.189914	-2.414584	593.271557	2.421190	21.868343	-1.863509	-3.686060	0.408108
0.840	5.065024	-2.344209	592.852771	2.384942	21.962906	-1.874454	-3.704614	0.402282
0.850	4.896016	-2.284464	592.866211	2.349747	22.097233	-1.880824	-3.727187	0.396337
0.860	4.690044	-2.247730	593.278186	2.315912	22.271835	-1.882244	-3.754029	0.390359
0.870	4.455761	-2.240318	594.022161	2.285643	22.484944	-1.879477	-3.785203	0.384774
0.880	4.200753	-2.261378	595.006254	2.262987	22.732532	-1.874338	-3.820553	0.380330
0.890	3.929088	-2.303702	596.123829	2.253362	23.008824	-1.869455	-3.859739	0.378002
0.900	3.640083	-2.355626	597.267973	2.262715	23.307309	-1.867874	-3.902320	0.378844
0.910	3.329209	-2.403544	598.348723	2.296247	23.621832	-1.872520	-3.947837	0.383764
0.920	2.991166	-2.434842	599.309243	2.356721	23.947120	-1.885520	-3.995787	0.393240
0.930	2.624050	-2.440877	600.135995	2.442742	24.278346	-1.907487	-4.045474	0.407031
0.940	2.233094	-2.419260	600.859021	2.547810	24.609877	-1.936983	-4.095782	0.424028
0.950	1.832926	-2.374695	601.541141	2.660940	24.933913	-1.970487	-4.145005	0.442354
0.960	1.447800	-2.318100	602.257970	2.769061	25.239814	-2.003040	-4.190864	0.459780
0.970	1.109408	-2.264328	603.073415	2.860568	25.514685	-2.029465	-4.230776	0.474332
0.980	0.851833	-2.229120	604.016658	2.928745	25.745199	-2.045815	-4.262333	0.484878
0.990	0.703904	-2.225968	605.066572	2.973735	25.920102	-2.050560	-4.283843	0.491472
1.000	0.680624	-2.263356	606.148078	3.002224	26.032528	-2.045056	-4.294747	0.495295
1.010	0.776854	-2.342598	607.142354	3.024870	26.081301	-2.033076	-4.295747	0.498214
1.020	0.966527	-2.456507	607.909210	3.052472	26.070771	-2.019529	-4.288596	0.502126
1.030	1.208706	-2.589373	608.316162	3.092444	26.009346	-2.008901	-4.275630	0.508361
1.040	1.458607	-2.718725	608.266421	3.147052	25.907410	-2.004047	-4.259221	0.517381
1.050	1.679328	-2.819077	607.718698	3.213997	25.775445	-2.005722	-4.241345	0.528863
1.060	1.849806	-2.867182	606.695126	3.288898	25.622885	-2.012850	-4.223354	0.542101
1.070	1.966509	-2.847551	605.277723	3.368574	25.457656	-2.023226	-4.205946	0.556534
1.080	2.039282	-2.756548	603.596764	3.453898	25.286002	-2.034259	-4.189221	0.572219
1.090	2.084055	-2.603587	601.815366	3.551140	25.112211	-2.043505	-4.172743	0.590071
1.100	2.115775	-2.408901	600.112967	3.671128	24.938216	-2.048962	-4.155587	0.611739
1.110	2.144075	-2.198469	598.667400	3.826238	24.763403	-2.049293	-4.136421	0.639126
1.120	2.172570	-1.997424	597.633667	4.026228	24.584916	-2.044083	-4.113710	0.673695
1.130	2.200984	-1.823715	597.119738	4.274650	24.398520	-2.034022	-4.086035	0.715878
1.140	2.228309	-1.683695	597.164791	4.567568	24.199819	-2.020823	-4.052452	0.764876
1.150	2.255168	-1.570817	597.729016	4.895143	23.985502	-2.006772	-4.012772	0.818957
1.160	2.284488	-1.467822	598.702107	5.245166	23.754233	-1.994095	-3.967621	0.876089
1.170	2.320792	-1.351947	599.929414	5.606672	23.506841	-1.984420	-3.918268	0.934555
1.180	2.369098	-1.201702	601.245687	5.971929	23.245675	-1.978537	-3.866252	0.993259
1.190	2.434198	-1.003165	602.503106	6.336187	22.973367	-1.976423	-3.812987	1.051644
1.200	2.520240	-0.753883	603.585448	6.695857	22.691552	-1.977413	-3.759460	1.109347
1.210	2.630152	-0.463451	604.409613	7.046516	22.400132	-1.980362	-3.706118	1.165851
1.220	2.764961	-0.150974	604.922262	7.382017	22.097291	-1.983809	-3.652914	1.220325
1.230	2.923581	0.159628	605.098962	7.695123	21.780078	-1.986149	-3.599424	1.271713
1.240	3.103510	0.445060	604.947720	7.979060	21.445120	-1.985866	-3.544954	1.318967
1.250	3.302051	0.687235	604.512804	8.228922	21.089242	-1.981817	-3.488634	1.361249
1.260	3.517160	0.875616	603.872651	8.442204	20.709879	-1.973486	-3.429511	1.398011
1.270	3.747233	1.007021	603.128874	8.618539	20.305370	-1.961076	-3.366672	1.428971
1.280	3.990158	1.083882	602.389011	8.759192	19.875172	-1.945375	-3.299391	1.454076
1.290	4.242714	1.112582	601.748609	8.866746	19.420024	-1.927492	-3.227265	1.473497
1.300	4.501390	1.102741	601.276651	8.944963	18.942024	-1.908602	-3.150301	1.487662
1.310	4.764568	1.067036	601.005644	8.998592	18.444604	-1.889824	-3.068957	1.497256
1.320	5.034629	1.020341	600.927382	9.032941	17.932459	-1.872188	-2.984131	1.503167
1.330	5.317979	0.977419	600.996316	9.053187	17.411462	-1.856629	-2.897100	1.506363
1.340	5.622054	0.949726	601.141311	9.063386	16.888426	-1.843945	-2.809394	1.507696
1.350	5.950402	0.942838	601.283099	9.065295	16.370582	-1.834720	-2.722608	1.507658
1.360	6.298453	0.955833	601.351722	9.057461	15.864785	-1.829223	-2.638187	1.506184
1.370	6.652422	0.982736	601.297937	9.035239	15.376812	-1.827309	-2.557270	1.502623
1.380	6.992170	1.015087	601.095113	8.992091	14.911107	-1.828362	-2.480657	1.495951
1.390	7.296794	1.044294	600.732705	8.921787	14.471038	-1.831344	-2.408898	1.485151
1.400	7.550532	1.062850	600.206630	8.820536	14.059423	-1.835009	-2.342430	1.469583
1.410	7.746577	1.064226	599.513447	8.688113	13.678923	-1.838162	-2.281671	1.449194
1.420	7.887436	1.042105	598.653236	8.527627	13.332056	-1.839843	-2.227008	1.424468
1.430	7.982157	0.990036	597.641251	8.344279	13.020862	-1.839335	-2.178709	1.396202
1.440	8.042024	0.902179	596.522985	8.143855	12.746446	-1.836051	-2.136790	1.365221
1.450	8.076616	0.774863	595.384046	7.931601	12.508603	-1.829400	-2.100930	1.332182
1.460	8.091325	0.607910	594.347260	7.711718	12.305637	-1.818784	-2.070446	1.297510
1.470	8.086661	0.404788	593.554570	7.487281	12.134355	-1.803732	-2.044354	1.261431
1.480	8.059202	0.171369	593.138457	7.260226	11.990211	-1.784165	-2.021486	1.224036
1.490	8.003901	-0.086075	593.192661	7.031250	11.867588	-1.760618	-2.000630	1.185323
1.500	7.917085	-0.362520	593.752110	6.799723	11.760277	-1.734295	-1.980671	1.145212
1.510	7.799201	-0.654419	594.787606	6.563835	11.662106	-1.706872	-1.960718	1.103559
1.520	7.656436	-0.958342	596.214905	6.321171	11.567549	-1.680125	-1.940164	1.060217
1.530	7.500709	-1.269108	597.913007	6.069670	11.472183	-1.655581	-1.918704	1.015143
1.540	7.348002	-1.578969	599.744680	5.808675	11.372895	-1.634374	-1.896289	0.968525
1.550	7.215131	-1.878770	601.573934	5.539648	11.267786	-1.617317	-1.873051	0.920859
1.560	7.115503	-2.160624	603.278932	5.266207	11.155739	-1.605004	-1.849184	0.872931
1.570	7.055198	-2.420618	604.761338	4.993447	11.035699	-1.597786	-1.824802	0.825689
1.580	7.031243	-2.660023	605.952552	4.726714	10.905937	-1.595554	-1.799801	0.780047
1.590	7.033306	-2.884477	606.815269	4.470163	10.763622	-1.597414	-1.773789	0.736660
1.600	7.048250	-3.101736	607.338632	4.225567	10.604938	-1.601496	-1.746133	0.695751
1.610	7.065461	-3.318989	607.527937	3.991905	10.425800	-1.605156	-1.716102	0.657073
1.620	7.080713	-3.540427	607.393591	3.766134	10.223009	-1.605660	-1.683095	0.620048
1.630	7.097280	-3.765467	606.945343	3.545091	9.995525	-1.601107	-1.646858	0.584087
1.640	7.124215	-3.988165	606.194915	3.327832	9.745360	-1.591151	-1.607628	0.548971
1.650	7.172650	-4.198394	605.164844	3.117410	9.477640	-1.577183	-1.566125	0.515134
1.660	7.251528	-4.384823	603.898059	2.921284	9.199675	-1.561934	-1.523382	0.483738
1.670	7.364408	-4.538743	602.463185	2.750199	8.919310	-1.548731	-1.480474	0.456492
1.680	7.508597	-4.657002	600.953032	2.615851	8.643189	-1.540664	-1.438247	0.435284
1.690	7.676747	-4.742457	599.475784	2.527924	8.375639	-1.539840	-1.397160	0.421689
1.700	7.859612	-4.801654	598.139928	2.491210	8.118677	-1.546867	-1.357321	0.416493
1.710	8.048046	-4.841116	597.035499	2.503764	7.873112	-1.560743	-1.318701	0.419366
1.720	8.233042	-4.864367	596.215792	2.557034	7.640179	-1.579223	-1.281445	0.428877
1.730	8.404279	-4.870894	595.685122	2.638342	7.422868	-1.599591	-1.246106	0.442909
1.740	8.548958	-4.856711	595.398414	2.734993	7.226272	-1.619576	-1.213687	0.459355
1.750	8.652642	-4.815605	595.275500	2.838316	7.056843	-1.638028	-1.185475	0.476807
1.760	8.702313	-4.740700	595.226744	2.945874	6.921022	-1.655083	-1.162754	0.494916
1.770	8.690086	-4.626403	595.180627	3.060960	6.823888	-1.671699	-1.146524	0.514291
1.780	8.615372	-4.470540	595.103101	3.189840	6.768231	-1.688846	-1.137321	0.536015
1.790	8.484149	-4.275983	595.003642	3.338181	6.754108	-1.706756	-1.135137	0.561035
1.800	8.305950	-4.051227	594.929687	3.508319	6.778767	-1.724647	-1.139423	0.589703
1.810	8.090645	-3.809766	594.954035	3.698403	6.836842	-1.740996	-1.149138	0.621628
1.820	7.846976	-3.568317	595.158317	3.903516	6.920782	-1.754107	-1.162847	0.655879
1.830	7.583311	-3.344059	595.613825	4.117930	7.021542	-1.762656	-1.178875	0.691376
1.840	7.309490	-3.151289	596.361884	4.337312	7.129534	-1.765985	-1.195505	0.727295
1.850	7.038269	-2.998341	597.398397	4.559913	7.235747	-1.764162	-1.211210	0.763295
1.860	6.785353	-2.885803	598.668353	4.786454	7.332934	-1.757872	-1.224874	0.799517
1.870	6.567782	-2.806671	600.073942	5.019008	7.416628	-1.748234	-1.235952	0.836398
1.880	6.401098	-2.748453	601.494561	5.259458	7.485614	-1.736611	-1.244502	0.874398
1.890	6.296317	-2.696737	602.810806	5.508006	7.541476	-1.724457	-1.251052	0.913721
1.900	6.257908	-2.639248	603.922300	5.762166	7.587301	-1.713172	-1.256337	0.954124
1.910	6.283471	-2.568990	604.753727	6.016522	7.626168	-1.703872	-1.261037	0.994871
1.920	6.364569	-2.485125	605.252230	6.263522	7.660259	-1.697087	-1.265631	1.034862
1.930	6.487557	-2.391207	605.385060	6.495287	7.690904	-1.692484	-1.270415	1.072918
1.940	6.633996	-2.291564	605.144430	6.705956	7.719083	-1.688870	-1.275577	1.108158
1.950	6.781562	-2.187546	604.558966	6.893694	7.745623	-1.684583	-1.281202	1.140285
1.960	6.906762	-2.075533	603.704104	7.061405	7.770704	-1.678163	-1.287171	1.169680
1.970	6.989645	-1.948010	602.702011	7.215706	7.793026	-1.668920	-1.293015	1.197226
1.980	7.019015	-1.797719	601.705812	7.364461	7.809336	-1.657091	-1.297866	1.223930
1.990	6.995803	-1.623325	600.870573	7.513875	7.814839	-1.643528	-1.300586	1.250498
2.000	6.932843	-1.433981	600.320501	7.666430	7.804484	-1.629166	-1.300053	1.277056
2.010	6.850992	-1.250203	600.124009	7.820511	7.774601	-1.614631	-1.295499	1.303149
2.020	6.773219	-1.099628	600.284543	7.971696	7.724083	-1.600171	-1.286737	1.327986
2.030	6.718966	-1.008476	600.747684	8.114858	7.654506	-1.585916	-1.274163	1.350793
2.040	6.700623	-0.991959	601.418821	8.246106	7.569205	-1.572265	-1.258558	1.371109
2.050	6.722853	-1.047855	602.183892	8.363940	7.471927	-1.560137	-1.240805	1.388934
2.060	6.784223	-1.156144	602.928105	8.469449	7.365764	-1.550878	-1.221665	1.404720
2.070	6.879707	-1.284685	603.551194	8.565734	7.252671	-1.545817	-1.201666	1.419223
2.080	7.002574	-1.398464	603.979806	8.656941	7.133463	-1.545665	-1.181076	1.433316
2.090	7.145043	-1.468986	604.176690	8.747274	7.008034	-1.550050	-1.159931	1.447801
2.100	7.298239	-1.480918	604.144190	8.840282	6.875667	-1.557443	-1.138084	1.463274
2.110	7.452543	-1.434342	603.919026	8.938472	6.735416	-1.565541	-1.115285	1.480078
2.120	7.599006	-1.342369	603.557659	9.043155	6.586621	-1.571985	-1.091299	1.498308
2.130	7.731380	-1.225196	603.115226	9.154257	6.429677	-1.575127	-1.066078	1.517829
2.140	7.847491	-1.102863	602.624411	9.269981	6.266957	-1.574575	-1.039944	1.538268
2.150	7.948858	-0.989438	602.082491	9.386564	6.103529	-1.571314	-1.013736	1.559016
2.160	8.038524	-0.890699	601.453603	9.498634	5.947072	-1.567319	-0.988783	1.579280
2.170	8.118155	-0.805775	600.687697	9.600460	5.806710	-1.564753	-0.966677	1.598245
2.180	8.185719	-0.731248	599.749833	9.687837	5.691017	-1.565060	-0.948898	1.615313
2.190	8.234828	-0.665137	598.648270	9.759828	5.605897	-1.568352	-0.936426	1.630311
2.200	8.256341	-0.608699	597.449846	9.819497	5.553110	-1.573397	-0.929469	1.643568
2.210	8.242091	-0.565776	596.275830	9.873214	5.529869	-1.578202	-0.927401	1.655813
2.220	8.189389	-0.541026	595.278626	9.928838	5.529683	-1.580886	-0.928923	1.667931
2.230	8.104145	-0.538483	594.606701	9.993595	5.544254	-1.580423	-0.932424	1.680707
2.240	8.000628	-0.560659	594.368938	10.072476	5.565880	-1.576959	-0.936435	1.694650
2.250	7.897543	-0.607426	594.608596	10.167458	5.589471	-1.571618	-0.940025	1.709941
2.260	7.812022	-0.674267	595.292973	10.277406	5.613466	-1.565988	-0.942975	1.726445
2.270	7.754301	-0.750879	596.320383	10.398443	5.639480	-1.561541	-0.945713	1.743768
2.280	7.725377	-0.821730	597.542114	10.524742	5.671089	-1.559235	-0.949069	1.761339
2.290	7.718379	-0.869324	598.793749	10.649683	5.712363	-1.559325	-0.953978	1.778523
2.300	7.722671	-0.879357	599.927946	10.767189	5.766614	-1.561358	-0.961218	1.794747
2.310	7.728581	-0.845816	600.840579	10.872852	5.835555	-1.564333	-0.971232	1.809607
2.320	7.730769	-0.773897	601.484171	10.964534	5.918853	-1.567029	-0.984041	1.822913
2.330	7.729156	-0.679288	601.866098	11.042394	6.014147	-1.568454	-0.999250	1.834693
2.340	7.727380	-0.583618	602.033314	11.108584	6.117586	-1.568257	-1.016154	1.845178
2.350	7.729576	-0.507374	602.049513	11.166868	6.224779	-1.566915	-1.033931	1.854809
2.360	7.736973	-0.462802	601.972916	11.222184	6.331803	-1.565601	-1.051842	1.864234
2.370	7.746112	-0.449539	601.841675	11.279945	6.435888	-1.565762	-1.069366	1.874238
2.380	7.749739	-0.454668	601.669980	11.344866	6.535603	-1.568617	-1.086244	1.885563
