Time[s]	Fx[N]	Fy[N]	Fz[N]	Mx[Nm]	My[Nm]	Mz[Nm]	COPx[cm]	COPy[cm]
0.010	1.830119	-8.284641	583.538537	5.970246	4.982097	0.393662	-0.853773	1.023111
0.020	1.833215	-8.283551	583.859655	5.921808	4.958368	0.385182	-0.849240	1.014252
0.030	1.839304	-8.271134	584.232718	5.872179	4.936465	0.380672	-0.844948	1.005110
0.040	1.847435	-8.240267	584.694653	5.820250	4.916774	0.382587	-0.840913	0.995434
0.050	1.852643	-8.191463	585.254544	5.764680	4.897517	0.390808	-0.836818	0.984987
0.060	1.848392	-8.132173	585.893892	5.703708	4.875062	0.403022	-0.832072	0.973505
0.070	1.830424	-8.073809	586.575961	5.635065	4.844992	0.415988	-0.825979	0.960671
0.080	1.799629	-8.028488	587.258333	5.556260	4.803424	0.426991	-0.817940	0.946136
0.090	1.762637	-8.006824	587.902224	5.465247	4.747925	0.434792	-0.807605	0.929618
0.100	1.730339	-8.016855	588.475650	5.361200	4.677642	0.439787	-0.794874	0.911032
0.110	1.715366	-8.063252	588.952202	5.244968	4.592689	0.443447	-0.779807	0.890559
0.120	1.729457	-8.146336	589.309381	5.119012	4.493236	0.447406	-0.762458	0.868646
0.130	1.781046	-8.261340	589.529194	4.986972	4.378842	0.452633	-0.742769	0.845925
0.140	1.873281	-8.398759	589.601104	4.853103	4.248395	0.459085	-0.720554	0.823116
0.150	2.002791	-8.545996	589.525688	4.721747	4.100647	0.465961	-0.695584	0.800940
0.160	2.159556	-8.689756	589.316420	4.596824	3.935012	0.472361	-0.667725	0.780026
0.170	2.328060	-8.818453	588.997066	4.481208	3.752205	0.477921	-0.637050	0.760820
0.180	2.489821	-8.924058	588.594527	4.376069	3.554487	0.482977	-0.603894	0.743478
0.190	2.627257	-9.002990	588.130804	4.280515	3.345427	0.488167	-0.568824	0.727817
0.200	2.728188	-9.055906	587.619550	4.191918	3.129366	0.493769	-0.532550	0.713373
0.210	2.789619	-9.086574	587.070011	4.106995	2.910747	0.499304	-0.495809	0.699575
0.220	2.819390	-9.100344	586.495857	4.023195	2.693460	0.503709	-0.459246	0.685972
0.230	2.834993	-9.102731	585.922701	3.939730	2.480219	0.505887	-0.423301	0.672398
0.240	2.859505	-9.098431	585.388509	3.857817	2.272139	0.505218	-0.388142	0.659018
0.250	2.915310	-9.090819	584.935203	3.780061	2.068782	0.501713	-0.353677	0.646236
0.260	3.017101	-9.081716	584.595087	3.709283	1.868861	0.495833	-0.319685	0.634505
0.270	3.166453	-9.071371	584.379020	3.647252	1.671364	0.488259	-0.286007	0.624124
0.280	3.350347	-9.058909	584.272661	3.593849	1.476511	0.479770	-0.252709	0.615098
0.290	3.544727	-9.043487	584.243082	3.547021	1.286004	0.471283	-0.220115	0.607114
0.300	3.722096	-9.025852	584.252939	3.503406	1.102423	0.463947	-0.188689	0.599639
0.310	3.860281	-9.009384	584.275708	3.459056	0.928206	0.459234	-0.158864	0.592025
0.320	3.948976	-8.999836	584.304872	3.409669	0.764796	0.458946	-0.130890	0.583543
0.330	3.991619	-9.003991	584.353150	3.350347	0.612283	0.465008	-0.104780	0.573343
0.340	4.002437	-9.028207	584.443241	3.275453	0.469436	0.478983	-0.080322	0.560440
0.350	4.000664	-9.077793	584.595904	3.179198	0.333891	0.501413	-0.057115	0.543828
0.360	4.004806	-9.157305	584.821480	3.057184	0.202471	0.531320	-0.034621	0.522755
0.370	4.029066	-9.270973	585.117897	2.908523	0.071736	0.566135	-0.012260	0.497083
0.380	4.082299	-9.422143	585.474002	2.737672	-0.061221	0.602121	0.010457	0.467599
0.390	4.168366	-9.611202	585.874400	2.554900	-0.197958	0.635097	0.033788	0.436083
0.400	4.286432	-9.832696	586.301987	2.374728	-0.338120	0.661247	0.057670	0.405035
0.410	4.430522	-10.073413	586.736660	2.212554	-0.479318	0.677853	0.081692	0.377095
0.420	4.588980	-10.313200	587.151493	2.080575	-0.617386	0.683852	0.105149	0.354351
0.430	4.744991	-10.529022	587.509581	1.984535	-0.746977	0.680021	0.127143	0.337788
0.440	4.878937	-10.701137	587.765016	1.922598	-0.862432	0.668625	0.146731	0.327103
0.450	4.972350	-10.818854	587.869975	1.886857	-0.958810	0.652608	0.163099	0.320965
0.460	5.012472	-10.883155	587.786999	1.866878	-1.032801	0.634679	0.175710	0.317611
0.470	4.996112	-10.904684	587.502122	1.853805	-1.083218	0.616653	0.184377	0.315540
0.480	4.931457	-10.897973	587.032643	1.843347	-1.110989	0.599215	0.189255	0.314011
0.490	4.836793	-10.874761	586.425415	1.836679	-1.118730	0.582050	0.190771	0.313199
0.500	4.736102	-10.839593	585.746667	1.839326	-1.110083	0.564185	0.189516	0.314014
0.510	4.652861	-10.789394	585.068229	1.858936	-1.088896	0.544381	0.186114	0.317730
0.520	4.604207	-10.716505	584.454930	1.902970	-1.058314	0.521529	0.181077	0.325597
0.530	4.597255	-10.613196	583.955518	1.976962	-1.019936	0.495016	0.174660	0.338547
0.540	4.628218	-10.475544	583.597526	2.083580	-0.973357	0.465034	0.166786	0.357023
0.550	4.683912	-10.305418	583.386173	2.222464	-0.916367	0.432703	0.157077	0.380959
0.560	4.744844	-10.110288	583.307679	2.390858	-0.845755	0.399841	0.144993	0.409879
0.570	4.789192	-9.901153	583.336456	2.584940	-0.758286	0.368360	0.129991	0.443130
0.580	4.797064	-9.689177	583.443963	2.801485	-0.651371	0.339484	0.111642	0.480164
0.590	4.754215	-9.481997	583.606385	3.039266	-0.523263	0.313222	0.089660	0.520773
0.600	4.654389	-9.280904	583.809310	3.299664	-0.373025	0.288472	0.063895	0.565196
0.610	4.500078	-9.080036	584.048986	3.586310	-0.200674	0.263810	0.034359	0.614043
0.620	4.302210	-8.868183	584.330523	3.903754	-0.007677	0.238543	0.001314	0.668073
0.630	4.079215	-8.632983	584.663698	4.255379	0.202422	0.213438	-0.034622	0.727834
0.640	3.855139	-8.366222	585.057415	4.641076	0.423774	0.190775	-0.072433	0.793268
0.650	3.656050	-8.068293	585.514340	5.055564	0.648800	0.173738	-0.110809	0.863440
0.660	3.504542	-7.749961	586.027222	5.488186	0.869557	0.165461	-0.148382	0.936507
0.670	3.413554	-7.430669	586.577654	5.924380	1.079353	0.168090	-0.184008	1.009991
0.680	3.382065	-7.134014	587.137227	6.348227	1.273863	0.182134	-0.216962	1.081217
0.690	3.395354	-6.882043	587.670907	6.745129	1.451307	0.206301	-0.246959	1.147773
0.700	3.430727	-6.690175	588.142319	7.103846	1.611766	0.237843	-0.274044	1.207845
0.710	3.466558	-6.564074	588.519487	7.417525	1.756117	0.273224	-0.298396	1.260370
0.720	3.490337	-6.499008	588.778610	7.683681	1.885121	0.308798	-0.320175	1.305020
0.730	3.501781	-6.481485	588.904630	7.903316	1.999025	0.341333	-0.339448	1.342037
0.740	3.509843	-6.492536	588.889890	8.079589	2.097790	0.368362	-0.356228	1.372003
0.750	3.525597	-6.511975	588.733129	8.216546	2.181784	0.388470	-0.370590	1.395632
0.760	3.554698	-6.523055	588.439387	8.318244	2.252501	0.401489	-0.382792	1.413611
0.770	3.592835	-6.516633	588.019577	8.388302	2.312813	0.408478	-0.393322	1.426535
0.780	3.626048	-6.493435	587.489216	8.429681	2.366548	0.411360	-0.402824	1.434866
0.790	3.635684	-6.463093	586.867719	8.444513	2.417609	0.412318	-0.411951	1.438912
0.800	3.605896	-6.439963	586.179738	8.434028	2.469127	0.413217	-0.421224	1.438813
0.810	3.530528	-6.437550	585.457948	8.398669	2.523072	0.415352	-0.430957	1.434547
0.820	3.416532	-6.464283	584.744927	8.338445	2.580404	0.419542	-0.441287	1.425997
0.830	3.282595	-6.522457	584.091481	8.253490	2.641629	0.426364	-0.452263	1.413048
0.840	3.153655	-6.610148	583.549743	8.144664	2.707491	0.436219	-0.463969	1.395710
0.850	3.053410	-6.724347	583.161581	8.013966	2.779649	0.449150	-0.476652	1.374227
0.860	2.997162	-6.863377	582.946241	7.864594	2.861144	0.464542	-0.490808	1.349111
0.870	2.986742	-7.027559	582.893202	7.700623	2.956548	0.480946	-0.507220	1.321104
0.880	3.008604	-7.218228	582.964490	7.526368	3.071748	0.496167	-0.526919	1.291051
0.890	3.035666	-7.435920	583.106282	7.345588	3.213452	0.507578	-0.551092	1.259734
0.900	3.032870	-7.678656	583.265729	7.160798	3.388555	0.512604	-0.580962	1.227708
0.910	2.965469	-7.940892	583.407398	6.973023	3.603365	0.509328	-0.617641	1.195224
0.920	2.808172	-8.213345	583.524123	6.782221	3.862633	0.497118	-0.661949	1.162286
0.930	2.552877	-8.483705	583.639012	6.588281	4.168408	0.477072	-0.714210	1.128828
0.940	2.212809	-8.737973	583.798259	6.392197	4.519034	0.452036	-0.774075	1.094932
0.950	1.821402	-8.961944	584.057202	6.196879	4.908626	0.426020	-0.840436	1.061006
0.960	1.425365	-9.142336	584.463650	6.007341	5.327346	0.403140	-0.911493	1.027838
0.970	1.073181	-9.267609	585.042772	5.830295	5.762553	0.386466	-0.984980	0.996559
0.980	0.802258	-9.328982	585.787230	5.673431	6.200646	0.377170	-1.058515	0.968514
0.990	0.629006	-9.322149	586.654993	5.544464	6.629145	0.374263	-1.129990	0.945098
1.000	0.545498	-9.249522	587.575533	5.449935	7.038318	0.374932	-1.197857	0.927529
1.010	0.523842	-9.122199	588.462842	5.393767	7.421854	0.375331	-1.261227	0.916586
1.020	0.526060	-8.960335	589.231687	5.375974	7.776600	0.371634	-1.319786	0.912370
1.030	0.514951	-8.790861	589.812604	5.392092	8.101868	0.361165	-1.373634	0.914204
1.040	0.461845	-8.642363	590.161979	5.433776	8.398834	0.343331	-1.423141	0.920726
1.050	0.349830	-8.538282	590.265745	5.490481	8.670097	0.319989	-1.468846	0.930171
1.060	0.173974	-8.490630	590.137684	5.551755	8.919090	0.294954	-1.511357	0.940756
1.070	-0.058860	-8.496705	589.814764	5.609618	9.149105	0.272695	-1.551183	0.951081
1.080	-0.329273	-8.540248	589.351741	5.660504	9.361967	0.256678	-1.588519	0.960463
1.090	-0.604927	-8.596620	588.815237	5.706189	9.556828	0.248081	-1.623061	0.969097
1.100	-0.843417	-8.639964	588.275330	5.753061	9.729730	0.245509	-1.653941	0.977954
1.110	-1.000425	-8.649898	587.793133	5.809578	9.874451	0.245891	-1.679919	0.988371
1.120	-1.042001	-8.615935	587.406644	5.882579	9.984576	0.246088	-1.699772	1.001449
1.130	-0.956639	-8.538922	587.120925	5.973936	10.056044	0.244401	-1.712772	1.017497
1.140	-0.761901	-8.429560	586.908178	6.079026	10.089051	0.241184	-1.719017	1.035771
1.150	-0.502065	-8.304575	586.718636	6.187821	10.088457	0.238379	-1.719471	1.054649
1.160	-0.236684	-8.181758	586.498475	6.288198	10.062538	0.238306	-1.715697	1.072159
1.170	-0.023451	-8.075418	586.209363	6.370191	10.020664	0.242425	-1.709400	1.086675
1.180	0.098844	-7.993590	585.844479	6.429413	9.970929	0.250666	-1.701975	1.097461
1.190	0.121379	-7.937507	585.435869	6.468232	9.918559	0.261589	-1.694218	1.104857
1.200	0.066828	-7.903192	585.049036	6.494291	9.865407	0.273138	-1.686253	1.110042
1.210	-0.018635	-7.884487	584.764666	6.517131	9.810295	0.283556	-1.677648	1.114488
1.220	-0.079724	-7.876442	584.653008	6.544449	9.749806	0.292006	-1.667623	1.119373
1.230	-0.068197	-7.877613	584.750207	6.579472	9.679341	0.298684	-1.655295	1.125177
1.240	0.043801	-7.890209	585.045340	6.620303	9.594400	0.304467	-1.639941	1.131588
1.250	0.256623	-7.918224	585.481945	6.661215	9.492022	0.310336	-1.621232	1.137732
1.260	0.543686	-7.964893	585.971766	6.695157	9.371999	0.316899	-1.599394	1.142573
1.270	0.859037	-8.030835	586.415358	6.716414	9.237407	0.324210	-1.575233	1.145334
1.280	1.149640	-8.113441	586.724816	6.722568	9.094175	0.331906	-1.549990	1.145779
1.290	1.369314	-8.207361	586.845108	6.715293	8.949859	0.339470	-1.525080	1.144304
1.300	1.490796	-8.305726	586.769278	6.699786	8.811974	0.346474	-1.501778	1.141809
1.310	1.512576	-8.401605	586.541211	6.682937	8.686359	0.352757	-1.480946	1.139381
1.320	1.458336	-8.489086	586.242288	6.670787	8.576015	0.358470	-1.462879	1.137889
1.330	1.369235	-8.563628	585.965498	6.666373	8.480687	0.363951	-1.447301	1.137673
1.340	1.291584	-8.621792	585.787066	6.669078	8.397212	0.369438	-1.433492	1.138482
1.350	1.263937	-8.660770	585.746143	6.675850	8.320413	0.374742	-1.420481	1.139717
1.360	1.307459	-8.678128	585.838186	6.683681	8.244398	0.379072	-1.407282	1.140875
1.370	1.421985	-8.672007	586.021557	6.692046	8.164186	0.381147	-1.393155	1.141945
1.380	1.588055	-8.641759	586.233040	6.703979	8.077448	0.379633	-1.377856	1.143569
1.390	1.773449	-8.588732	586.406786	6.725216	7.985778	0.373793	-1.361815	1.146852
1.400	1.941992	-8.516840	586.491987	6.761886	7.894833	0.364015	-1.346111	1.152937
1.410	2.062681	-8.432572	586.465707	6.818042	7.813033	0.351895	-1.332223	1.162564
1.420	2.117511	-8.344154	586.338215	6.894355	7.749216	0.339729	-1.321629	1.175832
1.430	2.106290	-8.259765	586.149282	6.988528	7.710057	0.329684	-1.315374	1.192278
1.440	2.046741	-8.185151	585.956317	7.097038	7.698110	0.323079	-1.313769	1.211189
1.450	1.969114	-8.121328	585.818033	7.217151	7.711064	0.320142	-1.316290	1.231978
1.460	1.906522	-8.063228	585.778754	7.348115	7.742494	0.320245	-1.321744	1.254418
1.470	1.884120	-7.999999	585.857664	7.491104	7.783891	0.322394	-1.328632	1.278656
1.480	1.911035	-7.917424	586.045462	7.648325	7.827321	0.325714	-1.335617	1.305074
1.490	1.977973	-7.802194	586.308781	7.822067	7.867693	0.329739	-1.341903	1.334121
1.500	2.061222	-7.646885	586.600323	8.014052	7.903823	0.334449	-1.347395	1.366186
1.510	2.131363	-7.453758	586.870716	8.224848	7.937933	0.340035	-1.352586	1.401475
1.520	2.163329	-7.235769	587.078403	8.453054	7.973959	0.346579	-1.358244	1.439851
1.530	2.144035	-7.014378	587.195812	8.694463	8.015466	0.353834	-1.365041	1.480675
1.540	2.074928	-6.814979	587.211185	8.941753	8.064033	0.361254	-1.373276	1.522749
1.550	1.969111	-6.661338	587.125603	9.185118	8.118703	0.368234	-1.382788	1.564421
1.560	1.845049	-6.570413	586.946033	9.413765	8.176585	0.374348	-1.393073	1.603855
1.570	1.719991	-6.548843	586.677831	9.617834	8.234175	0.379438	-1.403526	1.639372
1.580	1.605800	-6.592047	586.321404	9.790115	8.288755	0.383459	-1.413688	1.669752
1.590	1.508276	-6.685994	585.875715	9.926958	8.339197	0.386231	-1.423373	1.694380
1.600	1.429276	-6.810805	585.347355	10.028182	8.385873	0.387279	-1.432632	1.713202
1.610	1.369790	-6.945021	584.760223	10.096237	8.429870	0.385885	-1.441594	1.726560
1.620	1.332063	-7.069679	584.159199	10.135125	8.472192	0.381340	-1.450322	1.734994
1.630	1.319581	-7.171573	583.603130	10.149405	8.513575	0.373243	-1.458795	1.739094
1.640	1.334812	-7.244941	583.148532	10.143394	8.554940	0.361702	-1.467026	1.739419
1.650	1.375957	-7.290803	582.832409	10.120638	8.597979	0.347341	-1.475206	1.736458
1.660	1.434931	-7.313878	582.664338	10.083823	8.645268	0.331122	-1.483748	1.730640
1.670	1.498419	-7.318456	582.632096	10.035152	8.699715	0.314089	-1.493175	1.722382
1.680	1.551842	-7.305631	582.716468	9.976932	8.763628	0.297189	-1.503927	1.712142
1.690	1.584219	-7.273712	582.906290	9.911927	8.837837	0.281215	-1.516168	1.700432
1.700	1.591535	-7.221408	583.206257	9.843257	8.921206	0.266867	-1.529683	1.687783
1.710	1.577294	-7.151373	583.634499	9.773972	9.010681	0.254816	-1.543891	1.674673
1.720	1.550288	-7.071759	584.211563	9.706711	9.101811	0.245696	-1.557965	1.661506
1.730	1.520590	-6.995090	584.945608	9.643625	9.189646	0.239996	-1.571026	1.648636
1.740	1.495323	-6.935507	585.819440	9.586393	9.269758	0.237934	-1.582358	1.636408
1.750	1.475816	-6.905778	586.783781	9.536117	9.339041	0.239419	-1.591564	1.625150
1.760	1.457155	-6.914777	587.759406	9.493076	9.395988	0.244131	-1.598611	1.615130
1.770	1.430343	-6.965516	588.648828	9.456593	9.440395	0.251642	-1.603740	1.606491
1.780	1.386421	-7.053958	589.355724	9.425160	9.472786	0.261494	-1.607312	1.599231
1.790	1.321121	-7.169269	589.807221	9.396757	9.493990	0.273208	-1.609677	1.593191
1.800	1.238067	-7.296112	589.971923	9.369150	9.505089	0.286289	-1.611109	1.588067
1.810	1.148822	-7.418651	589.866797	9.340010	9.507594	0.300308	-1.611820	1.583410
1.820	1.069429	-7.524962	589.549447	9.306808	9.503504	0.315030	-1.611994	1.578631
1.830	1.014787	-7.610086	589.097713	9.266545	9.495065	0.330476	-1.611798	1.573006
1.840	0.993214	-7.676461	588.583885	9.215562	9.484291	0.346790	-1.611375	1.565718
1.850	1.003507	-7.731579	588.053396	9.149709	9.472565	0.363932	-1.610834	1.555932
1.860	1.035611	-7.784054	587.516201	9.065018	9.460525	0.381407	-1.610258	1.542939
1.870	1.074447	-7.840087	586.953618	8.958660	9.448302	0.398284	-1.609719	1.526298
1.880	1.105075	-7.902169	586.336719	8.829698	9.436000	0.413565	-1.609314	1.505909
1.890	1.117253	-7.970555	585.647557	8.679294	9.424201	0.426666	-1.609193	1.482000
1.900	1.108156	-8.046318	584.894167	8.510482	9.414197	0.437682	-1.609556	1.455046
1.910	1.082874	-8.133663	584.114791	8.327801	9.407703	0.447153	-1.610591	1.425713
1.920	1.052793	-8.239508	583.372336	8.136980	9.406165	0.455366	-1.612378	1.394818
1.930	1.032251	-8.370024	582.742573	7.944598	9.410158	0.461630	-1.614805	1.363312
1.940	1.034134	-8.525795	582.299167	7.757549	9.419385	0.464053	-1.617619	1.332227
1.950	1.065403	-8.698273	582.098504	7.582231	9.433346	0.460089	-1.620576	1.302568
1.960	1.123859	-8.869712	582.167790	7.423615	9.452204	0.447652	-1.623622	1.275168
1.970	1.197456	-9.017158	582.499432	7.284568	9.477116	0.426179	-1.626974	1.250571
1.980	1.266718	-9.119167	583.053046	7.165697	9.509774	0.397113	-1.631031	1.228996
1.990	1.309679	-9.162699	583.764824	7.065708	9.551447	0.363586	-1.636181	1.210369
2.000	1.307780	-9.147544	584.562222	6.982053	9.602204	0.329508	-1.642632	1.194407
2.010	1.250812	-9.086593	585.379582	6.911675	9.660716	0.298467	-1.650334	1.180717
2.020	1.139324	-9.001793	586.168943	6.851838	9.724588	0.272849	-1.659008	1.168919
2.030	0.983814	-8.917288	586.902282	6.801035	9.790854	0.253411	-1.668226	1.158802
2.040	0.801318	-8.852254	587.566241	6.759774	9.856287	0.239386	-1.677477	1.150470
2.050	0.611052	-8.815899	588.154244	6.730974	9.917520	0.228986	-1.686211	1.144423
2.060	0.430887	-8.805929	588.660607	6.719656	9.971205	0.220112	-1.693880	1.141516
2.070	0.275540	-8.810488	589.078144	6.731840	10.014410	0.210995	-1.700014	1.142775
2.080	0.156089	-8.812590	589.398540	6.772845	10.045140	0.200638	-1.704303	1.149111
2.090	0.079558	-8.795729	589.614435	6.845546	10.062642	0.188981	-1.706648	1.161021
2.100	0.047623	-8.749086	589.722408	6.949301	10.067224	0.176820	-1.707112	1.178402
2.110	0.054830	-8.670703	589.725886	7.079999	10.059608	0.165494	-1.705811	1.200558
2.120	0.087990	-8.567599	589.636595	7.231189	10.040100	0.156453	-1.702761	1.226381
2.130	0.128374	-8.453062	589.473513	7.395820	10.007966	0.150791	-1.697781	1.254648
2.140	0.156816	-8.342583	589.259330	7.567953	9.961224	0.148891	-1.690465	1.284316
2.150	0.160041	-8.250056	589.015527	7.743780	9.896794	0.150248	-1.680226	1.314699
2.160	0.135815	-8.185070	588.757781	7.921509	9.810909	0.153506	-1.666374	1.345461
2.170	0.094941	-8.151337	588.493052	8.100208	9.699664	0.156709	-1.648221	1.376432
2.180	0.059220	-8.146117	588.218876	8.278240	9.559704	0.157727	-1.625195	1.407340
2.190	0.055662	-8.160637	587.924679	8.452115	9.388975	0.154743	-1.596969	1.437619
2.200	0.108432	-8.181525	587.595043	8.616327	9.187463	0.146627	-1.563571	1.466372
2.210	0.231002	-8.193301	587.214963	8.764231	8.957793	0.133118	-1.525471	1.492508
2.220	0.421175	-8.181681	586.776324	8.889501	8.705390	0.114851	-1.483596	1.514973
2.230	0.660808	-8.136924	586.283577	8.987480	8.437853	0.093316	-1.439210	1.532958
2.240	0.920433	-8.056125	585.755949	9.055907	8.163521	0.070784	-1.393673	1.546021
2.250	1.167073	-7.943575	585.224340	9.094893	7.889642	0.050134	-1.348140	1.554087
2.260	1.372449	-7.809091	584.723534	9.106429	7.620933	0.034449	-1.303340	1.557391
2.270	1.518974	-7.665037	584.283339	9.093864	7.359094	0.026360	-1.259508	1.556413
2.280	1.602171	-7.523321	583.922777	9.061631	7.103463	0.027291	-1.216507	1.551854
2.290	1.629459	-7.393441	583.649031	9.015152	6.852463	0.036945	-1.174073	1.544619
2.300	1.616255	-7.281888	583.460289	8.960492	6.605314	0.053325	-1.132093	1.535750
2.310	1.580973	-7.192464	583.350474	8.903489	6.363412	0.073362	-1.090839	1.526268
2.320	1.540544	-7.126939	583.313887	8.848544	6.130888	0.093918	-1.051044	1.516944
2.330	1.507350	-7.085842	583.348267	8.797635	5.914042	0.112750	-1.013810	1.508127
2.340	1.487738	-7.069442	583.455518	8.750107	5.719707	0.129066	-0.980316	1.499704
2.350	1.482244	-7.078674	583.640109	8.703392	5.553203	0.143498	-0.951477	1.491226
2.360	1.487710	-7.115323	583.905584	8.654292	5.416760	0.157601	-0.927677	1.482139
2.370	1.500799	-7.180871	584.249916	8.600225	5.309051	0.173128	-0.908695	1.472011
2.380	1.521320	-7.274263	584.660815	8.540038	5.225797	0.191344	-0.893817	1.460682
2.390	1.553621	-7.389936	585.112645	8.474250	5.160912	0.212524	-0.882037	1.448311
2.400	1.605160	-7.517565	585.567292	8.404869	5.107690	0.235796	-0.872264	1.435338
2.410	1.682784	-7.643936	585.980623	8.334912	5.059799	0.259360	-0.863475	1.422387
2.420	1.788359	-7.755874	586.313209	8.267763	5.012064	0.281044	-0.854844	1.410127
