Time[s]	Fx[N]	Fy[N]	Fz[N]	Mx[Nm]	My[Nm]	Mz[Nm]	COPx[cm]	COPy[cm]
0.010	5.262871	-5.875460	614.376252	-5.402251	41.200717	-2.593290	-6.706105	-0.879307
0.020	5.001781	-5.885843	614.394039	-5.529529	41.454979	-2.568792	-6.747295	-0.899997
0.030	4.744539	-5.911267	614.370287	-5.655975	41.714955	-2.547348	-6.789872	-0.920613
0.040	4.492844	-5.962251	614.277280	-5.780979	41.984482	-2.530576	-6.834777	-0.941103
0.050	4.242136	-6.041541	614.109028	-5.904607	42.265094	-2.518359	-6.882344	-0.961492
0.060	3.981319	-6.144633	613.882642	-6.027165	42.556192	-2.509063	-6.932301	-0.981811
0.070	3.695407	-6.262701	613.633097	-6.148387	42.855787	-2.500389	-6.983943	-1.001965
0.080	3.370440	-6.385909	613.403312	-6.266692	43.161189	-2.490412	-7.036348	-1.021627
0.090	2.998961	-6.505360	613.232401	-6.378955	43.469108	-2.478301	-7.088521	-1.040218
0.100	2.584008	-6.613211	613.145309	-6.481011	43.775158	-2.464497	-7.139443	-1.057011
0.110	2.140029	-6.701996	613.146586	-6.568747	44.073123	-2.450418	-7.188024	-1.071317
0.120	1.690284	-6.764866	613.220123	-6.639385	44.354507	-2.437979	-7.233048	-1.082708
0.130	1.261747	-6.797463	613.335134	-6.692480	44.608794	-2.429131	-7.273152	-1.091162
0.140	0.879562	-6.800447	613.456293	-6.730221	44.824565	-2.425422	-7.306888	-1.097099
0.150	0.563046	-6.780756	613.554167	-6.756804	44.991386	-2.427571	-7.332912	-1.101256
0.160	0.323999	-6.750417	613.612357	-6.776962	45.102021	-2.435138	-7.350246	-1.104437
0.170	0.166716	-6.723193	613.629491	-6.794308	45.154221	-2.446512	-7.358548	-1.107233
0.180	0.088583	-6.710368	613.616344	-6.810343	45.151351	-2.459341	-7.358238	-1.109870
0.190	0.080792	-6.717315	613.589959	-6.824633	45.101429	-2.471295	-7.350418	-1.112247
0.200	0.129573	-6.742125	613.567293	-6.835876	45.014886	-2.480806	-7.336585	-1.114120
0.210	0.218523	-6.776754	613.560507	-6.843080	44.901880	-2.487491	-7.318248	-1.115306
0.220	0.331845	-6.810012	613.575092	-6.846199	44.770301	-2.492163	-7.296629	-1.115788
0.230	0.457463	-6.831056	613.610789	-6.846126	44.625233	-2.496481	-7.272563	-1.115712
0.240	0.588706	-6.832061	613.663768	-6.844350	44.469896	-2.502316	-7.246622	-1.115326
0.250	0.723747	-6.809477	613.728258	-6.842637	44.307245	-2.510988	-7.219359	-1.114929
0.260	0.863207	-6.764164	613.797143	-6.842791	44.141171	-2.522653	-7.191492	-1.114829
0.270	1.007371	-6.701081	613.862456	-6.846333	43.976616	-2.536138	-7.163920	-1.115288
0.280	1.154540	-6.628803	613.916796	-6.853962	43.818675	-2.549374	-7.137559	-1.116432
0.290	1.301121	-6.558374	613.955654	-6.864923	43.671351	-2.560245	-7.113112	-1.118146
0.300	1.443071	-6.500952	613.979571	-6.876674	43.536739	-2.567441	-7.090910	-1.120017
0.310	1.577696	-6.464545	613.994807	-6.885196	43.414972	-2.570932	-7.070902	-1.121377
0.320	1.704638	-6.451209	614.011866	-6.886003	43.304754	-2.571897	-7.052755	-1.121477
0.330	1.825231	-6.456275	614.042453	-6.875529	43.204046	-2.572193	-7.036003	-1.119716
0.340	1.940537	-6.470178	614.096138	-6.852314	43.110581	-2.573573	-7.020168	-1.115837
0.350	2.049602	-6.481930	614.177568	-6.817354	43.022039	-2.576965	-7.004821	-1.109997
0.360	2.149525	-6.482484	614.284011	-6.773323	42.935842	-2.582106	-6.989575	-1.102637
0.370	2.237520	-6.466660	614.403087	-6.723056	42.848684	-2.587733	-6.974035	-1.094242
0.380	2.313566	-6.433394	614.511921	-6.668241	42.756111	-2.592254	-6.957735	-1.085128
0.390	2.381832	-6.384859	614.579860	-6.609135	42.652510	-2.594578	-6.940109	-1.075391
0.400	2.449959	-6.325047	614.575995	-6.545491	42.531795	-2.594722	-6.920510	-1.065042
0.410	2.526623	-6.258331	614.480180	-6.478065	42.388828	-2.593956	-6.898323	-1.054235
0.420	2.618696	-6.188490	614.293661	-6.409692	42.221208	-2.594423	-6.873131	-1.043425
0.430	2.729243	-6.118504	614.044261	-6.345197	42.030783	-2.598359	-6.844911	-1.033345
0.440	2.856953	-6.050973	613.782780	-6.290195	41.824189	-2.607193	-6.814168	-1.024824
0.450	2.997017	-5.988508	613.571365	-6.249423	41.611963	-2.620848	-6.781927	-1.018532
0.460	3.143221	-5.933550	613.468265	-6.225353	41.406291	-2.637619	-6.749541	-1.014780
0.470	3.290691	-5.887656	613.514033	-6.217566	41.217986	-2.654731	-6.718345	-1.013435
0.480	3.438076	-5.850861	613.722067	-6.223043	41.053734	-2.669424	-6.689304	-1.013984
0.490	3.587540	-5.821734	614.074340	-6.237242	40.914673	-2.680003	-6.662821	-1.015715
0.500	3.741869	-5.798333	614.522665	-6.255579	40.796935	-2.686330	-6.638801	-1.017957
0.510	3.899972	-5.779674	614.996012	-6.274775	40.693910	-2.689533	-6.616939	-1.020295
0.520	4.053520	-5.767051	615.413427	-6.293669	40.599250	-2.691134	-6.597069	-1.022673
0.530	4.187029	-5.764391	615.699919	-6.313423	40.509324	-2.692132	-6.579394	-1.025406
0.540	4.281709	-5.777179	615.801452	-6.337234	40.424202	-2.692510	-6.564486	-1.029103
0.550	4.321391	-5.810227	615.695765	-6.369705	40.347062	-2.691395	-6.553084	-1.034554
0.560	4.297948	-5.865437	615.397183	-6.415911	40.282632	-2.687716	-6.545794	-1.042564
0.570	4.213997	-5.940750	614.954305	-6.480240	40.235569	-2.680933	-6.542855	-1.053776
0.580	4.081951	-6.030739	614.440252	-6.565247	40.209366	-2.671409	-6.544064	-1.068492
0.590	3.920008	-6.128442	613.936948	-6.670934	40.205858	-2.660206	-6.548858	-1.086583
0.600	3.746873	-6.227542	613.517109	-6.794754	40.225039	-2.648479	-6.556466	-1.107509
0.610	3.577391	-6.324059	613.228712	-6.932355	40.264910	-2.636937	-6.566051	-1.130468
0.620	3.420566	-6.417074	613.086281	-7.078703	40.321475	-2.625732	-6.576803	-1.154601
0.630	3.280118	-6.508409	613.071865	-7.229123	40.389186	-2.614842	-6.588002	-1.179164
0.640	3.156478	-6.601460	613.145976	-7.379855	40.462003	-2.604593	-6.599081	-1.203605
0.650	3.048693	-6.699427	613.264849	-7.527982	40.534770	-2.595883	-6.609668	-1.227526
0.660	2.955327	-6.803350	613.396969	-7.670890	40.604310	-2.589890	-6.619581	-1.250559
0.670	2.874522	-6.910648	613.531585	-7.805646	40.669741	-2.587378	-6.628793	-1.272248
0.680	2.804102	-7.015009	613.675770	-7.928860	40.731878	-2.587999	-6.637361	-1.292028
0.690	2.742305	-7.108123	613.842430	-8.037261	40.792017	-2.590038	-6.645356	-1.309336
0.700	2.688801	-7.182848	614.036034	-8.128724	40.850728	-2.590842	-6.652823	-1.323819
0.710	2.644944	-7.236302	614.243324	-8.203092	40.907170	-2.587795	-6.659766	-1.335479
0.720	2.612537	-7.271122	614.433062	-8.262235	40.959146	-2.579378	-6.666169	-1.344692
0.730	2.591640	-7.294018	614.564570	-8.309297	41.003710	-2.565839	-6.671994	-1.352062
0.740	2.578948	-7.312472	614.601889	-8.347504	41.038008	-2.549140	-6.677169	-1.358197
0.750	2.568088	-7.331499	614.529071	-8.379042	41.059984	-2.532233	-6.681536	-1.363490
0.760	2.551953	-7.352020	614.360963	-8.404443	41.068746	-2.517935	-6.684791	-1.367998
0.770	2.525997	-7.371105	614.143290	-8.422681	41.064604	-2.507884	-6.686486	-1.371452
0.780	2.490879	-7.383436	613.938905	-8.431992	41.048930	-2.502048	-6.686159	-1.373425
0.790	2.453023	-7.383324	613.804751	-8.431105	41.024024	-2.498981	-6.683563	-1.373581
0.800	2.422556	-7.366824	613.771073	-8.420346	40.992939	-2.496638	-6.678865	-1.371903
0.810	2.409323	-7.333536	613.833716	-8.401981	40.959053	-2.493306	-6.672663	-1.368772
0.820	2.418898	-7.287404	613.961698	-8.379571	40.925234	-2.488199	-6.665763	-1.364836
0.830	2.450598	-7.235862	614.113196	-8.356753	40.892774	-2.481554	-6.658833	-1.360784
0.840	2.498471	-7.187218	614.250606	-8.336226	40.860504	-2.474368	-6.652090	-1.357138
0.850	2.554556	-7.147336	614.348900	-8.319427	40.824612	-2.468039	-6.645184	-1.354186
0.860	2.612618	-7.117504	614.396750	-8.306839	40.779491	-2.464091	-6.637322	-1.352032
0.870	2.670529	-7.094873	614.393554	-8.298466	40.719549	-2.463925	-6.627600	-1.350676
0.880	2.730389	-7.075125	614.346356	-8.294034	40.641428	-2.468487	-6.615393	-1.350058
0.890	2.796796	-7.055534	614.268806	-8.292850	40.545612	-2.477888	-6.600630	-1.350036
0.900	2.874477	-7.036534	614.181434	-8.293583	40.436589	-2.491178	-6.583818	-1.350347
0.910	2.966488	-7.021037	614.110868	-8.294360	40.321409	-2.506512	-6.565819	-1.350629
0.920	3.073537	-7.012115	614.085852	-8.293250	40.207349	-2.521649	-6.547513	-1.350503
0.930	3.194229	-7.010421	614.129648	-8.288874	40.099787	-2.534545	-6.529531	-1.349695
0.940	3.325669	-7.012777	614.250841	-8.280794	40.001091	-2.543837	-6.512175	-1.348113
0.950	3.463850	-7.012689	614.436546	-8.269464	39.910722	-2.549124	-6.495499	-1.345861
0.960	3.603627	-7.002535	614.652067	-8.255723	39.826272	-2.551025	-6.479482	-1.343154
0.970	3.738547	-6.976319	614.848611	-8.240007	39.744992	-2.550942	-6.464192	-1.340168
0.980	3.861035	-6.931723	614.977042	-8.221615	39.665386	-2.550526	-6.449897	-1.336898
0.990	3.963293	-6.870728	615.003158	-8.198353	39.588393	-2.551008	-6.437104	-1.333059
1.000	4.038736	-6.798764	614.919638	-8.166761	39.517655	-2.552743	-6.426475	-1.328102
1.010	4.083453	-6.722795	614.750512	-8.122976	39.458576	-2.555247	-6.418633	-1.321345
1.020	4.097183	-6.648936	614.545137	-8.064076	39.416474	-2.557755	-6.413927	-1.312202
1.030	4.083391	-6.580436	614.361394	-7.989503	39.394639	-2.559898	-6.412291	-1.300457
1.040	4.048262	-6.516917	614.243345	-7.902008	39.393263	-2.561996	-6.413299	-1.286462
1.050	3.998900	-6.455348	614.203412	-7.807609	39.409768	-2.564763	-6.416403	-1.271176
1.060	3.941652	-6.392323	614.218339	-7.714431	39.440293	-2.568693	-6.421217	-1.255975
1.070	3.881520	-6.326382	614.241409	-7.630672	39.481511	-2.573634	-6.427686	-1.242292
1.080	3.822661	-6.259060	614.225374	-7.562331	39.531898	-2.578807	-6.436057	-1.231198
1.090	3.768937	-6.194329	614.145533	-7.511443	39.591991	-2.583203	-6.446679	-1.223072
1.100	3.723427	-6.137186	614.012050	-7.475502	39.663759	-2.586016	-6.459769	-1.217485
1.110	3.686841	-6.092408	613.865700	-7.448426	39.749535	-2.586880	-6.475282	-1.213364
1.120	3.655899	-6.063821	613.759731	-7.422765	39.851056	-2.585869	-6.492941	-1.209393
1.130	3.623038	-6.053634	613.737262	-7.392311	39.968926	-2.583415	-6.512384	-1.204475
1.140	3.577995	-6.061415	613.814214	-7.354083	40.102532	-2.580232	-6.533334	-1.198096
1.150	3.510757	-6.083112	613.973037	-7.309038	40.250248	-2.577214	-6.555703	-1.190449
1.160	3.414673	-6.111124	614.167296	-7.261477	40.409753	-2.575280	-6.579600	-1.182329
1.170	3.288546	-6.136065	614.334692	-7.217510	40.578279	-2.575173	-6.605240	-1.174850
1.180	3.136912	-6.149657	614.415459	-7.183198	40.752746	-2.577286	-6.632767	-1.169111
1.190	2.968434	-6.147364	614.371664	-7.162925	40.929876	-2.581560	-6.662071	-1.165894
1.200	2.793018	-6.129461	614.200776	-7.158447	41.106430	-2.587517	-6.692670	-1.165490
1.210	2.618861	-6.100126	613.937274	-7.168858	41.279570	-2.594427	-6.723744	-1.167686
1.220	2.450782	-6.065248	613.641389	-7.191349	41.447213	-2.601553	-6.754305	-1.171914
1.230	2.290550	-6.030289	613.380954	-7.222380	41.608142	-2.608320	-6.783410	-1.177470
1.240	2.138815	-5.999195	613.214550	-7.258744	41.761776	-2.614361	-6.810304	-1.183720
1.250	1.997242	-5.974553	613.180369	-7.298145	41.907605	-2.619414	-6.834466	-1.190212
1.260	1.869431	-5.958434	613.290526	-7.339112	42.044444	-2.623213	-6.855551	-1.196678
1.270	1.759985	-5.953130	613.529517	-7.380450	42.169771	-2.625483	-6.873308	-1.202949
1.280	1.672448	-5.961171	613.856802	-7.420745	42.279514	-2.626098	-6.887521	-1.208872
1.290	1.607849	-5.984361	614.213947	-7.458419	42.368580	-2.625261	-6.898017	-1.214303
1.300	1.565233	-6.022203	614.535520	-7.492417	42.432075	-2.623528	-6.904739	-1.219200
1.310	1.543793	-6.070759	614.761495	-7.523087	42.466762	-2.621643	-6.907844	-1.223741
1.320	1.544516	-6.123140	614.848406	-7.552594	42.472204	-2.620258	-6.907752	-1.228367
1.330	1.569497	-6.171904	614.777008	-7.584460	42.451277	-2.619660	-6.905150	-1.233693
1.340	1.619162	-6.212164	614.555552	-7.622383	42.410096	-2.619586	-6.900938	-1.240308
1.350	1.689412	-6.243451	614.218646	-7.668954	42.357354	-2.619220	-6.896136	-1.248571
1.360	1.770745	-6.269169	613.821552	-7.724871	42.303057	-2.617449	-6.891752	-1.258488
1.370	1.849866	-6.294009	613.429939	-7.788782	42.256779	-2.613351	-6.888607	-1.269710
1.380	1.912860	-6.321006	613.106973	-7.857561	42.225933	-2.606712	-6.887205	-1.281597
1.390	1.948615	-6.350044	612.901740	-7.926862	42.214696	-2.598338	-6.887678	-1.293333
1.400	1.951479	-6.378603	612.842450	-7.992078	42.223968	-2.589947	-6.889857	-1.304100
1.410	1.922602	-6.404117	612.934788	-8.049691	42.252254	-2.583623	-6.893434	-1.313303
1.420	1.869668	-6.426335	613.163177	-8.098525	42.296820	-2.581015	-6.898134	-1.320778
1.430	1.804999	-6.448235	613.493295	-8.140110	42.354371	-2.582634	-6.903803	-1.326846
1.440	1.742432	-6.474992	613.876566	-8.177841	42.420941	-2.587613	-6.910337	-1.332164
1.450	1.693945	-6.511722	614.257846	-8.215479	42.491363	-2.594095	-6.917512	-1.337464
1.460	1.667255	-6.561251	614.585393	-8.255994	42.559117	-2.600056	-6.924850	-1.343344
1.470	1.665077	-6.622929	614.819867	-8.301395	42.617074	-2.604114	-6.931636	-1.350216
1.480	1.685838	-6.692909	614.939193	-8.353305	42.659042	-2.605949	-6.937115	-1.358395
1.490	1.725040	-6.765703	614.938820	-8.413396	42.681490	-2.606214	-6.940770	-1.368168
1.500	1.776533	-6.836468	614.829829	-8.483061	42.684689	-2.606055	-6.942521	-1.379741
1.510	1.833503	-6.903191	614.637686	-8.562514	42.672767	-2.606500	-6.942752	-1.393099
1.520	1.889484	-6.967756	614.401894	-8.650076	42.652632	-2.607983	-6.942139	-1.407886
1.530	1.939629	-7.035157	614.173725	-8.742273	42.632084	-2.610198	-6.941372	-1.423420
1.540	1.981908	-7.110901	614.008896	-8.834770	42.617677	-2.612296	-6.940889	-1.438867
1.550	2.017485	-7.197826	613.954873	-8.923664	42.612887	-2.613290	-6.940720	-1.453472
1.560	2.049750	-7.293956	614.036235	-9.006547	42.617138	-2.612484	-6.940492	-1.466778
1.570	2.082268	-7.392520	614.243609	-9.082866	42.626113	-2.609787	-6.939610	-1.478707
1.580	2.116588	-7.483967	614.531382	-9.153386	42.633348	-2.605774	-6.937538	-1.489490
1.590	2.151053	-7.558867	614.826956	-9.218932	42.632459	-2.601444	-6.934058	-1.499435
1.600	2.181382	-7.610427	615.050091	-9.279011	42.618898	-2.597775	-6.929338	-1.508659
1.610	2.202853	-7.635806	615.136577	-9.331019	42.590470	-2.595303	-6.923742	-1.516902
1.620	2.213229	-7.636134	615.058103	-9.370465	42.546662	-2.593964	-6.917503	-1.523509
1.630	2.215122	-7.615495	614.831003	-9.392090	42.487670	-2.593258	-6.910463	-1.527589
1.640	2.216708	-7.579272	614.510391	-9.391412	42.414001	-2.592623	-6.902080	-1.528276
1.650	2.230035	-7.532313	614.171690	-9.366138	42.326957	-2.591797	-6.891714	-1.525003
1.660	2.266923	-7.477569	613.886393	-9.316956	42.229533	-2.590972	-6.879047	-1.517700
1.670	2.333585	-7.415841	613.700876	-9.247577	42.126960	-2.590673	-6.864413	-1.506854
1.680	2.426357	-7.346758	613.625636	-9.164176	42.026304	-2.591457	-6.848851	-1.493447
1.690	2.531159	-7.270354	613.637900	-9.074540	41.935137	-2.593625	-6.833857	-1.478810
1.700	2.627752	-7.188243	613.695224	-8.986980	41.859821	-2.597104	-6.820946	-1.464404
1.710	2.697077	-7.103668	613.753639	-8.908946	41.804162	-2.601530	-6.811228	-1.451551
1.720	2.728044	-7.020426	613.783022	-8.845456	41.768992	-2.606448	-6.805172	-1.441137
1.730	2.720545	-6.941466	613.774697	-8.797852	41.752692	-2.611491	-6.802609	-1.433401
1.740	2.683787	-6.868121	613.740133	-8.763566	41.752269	-2.616430	-6.802923	-1.427895
1.750	2.631513	-6.800606	613.702790	-8.737281	41.764442	-2.621105	-6.805320	-1.423699
1.760	2.576725	-6.739535	613.686837	-8.713106	41.786336	-2.625313	-6.809065	-1.419797
1.770	2.528116	-6.687436	613.707006	-8.686785	41.815687	-2.628739	-6.813624	-1.415461
1.780	2.489227	-6.649052	613.763375	-8.656901	41.850603	-2.630957	-6.818687	-1.410462
1.790	2.460036	-6.629785	613.842844	-8.624756	41.889105	-2.631515	-6.824077	-1.405043
1.800	2.439789	-6.632851	613.926004	-8.593334	41.928624	-2.630079	-6.829589	-1.399735
1.810	2.429479	-6.656709	613.995725	-8.566102	41.965741	-2.626620	-6.834859	-1.395140
1.820	2.432588	-6.694434	614.043285	-8.546138	41.996446	-2.621534	-6.839330	-1.391781
1.830	2.453412	-6.735669	614.069466	-8.535630	42.016960	-2.615594	-6.842379	-1.390010
1.840	2.493548	-6.770293	614.080839	-8.535505	42.024879	-2.609689	-6.843542	-1.389964
1.850	2.548478	-6.792053	614.084078	-8.545101	42.020136	-2.604455	-6.842733	-1.391520
1.860	2.606710	-6.800497	614.081926	-8.562019	42.005303	-2.599970	-6.840342	-1.394280
1.870	2.652749	-6.800416	614.073084	-8.582460	41.985019	-2.595708	-6.837137	-1.397628
1.880	2.672789	-6.799112	614.055608	-8.602078	41.964664	-2.590766	-6.834017	-1.400863
1.890	2.660253	-6.802743	614.031198	-8.617094	41.948739	-2.584313	-6.831695	-1.403364
1.900	2.618434	-6.813331	614.007478	-8.625228	41.939586	-2.576031	-6.830468	-1.404743
1.910	2.559231	-6.827822	613.996889	-8.626108	41.936901	-2.566340	-6.830149	-1.404911
1.920	2.498850	-6.839820	614.012647	-8.621035	41.938131	-2.556242	-6.830174	-1.404048
1.930	2.452471	-6.843350	614.063111	-8.612253	41.939466	-2.546911	-6.829830	-1.402503
1.940	2.429983	-6.836805	614.146257	-8.602044	41.936959	-2.539313	-6.828497	-1.400651
1.950	2.434128	-6.824886	614.246135	-8.592070	41.927398	-2.534116	-6.825830	-1.398799
1.960	2.461262	-6.817310	614.333231	-8.583229	41.908783	-2.531796	-6.821832	-1.397162
1.970	2.503807	-6.824809	614.370139	-8.576018	41.880517	-2.532687	-6.816822	-1.395904
1.980	2.552973	-6.854408	614.322720	-8.571003	41.843482	-2.536793	-6.811319	-1.395196
1.990	2.600690	-6.906333	614.174284	-8.569003	41.800109	-2.543507	-6.805904	-1.395207
2.000	2.640528	-6.973797	613.937225	-8.570755	41.754353	-2.551502	-6.801079	-1.396031
2.010	2.668103	-7.045389	613.655906	-8.576268	41.711410	-2.558993	-6.797198	-1.397569
2.020	2.681538	-7.108707	613.398000	-8.584233	41.677049	-2.564269	-6.794455	-1.399456
2.030	2.682031	-7.153737	613.236759	-8.591838	41.656568	-2.566264	-6.792901	-1.401064
2.040	2.673995	-7.174908	613.230039	-8.595019	41.653576	-2.564935	-6.792488	-1.401598
2.050	2.664094	-7.171486	613.402153	-8.589067	41.668894	-2.561325	-6.793079	-1.400234
2.060	2.659227	-7.146715	613.733497	-8.569538	41.699817	-2.557285	-6.794450	-1.396296
2.070	2.664469	-7.106302	614.161536	-8.533459	41.740003	-2.554850	-6.796258	-1.389449
2.080	2.682219	-7.056840	614.594377	-8.480481	41.780257	-2.555380	-6.798021	-1.379850
2.090	2.712935	-7.004526	614.933936	-8.413292	41.810303	-2.558819	-6.799154	-1.368162
2.100	2.756539	-6.954462	615.101847	-8.336769	41.821280	-2.563471	-6.799082	-1.355348
2.110	2.813079	-6.910486	615.060125	-8.256089	41.808239	-2.566577	-6.797423	-1.342322
2.120	2.881872	-6.875185	614.820818	-8.174755	41.771831	-2.565475	-6.794147	-1.329616
2.130	2.959671	-6.849671	614.442480	-8.093530	41.718620	-2.558818	-6.789671	-1.317215
2.140	3.039336	-6.833117	614.014889	-8.010727	41.659790	-2.547280	-6.784818	-1.304647
2.150	3.110236	-6.822421	613.636076	-7.923656	41.608402	-2.533443	-6.780632	-1.291263
2.160	3.160512	-6.812368	613.387702	-7.830450	41.575844	-2.520918	-6.778069	-1.276591
2.170	3.180376	-6.796456	613.315613	-7.731424	41.568632	-2.513077	-6.777690	-1.260595
2.180	3.165252	-6.768301	613.421062	-7.629293	41.586769	-2.511896	-6.779482	-1.243729
2.190	3.117718	-6.723338	613.664313	-7.528243	41.624235	-2.517362	-6.782900	-1.226769
2.200	3.047491	-6.660173	613.978025	-7.432422	41.671182	-2.527651	-6.787080	-1.210536
2.210	2.969254	-6.580959	614.285051	-7.344645	41.716858	-2.539948	-6.791124	-1.195641
2.220	2.898972	-6.490560	614.515415	-7.265820	41.752279	-2.551490	-6.794342	-1.182366
2.230	2.850118	-6.395034	614.619514	-7.195149	41.772106	-2.560401	-6.796417	-1.170667
2.240	2.831171	-6.300291	614.577076	-7.130879	41.775558	-2.566043	-6.797448	-1.160291
2.250	2.844771	-6.211498	614.401792	-7.071215	41.766267	-2.568830	-6.797875	-1.150910
2.260	2.887983	-6.133158	614.139929	-7.015092	41.751087	-2.569714	-6.798302	-1.142263
2.270	2.953060	-6.069286	613.860457	-6.962547	41.738029	-2.569612	-6.799270	-1.134223
2.280	3.028604	-6.023019	613.637024	-6.914499	41.733886	-2.569028	-6.801070	-1.126806
2.290	3.101466	-5.995499	613.527165	-6.872017	41.742334	-2.567991	-6.803665	-1.120084
2.300	3.159705	-5.984595	613.556635	-6.835372	41.763206	-2.566254	-6.806740	-1.114057
2.310	3.196262	-5.984432	613.714074	-6.803395	41.793149	-2.563609	-6.809873	-1.108561
