Time[s]	Fx[N]	Fy[N]	Fz[N]	Mx[Nm]	My[Nm]	Mz[Nm]	COPx[cm]	COPy[cm]
0.010	1.899071	-1.227061	444.590278	2.587731	34.563487	-0.369623	-7.774234	0.582049
0.020	1.904645	-1.233153	444.305730	2.570700	34.601684	-0.347578	-7.787810	0.578588
0.030	1.902245	-1.236278	444.050096	2.557225	34.640098	-0.329502	-7.800944	0.575887
0.040	1.885155	-1.234466	443.843061	2.549342	34.678880	-0.318234	-7.813320	0.574379
0.050	1.849409	-1.227576	443.692661	2.546982	34.717785	-0.314634	-7.824737	0.574042
0.060	1.794657	-1.217076	443.597167	2.548256	34.756007	-0.317471	-7.835038	0.574453
0.070	1.724605	-1.205142	443.548918	2.550596	34.792136	-0.323953	-7.844036	0.575043
0.080	1.646931	-1.193672	443.536532	2.552098	34.824249	-0.330686	-7.851495	0.575398
0.090	1.572430	-1.183902	443.545130	2.552309	34.850195	-0.334737	-7.857193	0.575434
0.100	1.513137	-1.176823	443.556808	2.552028	34.868029	-0.334488	-7.861006	0.575355
0.110	1.479492	-1.173919	443.553540	2.552329	34.876532	-0.330019	-7.862981	0.575428
0.120	1.477316	-1.177394	443.522660	2.553434	34.875633	-0.322926	-7.863326	0.575717
0.130	1.505917	-1.189421	443.462745	2.554131	34.866679	-0.315648	-7.862369	0.575952
0.140	1.558278	-1.210740	443.386058	2.552064	34.852518	-0.310568	-7.860535	0.575585
0.150	1.623169	-1.239589	443.314625	2.544682	34.837308	-0.309220	-7.858371	0.574013
0.160	1.687995	-1.271773	443.270736	2.530344	34.825907	-0.311939	-7.856577	0.570835
0.170	1.741161	-1.301873	443.266545	2.509078	34.822893	-0.317988	-7.855971	0.566043
0.180	1.773412	-1.324935	443.298122	2.482703	34.831503	-0.325973	-7.857354	0.560053
0.190	1.778471	-1.337956	443.346613	2.454293	34.852968	-0.334260	-7.861336	0.553583
0.200	1.753490	-1.340784	443.385553	2.427233	34.886563	-0.341310	-7.868223	0.547432
0.210	1.699524	-1.336254	443.391270	2.404318	34.930364	-0.345991	-7.878000	0.542256
0.220	1.621725	-1.329397	443.352964	2.387316	34.982237	-0.347910	-7.890381	0.538468
0.230	1.528807	-1.325729	443.279118	2.377014	35.040498	-0.347653	-7.904838	0.536234
0.240	1.431651	-1.329067	443.196771	2.373396	35.103955	-0.346728	-7.920625	0.535517
0.250	1.341419	-1.339726	443.141761	2.375590	35.171509	-0.347163	-7.936853	0.536079
0.260	1.267719	-1.353985	443.142936	2.381645	35.241657	-0.350887	-7.952661	0.537444
0.270	1.217142	-1.365390	443.208427	2.388546	35.312196	-0.359162	-7.967402	0.538922
0.280	1.192181	-1.367620	443.321918	2.392728	35.380319	-0.372236	-7.980728	0.539727
0.290	1.190587	-1.357717	443.450554	2.390904	35.443122	-0.389241	-7.992576	0.539159
0.300	1.205459	-1.337990	443.558828	2.380777	35.498290	-0.408310	-8.003062	0.536744
0.310	1.226444	-1.315551	443.620105	2.361436	35.544587	-0.426907	-8.012393	0.532310
0.320	1.241927	-1.299705	443.620645	2.333554	35.581991	-0.442335	-8.020815	0.526025
0.330	1.241578	-1.298459	443.557122	2.299498	35.611592	-0.452327	-8.028637	0.518422
0.340	1.218565	-1.315644	443.433019	2.263187	35.635489	-0.455537	-8.036273	0.510379
0.350	1.171026	-1.349698	443.258823	2.229369	35.656731	-0.451807	-8.044224	0.502950
0.360	1.102638	-1.394450	443.056602	2.202215	35.679074	-0.442167	-8.052938	0.497051
0.370	1.022179	-1.441499	442.864498	2.183709	35.706334	-0.428667	-8.062587	0.493087
0.380	0.942055	-1.483075	442.734635	2.172687	35.741358	-0.414113	-8.072862	0.490743
0.390	0.875907	-1.514121	442.720653	2.165268	35.785017	-0.401656	-8.082979	0.489082
0.400	0.835704	-1.532838	442.857362	2.156656	35.835606	-0.394190	-8.091907	0.486987
0.410	0.829096	-1.539879	443.140874	2.143429	35.888794	-0.393581	-8.098732	0.483690
0.420	0.857738	-1.537084	443.519505	2.125011	35.938131	-0.399985	-8.102943	0.479125
0.430	0.916795	-1.526698	443.902198	2.103524	35.976151	-0.411554	-8.104522	0.473871
0.440	0.995609	-1.511381	444.183762	2.082298	35.996017	-0.424752	-8.103857	0.468792
0.450	1.079624	-1.494574	444.278280	2.064122	35.993282	-0.435301	-8.101517	0.464601
0.460	1.153557	-1.480493	444.147679	2.050205	35.967084	-0.439504	-8.098001	0.461604
0.470	1.205347	-1.473280	443.813914	2.040073	35.920284	-0.435472	-8.093546	0.459669
0.480	1.229794	-1.475401	443.350643	2.032101	35.858620	-0.423789	-8.088095	0.458351
0.490	1.230380	-1.485923	442.859320	2.024351	35.789414	-0.407337	-8.081441	0.457109
0.500	1.217983	-1.499709	442.440075	2.015451	35.720319	-0.390294	-8.073482	0.455531
0.510	1.206457	-1.508389	442.167603	2.005207	35.658323	-0.376622	-8.064436	0.453495
0.520	1.206980	-1.503087	442.078294	1.994722	35.608902	-0.368576	-8.054886	0.451215
0.530	1.224012	-1.477850	442.169516	1.986039	35.575207	-0.365881	-8.045604	0.449158
0.540	1.254803	-1.432418	442.407464	1.981532	35.557355	-0.365924	-8.037241	0.447897
0.550	1.292205	-1.373261	442.738507	1.983242	35.552097	-0.364890	-8.030044	0.447949
0.560	1.328972	-1.312426	443.100758	1.992260	35.553231	-0.359326	-8.023735	0.449618
0.570	1.361413	-1.264322	443.434982	2.008267	35.553012	-0.347461	-8.017638	0.452889
0.580	1.391021	-1.241294	443.694735	2.029342	35.544419	-0.329820	-8.011008	0.457374
0.590	1.423642	-1.249452	443.854648	2.052196	35.523589	-0.308977	-8.003428	0.462358
0.600	1.466605	-1.286365	443.914570	2.072896	35.491320	-0.288689	-7.995079	0.466958
0.610	1.525003	-1.341606	443.897447	2.088029	35.452767	-0.272765	-7.986702	0.470385
0.620	1.598660	-1.400015	443.840699	2.095937	35.415330	-0.264006	-7.979289	0.472227
0.630	1.681131	-1.446472	443.783323	2.097443	35.385712	-0.263420	-7.973646	0.472628
0.640	1.761211	-1.470435	443.752770	2.095559	35.367503	-0.269916	-7.970092	0.472236
0.650	1.826451	-1.468756	443.756032	2.094165	35.360240	-0.280621	-7.968396	0.471918
0.660	1.867464	-1.446045	443.778343	2.096288	35.360078	-0.291850	-7.967959	0.472373
0.670	1.881512	-1.412724	443.790502	2.102896	35.361509	-0.300437	-7.968063	0.473849
0.680	1.874023	-1.381487	443.762560	2.112916	35.359362	-0.304910	-7.968081	0.476137
0.690	1.857442	-1.363266	443.678402	2.124428	35.350440	-0.305967	-7.967582	0.478822
0.700	1.847662	-1.363768	443.544683	2.136222	35.334394	-0.306029	-7.966366	0.481625
0.710	1.859114	-1.381526	443.390014	2.148665	35.313620	-0.308093	-7.964460	0.484599
0.720	1.900050	-1.408151	443.255131	2.163401	35.292243	-0.314456	-7.962061	0.488071
0.730	1.969688	-1.430993	443.178725	2.182289	35.274597	-0.325904	-7.959452	0.492417
0.740	2.058289	-1.437489	443.184178	2.206448	35.263878	-0.341646	-7.956935	0.497862
0.750	2.150142	-1.419553	443.270868	2.236006	35.261486	-0.359875	-7.954840	0.504433
0.760	2.228215	-1.376116	443.412505	2.270511	35.267228	-0.378531	-7.953593	0.512054
0.770	2.278638	-1.312884	443.563991	2.309483	35.280066	-0.395919	-7.953771	0.520665
0.780	2.293529	-1.239922	443.675585	2.352587	35.298919	-0.410970	-7.956020	0.530249
0.790	2.271541	-1.168424	443.709437	2.399287	35.323045	-0.423220	-7.960851	0.540734
0.800	2.216541	-1.107866	443.651628	2.448354	35.351896	-0.432667	-7.968391	0.551864
0.810	2.135536	-1.064117	443.514591	2.497671	35.384681	-0.439613	-7.978245	0.563154
0.820	2.037026	-1.038712	443.329332	2.544485	35.420065	-0.444546	-7.989561	0.573949
0.830	1.930370	-1.029310	443.131920	2.585923	35.456328	-0.447998	-8.001303	0.583556
0.840	1.825747	-1.031079	442.951234	2.619549	35.491902	-0.450351	-8.012598	0.591385
0.850	1.733741	-1.038513	442.803357	2.643866	35.525910	-0.451644	-8.022954	0.597075
0.860	1.663847	-1.047108	442.693546	2.658752	35.558318	-0.451508	-8.032265	0.600585
0.870	1.622126	-1.054379	442.622811	2.665637	35.589644	-0.449310	-8.040626	0.602237
0.880	1.609044	-1.059991	442.594617	2.667221	35.620424	-0.444408	-8.048093	0.602633
0.890	1.618718	-1.065233	442.617718	2.666737	35.650678	-0.436382	-8.054508	0.602492
0.900	1.640152	-1.072210	442.702862	2.667136	35.679538	-0.425194	-8.059478	0.602466
0.910	1.660069	-1.082949	442.854057	2.670588	35.705136	-0.411335	-8.062506	0.603040
0.920	1.666324	-1.098403	443.058972	2.678328	35.724821	-0.395925	-8.063220	0.604508
0.930	1.650798	-1.117571	443.285425	2.690619	35.735765	-0.380677	-8.061570	0.606972
0.940	1.611038	-1.137319	443.488478	2.706674	35.735899	-0.367600	-8.057909	0.610314
0.950	1.550543	-1.153340	443.626090	2.724732	35.724972	-0.358489	-8.052947	0.614196
0.960	1.478050	-1.162087	443.675606	2.742450	35.705266	-0.354389	-8.047606	0.618120
0.970	1.406264	-1.162731	443.642807	2.757611	35.681433	-0.355233	-8.042829	0.621584
0.980	1.350027	-1.157904	443.559422	2.768918	35.659217	-0.359847	-8.039332	0.624250
0.990	1.323772	-1.152527	443.470619	2.776548	35.643488	-0.366325	-8.037396	0.626095
1.000	1.338445	-1.151190	443.418431	2.782181	35.636471	-0.372619	-8.036759	0.627439
1.010	1.398550	-1.155609	443.428032	2.788381	35.636948	-0.377133	-8.036693	0.628824
1.020	1.500124	-1.163634	443.501303	2.797569	35.640764	-0.379134	-8.036225	0.630792
1.030	1.630462	-1.170309	443.618155	2.811073	35.642365	-0.378885	-8.034469	0.633670
1.040	1.770219	-1.170292	443.743464	2.828710	35.636758	-0.377448	-8.030937	0.637465
1.050	1.897845	-1.160472	443.836981	2.849011	35.621167	-0.376192	-8.025732	0.641905
1.060	1.995208	-1.141638	443.864120	2.869884	35.595856	-0.376170	-8.019539	0.646568
1.070	2.052441	-1.118549	443.805447	2.889305	35.563982	-0.377629	-8.013417	0.651030
1.080	2.070083	-1.098435	443.662589	2.905796	35.530708	-0.379946	-8.008498	0.654956
1.090	2.057521	-1.088764	443.459359	2.918685	35.502097	-0.382002	-8.005716	0.658163
1.100	2.028371	-1.095272	443.238629	2.928285	35.484226	-0.382765	-8.005671	0.660656
1.110	1.995102	-1.120684	443.056153	2.935983	35.482545	-0.381722	-8.008589	0.662666
1.120	1.965561	-1.163991	442.971388	2.944006	35.501172	-0.378936	-8.014326	0.664604
1.130	1.942840	-1.220201	443.034114	2.954702	35.541847	-0.374800	-8.022373	0.666924
1.140	1.927735	-1.280901	443.266898	2.969542	35.602682	-0.369761	-8.031884	0.669922
1.150	1.921593	-1.335955	443.647918	2.988375	35.677267	-0.364238	-8.041797	0.673592
1.160	1.927513	-1.376031	444.103483	3.009393	35.754882	-0.358788	-8.051025	0.677633
1.170	1.949176	-1.394915	444.519126	3.029857	35.822336	-0.354338	-8.058672	0.681603
1.180	1.988177	-1.390615	444.770026	3.047135	35.867233	-0.352252	-8.064220	0.685104
1.190	2.041498	-1.364881	444.760402	3.059441	35.881723	-0.354100	-8.067652	0.687885
1.200	2.100684	-1.321538	444.455632	3.065913	35.865316	-0.361129	-8.069493	0.689813
1.210	2.153422	-1.264517	443.894465	3.066175	35.825585	-0.373645	-8.070744	0.690744
1.220	2.186991	-1.196574	443.178327	3.059865	35.776410	-0.390605	-8.072689	0.690437
1.230	2.192084	-1.119453	442.444070	3.046623	35.734347	-0.409669	-8.076579	0.688589
1.240	2.165429	-1.035559	441.830619	3.026714	35.714377	-0.427731	-8.083274	0.685039
1.250	2.110407	-0.950297	441.448671	3.002020	35.726367	-0.441704	-8.092983	0.680038
1.260	2.035719	-0.873459	441.359005	2.976710	35.773195	-0.449285	-8.105237	0.674442
1.270	1.952728	-0.817996	441.562434	2.956817	35.850841	-0.449462	-8.119088	0.669626
1.280	1.872351	-0.795825	442.002786	2.948502	35.950160	-0.442670	-8.133469	0.667078
1.290	1.802504	-0.812237	442.582142	2.955651	36.059599	-0.430574	-8.147549	0.667820
1.300	1.746942	-0.861798	443.184803	2.978099	36.168013	-0.415554	-8.160933	0.671977
1.310	1.705861	-0.928258	443.704159	3.011495	36.266786	-0.400082	-8.173641	0.678717
1.320	1.677745	-0.989134	444.065774	3.048903	36.350907	-0.386154	-8.185928	0.686588
1.330	1.661291	-1.023251	444.240615	3.083261	36.419117	-0.374907	-8.198061	0.694052
1.340	1.656292	-1.018095	444.244936	3.109492	36.473429	-0.366476	-8.210207	0.699950
1.350	1.663127	-0.974013	444.127441	3.125482	36.518207	-0.360140	-8.222461	0.703735
1.360	1.681462	-0.903762	443.948834	3.131850	36.558856	-0.354750	-8.234926	0.705453
1.370	1.709094	-0.827760	443.761409	3.131024	36.600286	-0.349303	-8.247740	0.705565
1.380	1.741511	-0.766945	443.595806	3.126217	36.645522	-0.343390	-8.261016	0.704744
1.390	1.772247	-0.735944	443.458874	3.120637	36.695017	-0.337315	-8.274728	0.703704
1.400	1.793954	-0.738907	443.341709	3.116968	36.747024	-0.331864	-8.288646	0.703062
1.410	1.800072	-0.769180	443.232380	3.116964	36.798880	-0.327917	-8.302390	0.703235
1.420	1.786620	-0.812523	443.126203	3.121159	36.848575	-0.326134	-8.315594	0.704350
1.430	1.753433	-0.852547	443.028891	3.128784	36.895912	-0.326845	-8.328105	0.706226
1.440	1.704410	-0.876356	442.952752	3.138017	36.942773	-0.330096	-8.340116	0.708432
1.450	1.646660	-0.878354	442.909588	3.146534	36.992433	-0.335706	-8.352141	0.710424
1.460	1.588688	-0.860903	442.904348	3.152202	37.048168	-0.343270	-8.364824	0.711712
1.470	1.538021	-0.831974	442.932323	3.153642	37.111711	-0.352076	-8.378641	0.711992
1.480	1.499071	-0.801267	442.981290	3.150529	37.182206	-0.361064	-8.393629	0.711210
1.490	1.472125	-0.776707	443.037660	3.143596	37.256193	-0.368925	-8.409261	0.709555
1.500	1.453770	-0.762662	443.092796	3.134449	37.328735	-0.374423	-8.424586	0.707402
1.510	1.438393	-0.759999	443.144914	3.125276	37.395205	-0.376821	-8.438595	0.705249
1.520	1.420089	-0.767213	443.195036	3.118520	37.452924	-0.376200	-8.450664	0.703645
1.530	1.394380	-0.781746	443.239808	3.116485	37.501863	-0.373441	-8.460852	0.703115
1.540	1.359377	-0.801036	443.266459	3.120815	37.544072	-0.369879	-8.469865	0.704049
1.550	1.316305	-0.823257	443.254370	3.131887	37.582181	-0.366774	-8.478694	0.706566
1.560	1.269366	-0.847781	443.183765	3.148272	37.617865	-0.364872	-8.488096	0.710376
1.570	1.224837	-0.875299	443.047275	3.166631	37.651180	-0.364200	-8.498231	0.714739
1.580	1.189344	-0.907473	442.857985	3.182369	37.681074	-0.364150	-8.508613	0.718598
1.590	1.167765	-0.946114	442.649727	3.191125	37.706640	-0.363760	-8.518392	0.720914
1.600	1.161704	-0.992171	442.469272	3.190579	37.728304	-0.362113	-8.526763	0.721085
1.610	1.169263	-1.044883	442.363140	3.181587	37.748310	-0.358759	-8.533331	0.719225
1.620	1.186205	-1.101293	442.363488	3.167930	37.770251	-0.354047	-8.538284	0.716137
1.630	1.207873	-1.156274	442.478316	3.154775	37.797846	-0.349212	-8.542305	0.712978
1.640	1.231009	-1.203284	442.689987	3.146671	37.833441	-0.346115	-8.546261	0.710807
1.650	1.254630	-1.235866	442.962321	3.145956	37.876881	-0.346702	-8.550813	0.710208
1.660	1.279508	-1.249342	443.252021	3.152068	37.925252	-0.352419	-8.556137	0.711123
1.670	1.306485	-1.241802	443.518613	3.161845	37.973689	-0.363793	-8.561916	0.712900
1.680	1.334541	-1.213953	443.729687	3.170601	38.017010	-0.380304	-8.567606	0.714534
1.690	1.359898	-1.168286	443.862660	3.173597	38.051480	-0.400470	-8.572805	0.714995
1.700	1.376935	-1.108483	443.906125	3.167427	38.075960	-0.422067	-8.577480	0.713535
1.710	1.380622	-1.039631	443.861755	3.150885	38.091978	-0.442439	-8.581946	0.709880
1.720	1.369217	-0.968799	443.745064	3.125118	38.102931	-0.458908	-8.586671	0.704260
1.730	1.345701	-0.904901	443.583777	3.093100	38.113106	-0.469208	-8.592087	0.697298
1.740	1.317118	-0.857121	443.415232	3.058705	38.127181	-0.471845	-8.598528	0.689806
1.750	1.292023	-0.832263	443.284547	3.025656	38.150256	-0.466309	-8.606268	0.682554
1.760	1.277126	-0.832390	443.242109	2.996567	38.187875	-0.453168	-8.615579	0.676057
1.770	1.274567	-0.854040	443.335970	2.972369	38.245332	-0.434053	-8.626715	0.670455
1.780	1.280954	-0.889292	443.596030	2.952368	38.325917	-0.411535	-8.639824	0.665553
1.790	1.288545	-0.928037	444.012631	2.935044	38.428470	-0.388802	-8.654815	0.661027
1.800	1.288236	-0.960572	444.519243	2.919165	38.545378	-0.369105	-8.671251	0.656702
1.810	1.273303	-0.979960	444.992418	2.904602	38.662418	-0.355022	-8.688332	0.652731
1.820	1.242478	-0.983777	445.278069	2.892389	38.761394	-0.347769	-8.704986	0.649569
1.830	1.200904	-0.974829	445.240779	2.884047	38.825261	-0.346835	-8.720060	0.647750
1.840	1.158187	-0.960374	444.817860	2.880580	38.843989	-0.350162	-8.732561	0.647586
1.850	1.124149	-0.949719	444.052620	2.881620	38.818739	-0.354897	-8.741923	0.648937
1.860	1.104202	-0.950801	443.088793	2.885154	38.762440	-0.358440	-8.748233	0.651146
1.870	1.096720	-0.967061	442.127158	2.888042	38.696402	-0.359331	-8.752324	0.653215
1.880	1.093750	-0.995973	441.363870	2.887160	38.644297	-0.357658	-8.755655	0.654145
1.890	1.084561	-1.029826	440.936499	2.880600	38.625668	-0.354890	-8.759916	0.653291
1.900	1.060107	-1.058346	440.896017	2.868354	38.651063	-0.353313	-8.766480	0.650574
1.910	1.016291	-1.072187	441.208303	2.852203	38.720069	-0.355291	-8.775916	0.646453
1.920	0.954916	-1.066208	441.776670	2.835009	38.822431	-0.362544	-8.787796	0.641729
1.930	0.882597	-1.041569	442.472581	2.819810	38.941483	-0.375556	-8.800880	0.637285
1.940	0.808698	-1.005804	443.164651	2.809057	39.058569	-0.393230	-8.813557	0.633863
1.950	0.743370	-0.970494	443.741684	2.804120	39.157214	-0.412903	-8.824326	0.631926
1.960	0.696219	-0.947110	444.129270	2.805022	39.226207	-0.430817	-8.832160	0.631578
1.970	0.675519	-0.942576	444.299643	2.810371	39.261242	-0.443039	-8.836658	0.632540
1.980	0.687421	-0.956483	444.273133	2.817556	39.265003	-0.446570	-8.838032	0.634194
1.990	0.734740	-0.981126	444.109491	2.823330	39.245689	-0.440208	-8.836940	0.635728
2.000	0.815510	-1.004278	443.889508	2.824765	39.214192	-0.424791	-8.834224	0.636367
2.010	0.922081	-1.013585	443.690841	2.820318	39.180668	-0.402760	-8.830624	0.635649
2.020	1.041624	-1.001121	443.565161	2.810616	39.151633	-0.377343	-8.826580	0.633642
2.030	1.158304	-0.966684	443.524760	2.798500	39.128760	-0.351728	-8.822227	0.630968
2.040	1.256533	-0.918663	443.543843	2.788208	39.109883	-0.328459	-8.817591	0.628621
2.050	1.324310	-0.871894	443.573624	2.783927	39.091615	-0.309097	-8.812881	0.627613
2.060	1.355782	-0.842886	443.564574	2.788279	39.072110	-0.294139	-8.808663	0.628607
2.070	1.352509	-0.843994	443.487003	2.801312	39.052509	-0.283178	-8.805784	0.631656
2.080	1.322986	-0.878696	443.342732	2.820416	39.036509	-0.275276	-8.805041	0.636170
2.090	1.280227	-0.939905	443.164139	2.841252	39.028612	-0.269402	-8.806807	0.641128
2.100	1.237858	-1.012044	443.001489	2.859321	39.032197	-0.264806	-8.810850	0.645443
2.110	1.206007	-1.076111	442.903958	2.871434	39.048372	-0.261246	-8.816442	0.648320
2.120	1.188537	-1.115830	442.902165	2.876389	39.075955	-0.259037	-8.822706	0.649441
2.130	1.182676	-1.122611	442.998504	2.874693	39.112273	-0.258945	-8.828985	0.648917
2.140	1.181018	-1.097567	443.167251	2.867715	39.154126	-0.261941	-8.835068	0.647095
2.150	1.174857	-1.050141	443.362947	2.856857	39.198383	-0.268868	-8.841150	0.644361
2.160	1.157332	-0.994227	443.534108	2.843065	39.242075	-0.280133	-8.847589	0.641003
2.170	1.125179	-0.943538	443.638540	2.826712	39.282286	-0.295492	-8.854570	0.637166
2.180	1.078946	-0.907765	443.655560	2.807724	39.316138	-0.313974	-8.861861	0.632861
2.190	1.022387	-0.890494	443.590736	2.785869	39.341049	-0.333929	-8.868771	0.628027
2.200	0.961860	-0.889208	443.471199	2.761123	39.355176	-0.353195	-8.874348	0.622616
2.210	0.905722	-0.897330	443.333461	2.733932	39.357947	-0.369420	-8.877730	0.616676
2.220	0.863085	-0.907555	443.209250	2.705200	39.350473	-0.380569	-8.878532	0.610366
2.230	0.841706	-0.915087	443.116136	2.675891	39.335620	-0.385512	-8.877045	0.603880
2.240	0.845751	-0.919327	443.057189	2.646475	39.317549	-0.384433	-8.874148	0.597321
2.250	0.874507	-0.923389	443.028224	2.616589	39.300825	-0.378808	-8.870953	0.590615
2.260	0.922469	-0.931949	443.025957	2.585234	39.289344	-0.370863	-8.868407	0.583540
2.270	0.980463	-0.948665	443.050114	2.551366	39.285440	-0.362746	-8.867042	0.575864
2.280	1.037340	-0.974418	443.098130	2.514537	39.289519	-0.355836	-8.867002	0.567490
2.290	1.081966	-1.007148	443.158204	2.475280	39.300379	-0.350478	-8.868250	0.558555
2.300	1.105328	-1.043203	443.208893	2.435132	39.316097	-0.346182	-8.870783	0.549432
2.310	1.102483	-1.079252	443.229198	2.396192	39.335084	-0.342103	-8.874660	0.540621
2.320	1.073907	-1.113528	443.215110	2.360277	39.356807	-0.337546	-8.879843	0.532535
2.330	1.025799	-1.145765	443.192355	2.328041	39.381890	-0.332263	-8.885959	0.525289
2.340	0.968970	-1.176194	443.214827	2.298672	39.411557	-0.326500	-8.892202	0.518636
2.350	0.916327	-1.204553	443.345092	2.270431	39.446646	-0.320857	-8.897504	0.512114
2.360	0.879487	-1.229888	443.623068	2.241675	39.486498	-0.316152	-8.900912	0.505311
2.370	0.865621	-1.251246	444.036179	2.211652	39.528091	-0.313332	-8.901998	0.498079
