Time[s]	Fx[N]	Fy[N]	Fz[N]	Mx[Nm]	My[Nm]	Mz[Nm]	COPx[cm]	COPy[cm]
0.010	3.413954	-0.951739	646.903595	0.130764	-9.280461	-0.295679	1.434597	0.020214
0.020	3.429590	-0.898292	647.057532	0.113829	-9.324425	-0.292978	1.441050	0.017592
0.030	3.454710	-0.847323	647.183682	0.101827	-9.367304	-0.290397	1.447395	0.015734
0.040	3.495334	-0.802214	647.258347	0.098576	-9.408151	-0.287794	1.453539	0.015230
0.050	3.552026	-0.766622	647.269669	0.105777	-9.445968	-0.284871	1.459356	0.016342
0.060	3.620088	-0.744279	647.221186	0.122766	-9.479535	-0.281350	1.464651	0.018968
0.070	3.691431	-0.738258	647.130708	0.146822	-9.507434	-0.277167	1.469167	0.022688
0.080	3.757123	-0.749773	647.024240	0.173913	-9.528453	-0.272561	1.472658	0.026879
0.090	3.809773	-0.776980	646.927708	0.199694	-9.542210	-0.268045	1.475004	0.030868
0.100	3.845203	-0.814419	646.860467	0.220642	-9.549640	-0.264296	1.476306	0.034110
0.110	3.863083	-0.853433	646.832841	0.235010	-9.553020	-0.262009	1.476892	0.036332
0.120	3.866483	-0.883565	646.846888	0.243249	-9.555464	-0.261721	1.477237	0.037605
0.130	3.860659	-0.894725	646.897900	0.247615	-9.560110	-0.263610	1.477839	0.038277
0.140	3.851593	-0.879902	646.975060	0.251121	-9.569332	-0.267293	1.479088	0.038815
0.150	3.844809	-0.837701	647.062018	0.256387	-9.584325	-0.271710	1.481207	0.039623
0.160	3.844755	-0.773520	647.139457	0.265011	-9.605163	-0.275206	1.484249	0.040951
0.170	3.854748	-0.698306	647.190572	0.277638	-9.631151	-0.275926	1.488148	0.042899
0.180	3.877285	-0.624942	647.207728	0.294398	-9.661118	-0.272450	1.492738	0.045487
0.190	3.914381	-0.563705	647.196744	0.315142	-9.693457	-0.264367	1.497760	0.048693
0.200	3.967507	-0.518962	647.175949	0.339190	-9.726000	-0.252476	1.502837	0.052411
0.210	4.036822	-0.488674	647.170021	0.364869	-9.756038	-0.238486	1.507492	0.056379
0.220	4.119901	-0.466767	647.201317	0.389422	-9.780638	-0.224385	1.511220	0.060170
0.230	4.210678	-0.446904	647.282004	0.409623	-9.797210	-0.211837	1.513592	0.063284
0.240	4.299496	-0.425735	647.409266	0.422873	-9.804150	-0.201906	1.514367	0.065318
0.250	4.374692	-0.404277	647.564600	0.428144	-9.801339	-0.195155	1.513569	0.066116
0.260	4.425420	-0.387072	647.717480	0.426302	-9.790244	-0.191893	1.511499	0.065816
0.270	4.444610	-0.379651	647.832886	0.419816	-9.773470	-0.192311	1.508641	0.064803
0.280	4.430754	-0.385450	647.880870	0.412099	-9.753838	-0.196374	1.505499	0.063607
0.290	4.387781	-0.403489	647.844982	0.406744	-9.733435	-0.203603	1.502433	0.062784
0.300	4.323202	-0.427806	647.726613	0.406707	-9.713131	-0.212951	1.499573	0.062790
0.310	4.245555	-0.448860	647.544454	0.413534	-9.692762	-0.222900	1.496849	0.063862
0.320	4.162380	-0.456330	647.330576	0.426827	-9.671735	-0.231763	1.494095	0.065936
0.330	4.079514	-0.442310	647.125079	0.444163	-9.649567	-0.238142	1.491144	0.068636
0.340	4.001600	-0.403872	646.970035	0.461567	-9.626027	-0.241416	1.487863	0.071343
0.350	3.932868	-0.344270	646.902374	0.474472	-9.600885	-0.242079	1.484132	0.073345
0.360	3.877225	-0.272504	646.945855	0.478920	-9.573540	-0.241660	1.479805	0.074028
0.370	3.837383	-0.201356	647.103811	0.472599	-9.542849	-0.242115	1.474701	0.073033
0.380	3.813709	-0.144305	647.355759	0.455265	-9.507398	-0.244903	1.468651	0.070327
0.390	3.803914	-0.111996	647.660486	0.428429	-9.466228	-0.250225	1.461603	0.066150
0.400	3.804161	-0.109113	647.965190	0.394568	-9.419684	-0.256828	1.453733	0.060893
0.410	3.810976	-0.132709	648.216791	0.356265	-9.369875	-0.262436	1.445485	0.054961
0.420	3.822569	-0.172927	648.371286	0.315490	-9.320413	-0.264587	1.437512	0.048659
0.430	3.838660	-0.216279	648.399607	0.273025	-9.275475	-0.261530	1.430518	0.042108
0.440	3.859071	-0.250517	648.290515	0.228081	-9.238542	-0.252881	1.425062	0.035182
0.450	3.882121	-0.269218	648.050915	0.178230	-9.211369	-0.239825	1.421396	0.027503
0.460	3.903715	-0.274325	647.703425	0.119827	-9.193577	-0.224797	1.419411	0.018500
0.470	3.917448	-0.275614	647.281587	0.048907	-9.182852	-0.210746	1.418680	0.007556
0.480	3.915501	-0.287168	646.824076	-0.037631	-9.175498	-0.200283	1.418546	-0.005818
0.490	3.890003	-0.321942	646.369767	-0.140954	-9.167131	-0.195027	1.418249	-0.021807
0.500	3.834594	-0.386312	645.955219	-0.259778	-9.153473	-0.195290	1.417045	-0.040216
0.510	3.745976	-0.476928	645.614927	-0.390701	-9.131205	-0.200087	1.414342	-0.060516
0.520	3.625200	-0.581613	645.382809	-0.529227	-9.098696	-0.207354	1.409814	-0.082002
0.530	3.478397	-0.684257	645.291823	-0.670915	-9.056427	-0.214385	1.403462	-0.103971
0.540	3.316652	-0.771505	645.368933	-0.812080	-9.007022	-0.218411	1.395639	-0.125832
0.550	3.154995	-0.838051	645.625428	-0.949799	-8.954838	-0.217212	1.387002	-0.147113
0.560	3.010764	-0.888209	646.046577	-1.081365	-8.905150	-0.209588	1.378407	-0.167382
0.570	2.901545	-0.933261	646.586826	-1.203610	-8.863112	-0.195594	1.370754	-0.186148
0.580	2.842691	-0.985703	647.174747	-1.312644	-8.832768	-0.176497	1.364820	-0.202827
0.590	2.844566	-1.052690	647.726962	-1.404336	-8.816364	-0.154500	1.361124	-0.216810
0.600	2.909885	-1.131706	648.166375	-1.475392	-8.814050	-0.132291	1.359844	-0.227625
0.610	3.031736	-1.210912	648.439281	-1.524493	-8.823962	-0.112503	1.360800	-0.235102
0.620	3.193056	-1.274422	648.527048	-1.552958	-8.842589	-0.097216	1.363488	-0.239459
0.630	3.368523	-1.309929	648.449264	-1.564696	-8.865353	-0.087662	1.367162	-0.241298
0.640	3.529378	-1.314755	648.256996	-1.565543	-8.887337	-0.084237	1.370959	-0.241500
0.650	3.650238	-1.297427	648.017897	-1.562127	-8.904159	-0.086798	1.374061	-0.241062
0.660	3.715566	-1.274307	647.797952	-1.560537	-8.912872	-0.095036	1.375872	-0.240899
0.670	3.723256	-1.263137	647.645278	-1.565173	-8.912579	-0.108684	1.376151	-0.241671
0.680	3.684138	-1.276481	647.579568	-1.578191	-8.904415	-0.127463	1.375030	-0.243706
0.690	3.617853	-1.317793	647.589100	-1.599723	-8.890854	-0.150857	1.372916	-0.247027
0.700	3.546691	-1.381539	647.636479	-1.628713	-8.874699	-0.177926	1.370321	-0.251486
0.710	3.489352	-1.456852	647.672688	-1.663964	-8.858255	-0.207293	1.367705	-0.256914
0.720	3.456410	-1.532639	647.655697	-1.704850	-8.842909	-0.237294	1.365372	-0.263234
0.730	3.448708	-1.601562	647.566541	-1.751306	-8.829089	-0.266223	1.363426	-0.270444
0.740	3.459033	-1.661323	647.415247	-1.803082	-8.816494	-0.292575	1.361799	-0.278505
0.750	3.476321	-1.713372	647.233336	-1.858708	-8.804552	-0.315226	1.360337	-0.287177
0.760	3.490611	-1.760338	647.057300	-1.914898	-8.792930	-0.333502	1.358911	-0.295940
0.770	3.496696	-1.803694	646.913028	-1.966996	-8.781912	-0.347186	1.357511	-0.304059
0.780	3.495117	-1.842525	646.809449	-2.010384	-8.772479	-0.356476	1.356269	-0.310816
0.790	3.490480	-1.873654	646.742304	-2.042174	-8.766068	-0.361937	1.355419	-0.315763
0.800	3.488308	-1.892947	646.702419	-2.062290	-8.764113	-0.364396	1.355200	-0.318893
0.810	3.492043	-1.897393	646.681956	-2.073563	-8.767545	-0.364785	1.355774	-0.320647
0.820	3.501583	-1.887184	646.676029	-2.080899	-8.776467	-0.363972	1.357166	-0.321784
0.830	3.513821	-1.866657	646.681754	-2.089895	-8.790092	-0.362621	1.359261	-0.323172
0.840	3.524654	-1.843310	646.698558	-2.105275	-8.806901	-0.361087	1.361825	-0.325542
0.850	3.531256	-1.825182	646.731171	-2.129507	-8.824962	-0.359372	1.364549	-0.329272
0.860	3.533468	-1.817912	646.792438	-2.162066	-8.842336	-0.357189	1.367106	-0.334275
0.870	3.533826	-1.822952	646.901014	-2.199684	-8.857476	-0.354186	1.369217	-0.340034
0.880	3.536413	-1.837639	647.071699	-2.237578	-8.869467	-0.350254	1.370708	-0.345801
0.890	3.545121	-1.856739	647.301942	-2.271115	-8.878054	-0.345767	1.371548	-0.350859
0.900	3.562020	-1.874437	647.562615	-2.297150	-8.883535	-0.341620	1.371842	-0.354738
0.910	3.586415	-1.885823	647.801069	-2.314565	-8.886668	-0.338982	1.371821	-0.357296
0.920	3.614861	-1.887573	647.958417	-2.324013	-8.888672	-0.338867	1.371797	-0.358667
0.930	3.642119	-1.878076	647.993841	-2.327252	-8.891182	-0.341690	1.372109	-0.359147
0.940	3.662775	-1.857358	647.902708	-2.326439	-8.896025	-0.346991	1.373049	-0.359072
0.950	3.673089	-1.826955	647.718312	-2.323581	-8.904808	-0.353470	1.374796	-0.358733
0.960	3.672616	-1.789793	647.497342	-2.320165	-8.918455	-0.359332	1.377373	-0.358328
0.970	3.665013	-1.749948	647.298447	-2.317012	-8.936888	-0.362855	1.380644	-0.357951
0.980	3.657509	-1.712059	647.164587	-2.314415	-8.959008	-0.362933	1.384348	-0.357624
0.990	3.659003	-1.680295	647.114349	-2.312515	-8.983031	-0.359345	1.388168	-0.357358
1.000	3.677441	-1.657208	647.141422	-2.311711	-9.007079	-0.352661	1.391826	-0.357219
1.010	3.717396	-1.643163	647.219591	-2.312779	-9.029762	-0.343842	1.395162	-0.357341
1.020	3.778526	-1.636659	647.311733	-2.316510	-9.050419	-0.333728	1.398155	-0.357866
1.030	3.855144	-1.635076	647.381621	-2.323027	-9.068920	-0.322684	1.400862	-0.358834
1.040	3.936972	-1.635094	647.405624	-2.331271	-9.085242	-0.310567	1.403331	-0.360094
1.050	4.011041	-1.632728	647.380165	-2.339088	-9.099110	-0.297037	1.405528	-0.361316
1.060	4.064492	-1.623806	647.321729	-2.343992	-9.109883	-0.282004	1.407319	-0.362106
1.070	4.087652	-1.605561	647.259091	-2.344193	-9.116648	-0.265967	1.408501	-0.362172
1.080	4.076517	-1.578686	647.220700	-2.339264	-9.118496	-0.250043	1.408870	-0.361432
1.090	4.033803	-1.548157	647.222638	-2.330034	-9.114852	-0.235651	1.408302	-0.360005
1.100	3.968147	-1.521548	647.262665	-2.317744	-9.105739	-0.224027	1.406807	-0.358084
1.110	3.891651	-1.505236	647.322648	-2.303004	-9.091857	-0.215789	1.404533	-0.355774
1.120	3.816490	-1.500539	647.377192	-2.285217	-9.074524	-0.210787	1.401737	-0.352996
1.130	3.751610	-1.502121	647.403797	-2.262789	-9.055548	-0.208270	1.398748	-0.349517
1.140	3.700722	-1.499863	647.390635	-2.233972	-9.036985	-0.207244	1.395909	-0.345073
1.150	3.662548	-1.483508	647.340213	-2.197848	-9.020695	-0.206826	1.393501	-0.339520
1.160	3.633273	-1.447837	647.268929	-2.154956	-9.007813	-0.206448	1.391665	-0.332931
1.170	3.609884	-1.395800	647.202984	-2.107220	-8.998450	-0.205889	1.390360	-0.325589
1.180	3.592487	-1.338080	647.170972	-2.057216	-8.991873	-0.205168	1.389412	-0.317878
1.190	3.584293	-1.289258	647.194528	-2.007120	-8.987041	-0.204400	1.388615	-0.310126
1.200	3.589373	-1.262145	647.280575	-1.957924	-8.983112	-0.203655	1.387823	-0.302485
1.210	3.609523	-1.262463	647.419388	-1.909419	-8.979561	-0.202852	1.386977	-0.294928
1.220	3.642012	-1.286010	647.589544	-1.861007	-8.975837	-0.201723	1.386038	-0.287374
1.230	3.679405	-1.319730	647.766251	-1.812774	-8.970856	-0.199899	1.384891	-0.279850
1.240	3.711778	-1.346632	647.927698	-1.766052	-8.962802	-0.197109	1.383303	-0.272569
1.250	3.730500	-1.352687	648.056109	-1.723117	-8.949528	-0.193418	1.380980	-0.265890
1.260	3.731883	-1.332642	648.134184	-1.686336	-8.929396	-0.189404	1.377708	-0.260183
1.270	3.718772	-1.292026	648.140995	-1.657247	-8.902103	-0.186173	1.373483	-0.255692
1.280	3.698947	-1.244438	648.052170	-1.635886	-8.869067	-0.185101	1.368573	-0.252431
1.290	3.680840	-1.205448	647.846592	-1.620460	-8.833205	-0.187330	1.363472	-0.250130
1.300	3.668588	-1.185767	647.517515	-1.607530	-8.798213	-0.193199	1.358761	-0.248260
1.310	3.659045	-1.186493	647.082977	-1.592836	-8.767560	-0.201906	1.354936	-0.246156
1.320	3.642523	-1.198428	646.589738	-1.572655	-8.743503	-0.211678	1.352249	-0.243223
1.330	3.607256	-1.206076	646.106867	-1.545091	-8.726417	-0.220406	1.350615	-0.239139
1.340	3.545580	-1.195004	645.709810	-1.510606	-8.714706	-0.226450	1.349632	-0.233945
1.350	3.458894	-1.159387	645.461565	-1.471526	-8.705380	-0.229212	1.348706	-0.227980
1.360	3.359036	-1.105806	645.399517	-1.430809	-8.695198	-0.229252	1.347258	-0.221694
1.370	3.265265	-1.050875	645.532041	-1.390666	-8.681923	-0.227972	1.344925	-0.215429
1.380	3.197771	-1.013592	645.842124	-1.351611	-8.665131	-0.227113	1.341679	-0.209279
1.390	3.170191	-1.006343	646.292410	-1.312350	-8.646218	-0.228300	1.337818	-0.203058
1.400	3.184396	-1.029069	646.828864	-1.270582	-8.627689	-0.232776	1.333844	-0.196432
1.410	3.230119	-1.069122	647.384642	-1.224322	-8.612164	-0.241287	1.330301	-0.189118
1.420	3.289609	-1.106410	647.887016	-1.173066	-8.601467	-0.254042	1.327618	-0.181060
1.430	3.344847	-1.121325	648.267787	-1.118267	-8.596074	-0.270672	1.326007	-0.172501
1.440	3.383955	-1.102251	648.474835	-1.063032	-8.595021	-0.290197	1.325421	-0.163928
1.450	3.404375	-1.049885	648.481764	-1.011289	-8.596252	-0.311045	1.325597	-0.155947
1.460	3.412093	-0.976832	648.293823	-0.966713	-8.597282	-0.331187	1.326140	-0.149116
1.470	3.417611	-0.902627	647.949335	-0.931618	-8.595913	-0.348456	1.326634	-0.143780
1.480	3.430433	-0.846162	647.515741	-0.906027	-8.590702	-0.361001	1.326717	-0.139923
1.490	3.454321	-0.818661	647.079317	-0.887267	-8.580949	-0.367745	1.326105	-0.137119
1.500	3.485230	-0.819998	646.728948	-0.870449	-8.566300	-0.368700	1.324558	-0.134593
1.510	3.512601	-0.839566	646.536576	-0.849868	-8.546348	-0.365038	1.321866	-0.131449
1.520	3.523295	-0.860870	646.538912	-0.820958	-8.520645	-0.358908	1.317886	-0.126977
1.530	3.506472	-0.867704	646.725811	-0.782017	-8.489164	-0.352974	1.312637	-0.120919
1.540	3.457722	-0.849670	647.040073	-0.734942	-8.452913	-0.349705	1.306397	-0.113585
1.550	3.381220	-0.805386	647.391183	-0.684608	-8.414336	-0.350553	1.299730	-0.105749
1.560	3.289299	-0.742712	647.681008	-0.637150	-8.377291	-0.355303	1.293429	-0.098374
1.570	3.199462	-0.676284	647.833404	-0.597877	-8.346540	-0.361944	1.288378	-0.092289
1.580	3.129592	-0.623172	647.816153	-0.569618	-8.326825	-0.367219	1.285368	-0.087929
1.590	3.092731	-0.597764	647.646829	-0.552046	-8.321756	-0.367741	1.284922	-0.085239
1.600	3.093177	-0.607115	647.382288	-0.542104	-8.332874	-0.361275	1.287164	-0.083738
1.610	3.125350	-0.648152	647.098305	-0.535290	-8.359186	-0.347693	1.291795	-0.082722
1.620	3.175929	-0.707964	646.867437	-0.527388	-8.397322	-0.329205	1.298152	-0.081530
1.630	3.228437	-0.767490	646.740968	-0.516085	-8.442216	-0.309777	1.305347	-0.079798
1.640	3.268444	-0.807682	646.738301	-0.501782	-8.488153	-0.293932	1.312456	-0.077587
1.650	3.287492	-0.815978	646.845804	-0.487147	-8.529960	-0.285323	1.318701	-0.075311
1.660	3.284574	-0.790496	647.025512	-0.475531	-8.564192	-0.285575	1.323625	-0.073495
1.670	3.265296	-0.740193	647.230957	-0.469016	-8.590052	-0.293748	1.327200	-0.072465
1.680	3.239626	-0.681012	647.423712	-0.467102	-8.609704	-0.306614	1.329841	-0.072148
1.690	3.219131	-0.629898	647.582900	-0.466606	-8.627745	-0.319619	1.332300	-0.072054
1.700	3.214225	-0.599280	647.703466	-0.462757	-8.649958	-0.328240	1.335481	-0.071446
1.710	3.231836	-0.593905	647.785985	-0.451012	-8.681787	-0.329277	1.340225	-0.069624
1.720	3.273953	-0.610659	647.826301	-0.428910	-8.726987	-0.321708	1.347118	-0.066208
1.730	3.337452	-0.640902	647.813061	-0.397239	-8.786759	-0.306853	1.356373	-0.061320
1.740	3.415107	-0.674139	647.735345	-0.359968	-8.859482	-0.287812	1.367763	-0.055573
1.750	3.497348	-0.701573	647.595258	-0.322973	-8.940997	-0.268359	1.380646	-0.049873
1.760	3.574203	-0.718304	647.416641	-0.292123	-9.025308	-0.251714	1.394049	-0.045121
1.770	3.636955	-0.723602	647.243110	-0.271545	-9.105597	-0.239673	1.406828	-0.041954
1.780	3.679417	-0.719528	647.124854	-0.262670	-9.175494	-0.232374	1.417886	-0.040590
1.790	3.698991	-0.708924	647.100207	-0.264266	-9.230440	-0.228636	1.426431	-0.040838
1.800	3.697669	-0.694010	647.180782	-0.273241	-9.268772	-0.226583	1.432177	-0.042220
1.810	3.682495	-0.676286	647.346668	-0.285837	-9.292117	-0.224300	1.435416	-0.044155
1.820	3.664616	-0.657370	647.552874	-0.298739	-9.304866	-0.220378	1.436928	-0.046134
1.830	3.656414	-0.639721	647.743233	-0.309841	-9.312908	-0.214279	1.437747	-0.047834
1.840	3.667405	-0.626468	647.866047	-0.318485	-9.322045	-0.206467	1.438885	-0.049159
1.850	3.700476	-0.620380	647.887089	-0.325155	-9.336533	-0.198292	1.441074	-0.050187
1.860	3.750038	-0.622561	647.798058	-0.330649	-9.358146	-0.191604	1.444609	-0.051042
1.870	3.803020	-0.631517	647.619470	-0.335044	-9.385968	-0.188205	1.449303	-0.051735
1.880	3.842716	-0.643228	647.396605	-0.337010	-9.416988	-0.189274	1.454593	-0.052056
1.890	3.854376	-0.652612	647.187849	-0.334058	-9.447339	-0.195010	1.459752	-0.051617
1.900	3.830395	-0.655886	647.048031	-0.323743	-9.473749	-0.204597	1.464149	-0.050034
1.910	3.772965	-0.652467	647.012340	-0.305123	-9.494673	-0.216461	1.467464	-0.047159
1.920	3.693297	-0.645206	647.086362	-0.279549	-9.510670	-0.228676	1.469768	-0.043201
1.930	3.608210	-0.638879	647.245169	-0.250311	-9.523989	-0.239410	1.471465	-0.038673
1.940	3.535718	-0.637836	647.441438	-0.221369	-9.537655	-0.247308	1.473130	-0.034191
1.950	3.490948	-0.643910	647.619996	-0.195843	-9.554470	-0.251717	1.475320	-0.030240
1.960	3.482996	-0.655473	647.734147	-0.174879	-9.576244	-0.252650	1.478422	-0.026999
1.970	3.513167	-0.668042	647.758541	-0.157366	-9.603414	-0.250560	1.482561	-0.024294
1.980	3.575113	-0.676128	647.694701	-0.140653	-9.635129	-0.246081	1.487603	-0.021716
1.990	3.657107	-0.675407	647.568274	-0.121997	-9.669753	-0.239921	1.493241	-0.018839
2.000	3.745765	-0.664205	647.420204	-0.100087	-9.705541	-0.232918	1.499110	-0.015459
2.010	3.829671	-0.643872	647.295553	-0.075860	-9.741179	-0.226118	1.504904	-0.011720
2.020	3.901373	-0.618172	647.232942	-0.052241	-9.775993	-0.220743	1.510429	-0.008072
2.030	3.957189	-0.592112	647.256193	-0.032978	-9.809888	-0.218015	1.515611	-0.005095
2.040	3.995572	-0.570730	647.369200	-0.021158	-9.843162	-0.218913	1.520487	-0.003268
2.050	4.015575	-0.558263	647.555353	-0.018120	-9.876265	-0.223952	1.525162	-0.002798
2.060	4.016740	-0.557778	647.782318	-0.023203	-9.909552	-0.233013	1.529766	-0.003582
2.070	4.000634	-0.570954	648.010908	-0.034292	-9.943111	-0.245214	1.534405	-0.005292
2.080	3.972902	-0.597802	648.204374	-0.048615	-9.976755	-0.258891	1.539137	-0.007500
2.090	3.943988	-0.636374	648.333888	-0.063365	-10.010159	-0.271872	1.543982	-0.009773
2.100	3.927222	-0.682666	648.378685	-0.076109	-10.043049	-0.282114	1.548948	-0.011738
2.110	3.934522	-0.730835	648.323126	-0.085208	-10.075357	-0.288524	1.554064	-0.013143
2.120	3.971406	-0.773861	648.154958	-0.090232	-10.107265	-0.291518	1.559390	-0.013921
2.130	4.033603	-0.804871	647.867863	-0.092034	-10.139109	-0.292952	1.564996	-0.014206
2.140	4.107037	-0.818981	647.468249	-0.092215	-10.171117	-0.295405	1.570906	-0.014242
2.150	4.171631	-0.814969	646.983099	-0.092205	-10.203043	-0.301148	1.577018	-0.014252
2.160	4.207631	-0.795791	646.464005	-0.092466	-10.233879	-0.311261	1.583055	-0.014303
2.170	4.201959	-0.767563	645.983152	-0.092251	-10.261830	-0.325195	1.588560	-0.014281
2.180	4.152206	-0.737578	645.619778	-0.089954	-10.284671	-0.340915	1.592992	-0.013933
2.190	4.067069	-0.712424	645.439866	-0.083850	-10.300440	-0.355502	1.595879	-0.012991
2.200	3.963473	-0.696865	645.476048	-0.072888	-10.308272	-0.365993	1.597003	-0.011292
2.210	3.861645	-0.693341	645.716545	-0.057261	-10.309085	-0.370222	1.596534	-0.008868
2.220	3.779849	-0.701692	646.108811	-0.038599	-10.305828	-0.367471	1.595061	-0.005974
2.230	3.730468	-0.719010	646.576118	-0.019671	-10.303150	-0.358716	1.593494	-0.003042
2.240	3.718583	-0.740050	647.038629	-0.003629	-10.306510	-0.346300	1.592874	-0.000561
2.250	3.743100	-0.758682	647.429878	0.007008	-10.320915	-0.333124	1.594136	0.001082
2.260	3.799220	-0.770241	647.704546	0.011129	-10.349647	-0.321724	1.597896	0.001718
2.270	3.880594	-0.773588	647.839345	0.009139	-10.393386	-0.313656	1.604315	0.001411
2.280	3.980136	-0.771381	647.831361	0.002393	-10.449952	-0.309364	1.613067	0.000369
2.290	4.089712	-0.768166	647.697040	-0.007582	-10.514686	-0.308429	1.623396	-0.001171
2.300	4.199746	-0.767438	647.471645	-0.019549	-10.581309	-0.309951	1.634251	-0.003019
2.310	4.299621	-0.769531	647.206264	-0.032587	-10.643087	-0.312922	1.644466	-0.005035
2.320	4.378992	-0.771526	646.959968	-0.046004	-10.694119	-0.316474	1.652980	-0.007111
2.330	4.429489	-0.769264	646.788029	-0.059401	-10.730528	-0.319982	1.659049	-0.009184
2.340	4.446263	-0.760490	646.729745	-0.072797	-10.751306	-0.323030	1.662411	-0.011256
2.350	4.429250	-0.747448	646.799461	-0.086544	-10.758589	-0.325315	1.663358	-0.013380
