Time[s]	Fx[N]	Fy[N]	Fz[N]	Mx[Nm]	My[Nm]	Mz[Nm]	COPx[cm]	COPy[cm]
0.010	1.544534	-1.592016	571.216731	-5.939673	19.127344	-0.032029	-3.348526	-1.039828
0.020	1.531783	-1.611067	571.336080	-5.912629	19.109702	-0.017697	-3.344739	-1.034878
0.030	1.535827	-1.625098	571.409225	-5.887257	19.079136	-0.006689	-3.338962	-1.030305
0.040	1.569524	-1.632030	571.398837	-5.865215	19.026127	-0.001012	-3.329745	-1.026466
0.050	1.638707	-1.633234	571.286567	-5.847942	18.946944	-0.000668	-3.316539	-1.023644
0.060	1.741454	-1.632680	571.079925	-5.835959	18.844265	-0.003920	-3.299760	-1.021916
0.070	1.869426	-1.634807	570.813424	-5.828323	18.726105	-0.008194	-3.280600	-1.021056
0.080	2.010562	-1.642373	570.541265	-5.822768	18.603538	-0.011104	-3.260682	-1.020569
0.090	2.152112	-1.655370	570.322654	-5.816631	18.487822	-0.011152	-3.241643	-1.019884
0.100	2.283056	-1.671323	570.204989	-5.808061	18.387602	-0.007909	-3.224735	-1.018592
0.110	2.395494	-1.686606	570.211069	-5.796778	18.306917	-0.001780	-3.210551	-1.016602
0.120	2.485243	-1.698075	570.334029	-5.783997	18.244619	0.006421	-3.198936	-1.014142
0.130	2.552107	-1.704239	570.540678	-5.771706	18.195335	0.015806	-3.189139	-1.011620
0.140	2.599924	-1.705474	570.781648	-5.761855	18.151509	0.025541	-3.180114	-1.009468
0.150	2.636129	-1.703362	571.004955	-5.755825	18.105668	0.034843	-3.170843	-1.008017
0.160	2.670623	-1.699758	571.168409	-5.754169	18.052122	0.042966	-3.160560	-1.007438
0.170	2.714109	-1.696114	571.247260	-5.756462	17.987682	0.049256	-3.148844	-1.007701
0.180	2.776216	-1.693107	571.236178	-5.761241	17.911515	0.053260	-3.135571	-1.008557
0.190	2.863625	-1.690413	571.146866	-5.766171	17.824570	0.054844	-3.120838	-1.009578
0.200	2.978382	-1.686653	571.002912	-5.768484	17.729072	0.054271	-3.104901	-1.010237
0.210	3.116657	-1.679777	570.832895	-5.765637	17.628294	0.052213	-3.088171	-1.010039
0.220	3.268368	-1.667999	570.663145	-5.756002	17.526513	0.049705	-3.071254	-1.008651
0.230	3.418138	-1.650824	570.512454	-5.739444	17.428962	0.048009	-3.054966	-1.006016
0.240	3.547856	-1.629429	570.390683	-5.717563	17.341539	0.048373	-3.040291	-1.002394
0.250	3.640501	-1.606134	570.301179	-5.693485	17.270154	0.051693	-3.028252	-0.998330
0.260	3.684219	-1.583444	570.245097	-5.671196	17.219716	0.058206	-3.019704	-0.994519
0.270	3.675271	-1.563412	570.225314	-5.654560	17.193001	0.067313	-3.015124	-0.991636
0.280	3.618880	-1.547685	570.247944	-5.646326	17.189883	0.077636	-3.014458	-0.990153
0.290	3.527905	-1.537968	570.319922	-5.647534	17.207305	0.087337	-3.017132	-0.990240
0.300	3.419968	-1.536267	570.442604	-5.657590	17.239982	0.094680	-3.022212	-0.991789
0.310	3.313843	-1.544447	570.604261	-5.674913	17.281480	0.098648	-3.028628	-0.994544
0.320	3.225815	-1.563305	570.776419	-5.697649	17.325360	0.099364	-3.035402	-0.998228
0.330	3.166687	-1.591792	570.917795	-5.724040	17.366274	0.098035	-3.041817	-1.002603
0.340	3.140113	-1.626963	570.985656	-5.752492	17.400885	0.096414	-3.047517	-1.007467
0.350	3.142680	-1.664656	570.950507	-5.781660	17.428414	0.096032	-3.052526	-1.012638
0.360	3.165678	-1.700529	570.808312	-5.810716	17.450632	0.097594	-3.057179	-1.017980
0.370	3.197915	-1.731078	570.585100	-5.839601	17.471353	0.100784	-3.062006	-1.023441
0.380	3.228596	-1.754393	570.331503	-5.868842	17.495675	0.104480	-3.067633	-1.029023
0.390	3.249376	-1.770510	570.108789	-5.898824	17.529086	0.107207	-3.074691	-1.034684
0.400	3.255109	-1.781243	569.971373	-5.928936	17.576488	0.107604	-3.083749	-1.040216
0.410	3.243402	-1.789525	569.951917	-5.957359	17.641279	0.104722	-3.095222	-1.045239
0.420	3.213579	-1.798578	570.053770	-5.981886	17.724662	0.098105	-3.109297	-1.049355
0.430	3.165756	-1.811245	570.252570	-6.001318	17.825384	0.087777	-3.125875	-1.052397
0.440	3.100612	-1.829472	570.505305	-6.016523	17.939902	0.074275	-3.144564	-1.054596
0.450	3.020034	-1.853769	570.762624	-6.030539	18.062907	0.058757	-3.164697	-1.056576
0.460	2.928259	-1.882852	570.980024	-6.047714	18.188122	0.042999	-3.185422	-1.059181
0.470	2.832510	-1.913967	571.125106	-6.072309	18.309428	0.029115	-3.205852	-1.063219
0.480	2.742003	-1.944092	571.180247	-6.107073	18.422210	0.018967	-3.225288	-1.069202
0.490	2.665073	-1.971293	571.142258	-6.152243	18.524565	0.013479	-3.243424	-1.077182
0.500	2.605557	-1.995204	571.021419	-6.205272	18.617889	0.012171	-3.260454	-1.086697
0.510	2.560392	-2.016316	570.840705	-6.261381	18.706562	0.013198	-3.277020	-1.096870
0.520	2.519892	-2.034839	570.633461	-6.314774	18.796838	0.013951	-3.294030	-1.106625
0.530	2.470904	-2.050240	570.437697	-6.360105	18.895270	0.012006	-3.312416	-1.114952
0.540	2.401705	-2.061917	570.287730	-6.393768	19.006994	0.006038	-3.332878	-1.121148
0.550	2.306808	-2.070431	570.206554	-6.414713	19.134264	-0.003667	-3.355672	-1.124981
0.560	2.189884	-2.078209	570.202367	-6.424623	19.275689	-0.015307	-3.380500	-1.126727
0.570	2.063750	-2.088958	570.270045	-6.427349	19.426487	-0.026169	-3.406542	-1.127071
0.580	1.947253	-2.106078	570.395337	-6.427669	19.579770	-0.033464	-3.432667	-1.126880
0.590	1.859720	-2.131122	570.558486	-6.429828	19.728527	-0.035092	-3.457757	-1.126936
0.600	1.814417	-2.163262	570.735675	-6.436478	19.867670	-0.030163	-3.481063	-1.127751
0.610	1.813211	-2.199848	570.899511	-6.448388	19.995450	-0.019274	-3.502446	-1.129514
0.620	1.844825	-2.237483	571.021517	-6.464792	20.113662	-0.004452	-3.522400	-1.132145
0.630	1.887987	-2.272966	571.078393	-6.483963	20.226609	0.011294	-3.541827	-1.135389
0.640	1.918627	-2.303742	571.060405	-6.503737	20.339311	0.024745	-3.561674	-1.138888
0.650	1.918241	-2.327804	570.977145	-6.521971	20.455748	0.033378	-3.582586	-1.142247
0.660	1.879795	-2.343211	570.855929	-6.536942	20.577757	0.036068	-3.604720	-1.145112
0.670	1.808566	-2.347731	570.731592	-6.547626	20.704855	0.033303	-3.627774	-1.147234
0.680	1.717724	-2.339175	570.631440	-6.553724	20.834874	0.026799	-3.651196	-1.148504
0.690	1.621093	-2.316628	570.562645	-6.555402	20.965086	0.018745	-3.674458	-1.148936
0.700	1.526989	-2.281996	570.508960	-6.552857	21.093333	0.011023	-3.697283	-1.148598
0.710	1.436231	-2.240694	570.439084	-6.545959	21.218773	0.004703	-3.719726	-1.147530
0.720	1.344753	-2.200455	570.323019	-6.534216	21.342061	-0.000121	-3.742101	-1.145704
0.730	1.248489	-2.168315	570.148968	-6.517055	21.465136	-0.004216	-3.764829	-1.143044
0.740	1.147148	-2.147214	569.933407	-6.494197	21.590861	-0.008877	-3.788313	-1.139466
0.750	1.044537	-2.134221	569.720100	-6.465816	21.722602	-0.015452	-3.812855	-1.134911
0.760	0.945477	-2.121603	569.567982	-6.432431	21.863587	-0.024883	-3.838626	-1.129353
0.770	0.851524	-2.100435	569.531609	-6.394743	22.015931	-0.037415	-3.865621	-1.122807
0.780	0.758443	-2.064949	569.640615	-6.353615	22.179446	-0.052543	-3.893586	-1.115373
0.790	0.657344	-2.015400	569.886024	-6.310126	22.350716	-0.069105	-3.921962	-1.107261
0.800	0.539280	-1.958028	570.219870	-6.265458	22.523017	-0.085410	-3.949883	-1.098779
0.810	0.401142	-1.902224	570.569438	-6.220563	22.687372	-0.099415	-3.976268	-1.090238
0.820	0.249819	-1.856289	570.860278	-6.175867	22.834473	-0.109063	-4.000011	-1.081853
0.830	0.102333	-1.823801	571.037823	-6.131360	22.956708	-0.112786	-4.020173	-1.073722
0.840	-0.018392	-1.802226	571.079437	-6.087134	23.049522	-0.110013	-4.036132	-1.065900
0.850	-0.090446	-1.784337	570.994803	-6.043930	23.111860	-0.101392	-4.047648	-1.058491
0.860	-0.099785	-1.761683	570.817658	-6.003116	23.146017	-0.088617	-4.054888	-1.051670
0.870	-0.044610	-1.728425	570.593491	-5.965930	23.157334	-0.073924	-4.058464	-1.045566
0.880	0.063769	-1.683767	570.367325	-5.932427	23.153838	-0.059527	-4.059461	-1.040106
0.890	0.203261	-1.631898	570.174735	-5.900862	23.145561	-0.047199	-4.059380	-1.034922
0.900	0.345397	-1.579644	570.037971	-5.868025	23.143235	-0.038073	-4.059946	-1.029410
0.910	0.460745	-1.533273	569.966960	-5.830538	23.156410	-0.032616	-4.062764	-1.022961
0.920	0.524578	-1.496259	569.963020	-5.786572	23.191417	-0.030714	-4.068934	-1.015254
0.930	0.522084	-1.468870	570.022475	-5.737060	23.249765	-0.031800	-4.078745	-1.006462
0.940	0.452108	-1.449061	570.138037	-5.685578	23.327521	-0.035022	-4.091557	-0.997228
0.950	0.328225	-1.433599	570.297510	-5.636905	23.415992	-0.039412	-4.105926	-0.988415
0.960	0.176312	-1.418799	570.481351	-5.595141	23.503602	-0.044075	-4.119960	-0.980775
0.970	0.028650	-1.401049	570.662004	-5.562488	23.578493	-0.048330	-4.131779	-0.974743
0.980	-0.084161	-1.377462	570.807385	-5.539133	23.631178	-0.051756	-4.139957	-0.970403
0.990	-0.141149	-1.346773	570.888421	-5.523941	23.656607	-0.054134	-4.143823	-0.967604
1.000	-0.136226	-1.310164	570.887883	-5.515365	23.655109	-0.055316	-4.143565	-0.966103
1.010	-0.078984	-1.271501	570.806719	-5.512088	23.631907	-0.055121	-4.140089	-0.965666
1.020	0.009212	-1.236616	570.665063	-5.513162	23.595296	-0.053327	-4.134701	-0.966094
1.030	0.102415	-1.211710	570.497399	-5.517758	23.554056	-0.049786	-4.128688	-0.967184
1.040	0.178062	-1.201499	570.343673	-5.524858	23.515058	-0.044627	-4.122963	-0.968689
1.050	0.223077	-1.207884	570.239304	-5.533254	23.481867	-0.038430	-4.117897	-0.970339
1.060	0.236415	-1.229553	570.206831	-5.541881	23.454622	-0.032242	-4.113353	-0.971907
1.070	0.227770	-1.262450	570.251140	-5.550233	23.430925	-0.027367	-4.108878	-0.973296
1.080	0.213364	-1.300866	570.359172	-5.558570	23.407225	-0.024985	-4.103945	-0.974574
1.090	0.210288	-1.338926	570.504008	-5.567818	23.380177	-0.025729	-4.098162	-0.975947
1.100	0.231024	-1.372143	570.652211	-5.579246	23.347511	-0.029363	-4.091373	-0.977696
1.110	0.279779	-1.398521	570.772716	-5.594050	23.308141	-0.034717	-4.083612	-0.980084
1.120	0.351900	-1.418753	570.845136	-5.612926	23.261550	-0.039992	-4.074932	-0.983266
1.130	0.436709	-1.435455	570.865002	-5.635805	23.206977	-0.043386	-4.065230	-0.987240
1.140	0.522727	-1.451844	570.843354	-5.661943	23.143013	-0.043760	-4.054179	-0.991856
1.150	0.603033	-1.470496	570.799793	-5.690400	23.067932	-0.041022	-4.041335	-0.996917
1.160	0.678168	-1.492646	570.751753	-5.720726	22.980532	-0.036046	-4.026362	-1.002314
1.170	0.755087	-1.518169	570.705719	-5.753525	22.880902	-0.030213	-4.009229	-1.008142
1.180	0.842918	-1.546174	570.655672	-5.790617	22.770704	-0.024834	-3.990270	-1.014731
1.190	0.948142	-1.576026	570.589606	-5.834664	22.652842	-0.020720	-3.970076	-1.022568
1.200	1.071864	-1.608281	570.499723	-5.888305	22.530795	-0.017987	-3.949309	-1.032131
1.210	1.210013	-1.644719	570.389998	-5.952960	22.408056	-0.016111	-3.928550	-1.043665
1.220	1.355300	-1.687055	570.277585	-6.027669	22.287942	-0.014173	-3.908262	-1.056971
1.230	1.499187	-1.734974	570.188609	-6.108522	22.173675	-0.011207	-3.888832	-1.071316
1.240	1.633211	-1.784955	570.151045	-6.189198	22.068371	-0.006543	-3.870618	-1.085537
1.250	1.750055	-1.830993	570.186703	-6.262600	21.974704	-0.000092	-3.853949	-1.098342
1.260	1.844878	-1.866991	570.303301	-6.323000	21.894325	0.007486	-3.839067	-1.108708
1.270	1.916577	-1.889495	570.487991	-6.367771	21.827248	0.014761	-3.826066	-1.116197
1.280	1.968205	-1.899249	570.705517	-6.397999	21.771535	0.019771	-3.814846	-1.121068
1.290	2.006060	-1.900798	570.904306	-6.417822	21.723543	0.020559	-3.805111	-1.124150
1.300	2.037687	-1.900479	571.030881	-6.432925	21.678823	0.015926	-3.796436	-1.126546
1.310	2.069586	-1.903892	571.048344	-6.448875	21.633444	0.006122	-3.788374	-1.129305
1.320	2.105326	-1.913998	570.951543	-6.469822	21.585251	-0.006875	-3.780575	-1.133165
1.330	2.144467	-1.930660	570.771711	-6.497751	21.534593	-0.019777	-3.772891	-1.138415
1.340	2.182400	-1.951738	570.567325	-6.532297	21.484273	-0.029047	-3.765423	-1.144877
1.350	2.211292	-1.975000	570.404112	-6.571086	21.438750	-0.032209	-3.758520	-1.152005
1.360	2.222288	-1.999492	570.332277	-6.610536	21.402842	-0.028813	-3.752697	-1.159068
1.370	2.208677	-2.025341	570.370028	-6.646920	21.380211	-0.020644	-3.748481	-1.165370
1.380	2.169009	-2.052082	570.499042	-6.677346	21.372027	-0.011070	-3.746199	-1.170439
1.390	2.108812	-2.076839	570.672233	-6.700249	21.376298	-0.003880	-3.745810	-1.174098
1.400	2.039837	-2.093969	570.830199	-6.715257	21.388336	-0.002078	-3.746882	-1.176402
1.410	1.976704	-2.096914	570.921005	-6.722666	21.402415	-0.007081	-3.748752	-1.177512
1.420	1.932008	-2.081566	570.917593	-6.722996	21.413992	-0.018508	-3.750803	-1.177577
1.430	1.911757	-2.049308	570.827121	-6.716947	21.421448	-0.034473	-3.752703	-1.176704
1.440	1.913069	-2.007837	570.688150	-6.705732	21.426545	-0.052217	-3.754510	-1.175026
1.450	1.925153	-1.968778	570.555895	-6.691484	21.433512	-0.068855	-3.756602	-1.172801
1.460	1.933259	-1.942933	570.480914	-6.677329	21.447271	-0.082104	-3.759507	-1.170474
1.470	1.924028	-1.935534	570.489506	-6.666861	21.471563	-0.090794	-3.763709	-1.168621
1.480	1.890065	-1.944041	570.573170	-6.663111	21.507637	-0.095012	-3.769479	-1.167793
1.490	1.831886	-1.959605	570.690909	-6.667464	21.553813	-0.095853	-3.776793	-1.168314
1.500	1.756473	-1.971207	570.783684	-6.679124	21.605944	-0.094898	-3.785312	-1.170167
1.510	1.673292	-1.970215	570.796014	-6.695489	21.658560	-0.093667	-3.794448	-1.173009
1.520	1.590003	-1.953263	570.696758	-6.713302	21.706416	-0.093218	-3.803494	-1.176334
1.530	1.510251	-1.922633	570.491238	-6.729962	21.746027	-0.093993	-3.811807	-1.179678
1.540	1.434514	-1.884614	570.220512	-6.744280	21.776662	-0.095876	-3.818990	-1.182750
1.550	1.362865	-1.846930	569.949139	-6.756294	21.800332	-0.098364	-3.824961	-1.185421
1.560	1.297298	-1.816260	569.746584	-6.766406	21.820761	-0.100776	-3.829906	-1.187617
1.570	1.241947	-1.796433	569.668162	-6.774562	21.841798	-0.102445	-3.834126	-1.189212
1.580	1.201347	-1.787596	569.740367	-6.780118	21.865995	-0.102860	-3.837888	-1.190036
1.590	1.178171	-1.786531	569.953948	-6.782470	21.893802	-0.101718	-3.841328	-1.190003
1.600	1.171877	-1.788181	570.266433	-6.781932	21.923484	-0.098896	-3.844428	-1.189257
1.610	1.178844	-1.788011	570.613732	-6.780114	21.951582	-0.094372	-3.847013	-1.188214
1.620	1.193707	-1.784159	570.927948	-6.779347	21.973717	-0.088173	-3.848772	-1.187426
1.630	1.211138	-1.778115	571.155700	-6.781409	21.985486	-0.080423	-3.849298	-1.187313
1.640	1.227331	-1.773412	571.270150	-6.786376	21.983219	-0.071453	-3.848130	-1.187945
1.650	1.240746	-1.773143	571.272482	-6.792396	21.964452	-0.061858	-3.844829	-1.188994
1.660	1.252101	-1.777861	571.184026	-6.796560	21.928131	-0.052406	-3.839066	-1.189907
1.670	1.263994	-1.784948	571.034453	-6.796389	21.874708	-0.043837	-3.830716	-1.190189
1.680	1.280502	-1.789575	570.851999	-6.791125	21.806215	-0.036680	-3.819942	-1.189647
1.690	1.306643	-1.786645	570.659220	-6.782210	21.726261	-0.031163	-3.807222	-1.188487
1.700	1.347278	-1.772957	570.474141	-6.772773	21.639773	-0.027247	-3.793296	-1.187218
1.710	1.405368	-1.748783	570.313879	-6.766412	21.552293	-0.024708	-3.779023	-1.186436
1.720	1.480339	-1.718164	570.196975	-6.765920	21.468747	-0.023223	-3.765146	-1.186593
1.730	1.567642	-1.687691	570.141871	-6.772576	21.391973	-0.022431	-3.752044	-1.187876
1.740	1.660046	-1.664235	570.161428	-6.786258	21.321629	-0.021988	-3.739578	-1.190234
1.750	1.750190	-1.652540	570.256063	-6.806174	21.254268	-0.021560	-3.727145	-1.193529
1.760	1.833273	-1.653681	570.409386	-6.831751	21.184793	-0.020760	-3.713963	-1.197693
1.770	1.908599	-1.665149	570.589365	-6.863175	21.108712	-0.019048	-3.699458	-1.202822
1.780	1.979209	-1.682602	570.755884	-6.901297	21.024062	-0.015695	-3.683547	-1.209150
1.790	2.049723	-1.702346	570.872823	-6.946911	20.932109	-0.009873	-3.666685	-1.216893
1.800	2.123533	-1.723199	570.920107	-6.999789	20.836558	-0.000871	-3.649645	-1.226054
1.810	2.200920	-1.746798	570.900062	-7.057973	20.741819	0.011610	-3.633179	-1.236289
1.820	2.279132	-1.776248	570.834481	-7.117736	20.651307	0.027178	-3.617740	-1.246900
1.830	2.354150	-1.813702	570.753892	-7.174258	20.566671	0.044586	-3.603422	-1.256979
1.840	2.422767	-1.857937	570.685088	-7.222788	20.488182	0.061811	-3.590103	-1.265635
1.850	2.483574	-1.903341	570.643119	-7.259963	20.415913	0.076428	-3.577703	-1.272242
1.860	2.536434	-1.941216	570.630204	-7.284872	20.350882	0.086222	-3.566387	-1.276636
1.870	2.581102	-1.963013	570.640107	-7.299475	20.295348	0.089814	-3.556593	-1.279173
1.880	2.616057	-1.963883	570.664819	-7.308108	20.251965	0.087062	-3.548837	-1.280631
1.890	2.638464	-1.944829	570.700120	-7.316149	20.222284	0.079061	-3.543417	-1.281960
1.900	2.645492	-1.912633	570.747220	-7.328270	20.205592	0.067752	-3.540200	-1.283978
1.910	2.636375	-1.877720	570.809530	-7.346968	20.198827	0.055354	-3.538628	-1.287114
1.920	2.614035	-1.850950	570.886102	-7.371998	20.197543	0.043889	-3.537929	-1.291326
1.930	2.585126	-1.840586	570.965284	-7.400915	20.197302	0.034945	-3.537396	-1.296211
1.940	2.558169	-1.850450	571.022907	-7.430418	20.194773	0.029565	-3.536596	-1.301247
1.950	2.540496	-1.879521	571.028132	-7.457803	20.188185	0.028141	-3.535410	-1.306031
1.960	2.535633	-1.922631	570.956381	-7.481943	20.177125	0.030307	-3.533917	-1.310423
1.970	2.542598	-1.971724	570.803987	-7.503567	20.161989	0.035009	-3.532209	-1.314561
1.980	2.557425	-2.017441	570.596475	-7.524876	20.143496	0.040827	-3.530252	-1.318774
1.990	2.575724	-2.051028	570.384525	-7.548651	20.122633	0.046420	-3.527907	-1.323432
2.000	2.594456	-2.066466	570.227703	-7.577139	20.101009	0.050807	-3.525085	-1.328792
2.010	2.611910	-2.062348	570.172527	-7.611231	20.081188	0.053370	-3.521949	-1.334900
2.020	2.626527	-2.042777	570.234565	-7.650411	20.066408	0.053700	-3.518974	-1.341625
2.030	2.636180	-2.016803	570.392475	-7.693537	20.059518	0.051571	-3.516792	-1.348815
2.040	2.638970	-1.996431	570.596261	-7.739869	20.061592	0.047131	-3.515900	-1.356453
2.050	2.635042	-1.993665	570.785462	-7.789662	20.071107	0.041142	-3.516401	-1.364727
2.060	2.627796	-2.017279	570.909036	-7.844022	20.084352	0.034957	-3.517960	-1.373953
2.070	2.622935	-2.070164	570.939631	-7.904266	20.097072	0.030129	-3.520000	-1.384431
2.080	2.625219	-2.148250	570.879074	-7.971192	20.106580	0.027800	-3.522038	-1.396301
2.090	2.634595	-2.241563	570.755648	-8.044496	20.113259	0.028195	-3.523970	-1.409447
2.100	2.644236	-2.337088	570.614774	-8.122422	20.120693	0.030484	-3.526143	-1.423451
2.110	2.642110	-2.422297	570.504975	-8.201648	20.134366	0.033068	-3.529218	-1.437612
2.120	2.615838	-2.488092	570.462649	-8.277525	20.159489	0.034144	-3.533884	-1.451020
2.130	2.558778	-2.530332	570.501122	-8.344732	20.198902	0.032293	-3.540554	-1.462702
2.140	2.474482	-2.549779	570.608641	-8.398247	20.251982	0.026906	-3.549190	-1.471805
2.150	2.377120	-2.550672	570.755787	-8.434400	20.314989	0.018307	-3.559314	-1.477760
2.160	2.287172	-2.538474	570.907860	-8.451744	20.382626	0.007554	-3.570213	-1.480404
2.170	2.223875	-2.517674	571.035902	-8.451552	20.450015	-0.004000	-3.581214	-1.480039
2.180	2.197512	-2.490761	571.122311	-8.437743	20.514265	-0.015188	-3.591921	-1.477397
2.190	2.204841	-2.458854	571.160942	-8.416076	20.575133	-0.025385	-3.602336	-1.473503
2.200	2.229572	-2.423378	571.154176	-8.392643	20.634781	-0.034577	-3.612822	-1.469418
2.210	2.247603	-2.387352	571.109665	-8.372107	20.696901	-0.043132	-3.623980	-1.465937
2.220	2.234956	-2.355223	571.038401	-8.356433	20.765600	-0.051427	-3.636463	-1.463375
2.230	2.175620	-2.331282	570.954002	-8.344781	20.844357	-0.059534	-3.650794	-1.461551
2.240	2.066744	-2.317739	570.871959	-8.334670	20.935229	-0.067205	-3.667237	-1.459989
2.250	1.919496	-2.313643	570.807586	-8.323835	21.038369	-0.074127	-3.685720	-1.458256
2.260	1.755276	-2.315186	570.772277	-8.311799	21.151852	-0.080253	-3.705830	-1.456237
2.270	1.598660	-2.317023	570.768636	-8.300278	21.271918	-0.085927	-3.726890	-1.454228
2.280	1.469723	-2.313930	570.786219	-8.292247	21.393718	-0.091721	-3.748114	-1.452776
2.290	1.378428	-2.302204	570.801056	-8.290193	21.512458	-0.098104	-3.768819	-1.452379
2.300	1.322653	-2.280498	570.781988	-8.294510	21.624530	-0.105174	-3.788580	-1.453183
2.310	1.290016	-2.249947	570.703590	-8.302764	21.728182	-0.112563	-3.807262	-1.454830
2.320	1.262599	-2.213531	570.560230	-8.310107	21.823491	-0.119568	-3.824923	-1.456482
