Time[s]	Fx[N]	Fy[N]	Fz[N]	Mx[Nm]	My[Nm]	Mz[Nm]	COPx[cm]	COPy[cm]
0.010	4.829796	-6.112937	533.923120	-2.953840	-0.221821	0.176787	0.041546	-0.553233
0.020	4.770659	-6.102891	534.752493	-2.948311	-0.083868	0.191487	0.015684	-0.551341
0.030	4.718138	-6.090073	535.645792	-2.937253	0.053625	0.202749	-0.010011	-0.548357
0.040	4.677265	-6.069950	536.655395	-2.915513	0.189844	0.208095	-0.035375	-0.543275
0.050	4.650385	-6.034551	537.805873	-2.878588	0.323985	0.206607	-0.060242	-0.535247
0.060	4.635755	-5.972969	539.081777	-2.823009	0.455733	0.199030	-0.084539	-0.523670
0.070	4.626617	-5.873534	540.422690	-2.746520	0.585898	0.187427	-0.108415	-0.508217
0.080	4.611612	-5.727091	541.730678	-2.648040	0.716792	0.174572	-0.132315	-0.488811
0.090	4.577050	-5.530247	542.890264	-2.527495	0.851843	0.163229	-0.156909	-0.465563
0.100	4.510749	-5.287230	543.794863	-2.385632	0.994398	0.155472	-0.182863	-0.438701
0.110	4.406086	-5.009655	544.370000	-2.223925	1.146148	0.152132	-0.210546	-0.408532
0.120	4.264435	-4.714391	544.585101	-2.044577	1.305961	0.152580	-0.239809	-0.375438
0.130	4.094823	-4.420304	544.451427	-1.850559	1.469751	0.154994	-0.269951	-0.339894
0.140	3.910971	-4.144755	544.010263	-1.645651	1.631465	0.157068	-0.299896	-0.302504
0.150	3.727236	-3.900691	543.319469	-1.434443	1.784733	0.156884	-0.328487	-0.264015
0.160	3.555341	-3.695072	542.445627	-1.222266	1.924404	0.153556	-0.354764	-0.225325
0.170	3.403156	-3.528935	541.463263	-1.015061	2.047402	0.147407	-0.378124	-0.187466
0.180	3.275437	-3.398719	540.455982	-0.819196	2.152758	0.139704	-0.398323	-0.151575
0.190	3.175204	-3.298023	539.512466	-0.641148	2.241108	0.132141	-0.415395	-0.118838
0.200	3.104280	-3.219095	538.715004	-0.486871	2.314117	0.126281	-0.429562	-0.090376
0.210	3.062601	-3.153898	538.125254	-0.360826	2.374100	0.123089	-0.441180	-0.067052
0.220	3.047259	-3.095001	537.774778	-0.264960	2.423829	0.122653	-0.450715	-0.049270
0.230	3.052519	-3.036441	537.664594	-0.198151	2.466310	0.124174	-0.458708	-0.036854
0.240	3.071237	-2.974394	537.772131	-0.156482	2.504444	0.126287	-0.465707	-0.029098
0.250	3.096993	-2.907312	538.060904	-0.134364	2.540624	0.127609	-0.472181	-0.024972
0.260	3.125700	-2.835420	538.489046	-0.126214	2.576418	0.127283	-0.478453	-0.023439
0.270	3.155747	-2.759793	539.014852	-0.128132	2.612479	0.125244	-0.484677	-0.023772
0.280	3.186644	-2.681440	539.598850	-0.139059	2.648744	0.122100	-0.490873	-0.025771
0.290	3.217184	-2.600974	540.202504	-0.161021	2.684833	0.118740	-0.497005	-0.029808
0.300	3.244396	-2.519309	540.784443	-0.198311	2.720460	0.115875	-0.503058	-0.036671
0.310	3.263938	-2.439274	541.296550	-0.255743	2.755747	0.113740	-0.509101	-0.047246
0.320	3.271467	-2.367112	541.683643	-0.336522	2.791499	0.112020	-0.515338	-0.062125
0.330	3.263919	-2.312412	541.890159	-0.440481	2.829371	0.110007	-0.522130	-0.081286
0.340	3.240010	-2.285603	541.873853	-0.563496	2.871707	0.106909	-0.529959	-0.103990
0.350	3.200088	-2.293642	541.621565	-0.698452	2.920887	0.102246	-0.539286	-0.128956
0.360	3.145878	-2.336119	541.159389	-0.837491	2.978393	0.096168	-0.550373	-0.154759
0.370	3.080296	-2.404135	540.551641	-0.974549	3.044092	0.089500	-0.563145	-0.180288
0.380	3.007172	-2.482753	539.888284	-1.106989	3.116067	0.083440	-0.577169	-0.205040
0.390	2.930833	-2.555634	539.265350	-1.235664	3.190953	0.079008	-0.591722	-0.229138
0.400	2.855686	-2.609629	538.765367	-1.363564	3.264563	0.076560	-0.605934	-0.253091
0.410	2.785708	-2.637757	538.444465	-1.493976	3.332616	0.075629	-0.618934	-0.277462
0.420	2.723584	-2.640199	538.329433	-1.629158	3.391473	0.075180	-0.630000	-0.302632
0.430	2.669534	-2.623569	538.422635	-1.770084	3.438761	0.074128	-0.638673	-0.328754
0.440	2.620482	-2.598942	538.709073	-1.917076	3.473738	0.071856	-0.644826	-0.355865
0.450	2.570501	-2.579098	539.160984	-2.070639	3.497241	0.068539	-0.648645	-0.384048
0.460	2.513056	-2.575625	539.739772	-2.231889	3.511101	0.065164	-0.650517	-0.413512
0.470	2.444660	-2.596483	540.398297	-2.402420	3.517037	0.063276	-0.650823	-0.444565
0.480	2.368450	-2.644555	541.085947	-2.583906	3.515377	0.064488	-0.649689	-0.477541
0.490	2.295735	-2.717344	541.755699	-2.777659	3.504074	0.069910	-0.646800	-0.512714
0.500	2.244211	-2.807897	542.369227	-2.984152	3.478525	0.079688	-0.641357	-0.550207
0.510	2.233110	-2.907011	542.895942	-3.202486	3.432523	0.092900	-0.632262	-0.589889
0.520	2.277092	-3.006472	543.306240	-3.429995	3.360321	0.107862	-0.618495	-0.631319
0.530	2.381373	-3.102156	543.565214	-3.662330	3.259173	0.122741	-0.599592	-0.673761
0.540	2.540074	-3.195267	543.634367	-3.894201	3.131190	0.136156	-0.575974	-0.716327
0.550	2.738343	-3.290715	543.483258	-4.120583	2.983417	0.147504	-0.548944	-0.758180
0.560	2.957232	-3.393429	543.105113	-4.337885	2.825928	0.156921	-0.520328	-0.798719
0.570	3.179286	-3.504701	542.526512	-4.544657	2.668854	0.164977	-0.491931	-0.837684
0.580	3.392660	-3.620382	541.803798	-4.741586	2.519747	0.172327	-0.465066	-0.875148
0.590	3.592312	-3.731396	541.006435	-4.930843	2.382329	0.179450	-0.440351	-0.911420
0.600	3.778121	-3.825924	540.195743	-5.115000	2.256867	0.186500	-0.417787	-0.946879
0.610	3.951117	-3.892404	539.410738	-5.295895	2.141743	0.193213	-0.397052	-0.981793
0.620	4.109841	-3.922751	538.668055	-5.473958	2.035488	0.198852	-0.377874	-1.016202
0.630	4.248807	-3.915303	537.973498	-5.648311	1.938469	0.202242	-0.360328	-1.049924
0.640	4.359851	-3.876684	537.335857	-5.817645	1.853565	0.202031	-0.344955	-1.082683
0.650	4.435337	-3.821694	536.773889	-5.981401	1.785589	0.197207	-0.332652	-1.114324
0.660	4.471082	-3.770740	536.313280	-6.140638	1.739815	0.187721	-0.324403	-1.144972
0.670	4.467259	-3.745226	535.977297	-6.298124	1.720329	0.174894	-0.320970	-1.175073
0.680	4.427178	-3.762199	535.778216	-6.457638	1.728948	0.161238	-0.322698	-1.205282
0.690	4.355309	-3.830073	535.714867	-6.622920	1.765130	0.149621	-0.329491	-1.236277
0.700	4.256023	-3.946964	535.777142	-6.796812	1.826740	0.142104	-0.340952	-1.268589
0.710	4.133486	-4.102126	535.954633	-6.980954	1.911074	0.139037	-0.356574	-1.302527
0.720	3.992045	-4.279723	536.245377	-7.176050	2.015475	0.138898	-0.375849	-1.338203
0.730	3.836342	-4.463438	536.660480	-7.382429	2.137283	0.138968	-0.398256	-1.375624
0.740	3.670965	-4.640317	537.221065	-7.600581	2.273350	0.136507	-0.423168	-1.414796
0.750	3.499983	-4.802743	537.946832	-7.831378	2.419535	0.129858	-0.449772	-1.455790
0.760	3.326640	-4.948273	538.840177	-8.075833	2.570532	0.118936	-0.477049	-1.498744
0.770	3.153265	-5.077998	539.873231	-8.334496	2.720148	0.104885	-0.503849	-1.543788
0.780	2.981317	-5.194655	540.984906	-8.606846	2.861967	0.089128	-0.529029	-1.590959
0.790	2.811640	-5.301357	542.091014	-8.891093	2.990189	0.072371	-0.551603	-1.640148
0.800	2.644932	-5.400972	543.104490	-9.184507	3.100419	0.054066	-0.570870	-1.691112
0.810	2.482133	-5.495831	543.957351	-9.484044	3.190180	0.032639	-0.586476	-1.743527
0.820	2.324418	-5.587736	544.614592	-9.786993	3.258917	0.006387	-0.598390	-1.797049
0.830	2.172937	-5.678518	545.074306	-10.091493	3.307275	-0.025386	-0.606757	-1.851398
0.840	2.029040	-5.771065	545.355863	-10.396795	3.335731	-0.061555	-0.611661	-1.906424
0.850	1.895577	-5.870179	545.483912	-10.703051	3.343104	-0.099070	-0.612869	-1.962120
0.860	1.778973	-5.982358	545.476357	-11.010566	3.325787	-0.133631	-0.609703	-2.018523
0.870	1.690612	-6.114025	545.340261	-11.318787	3.278282	-0.160867	-0.601144	-2.075546
0.880	1.645789	-6.268712	545.074818	-11.625566	3.195034	-0.177530	-0.586164	-2.132839
0.890	1.659772	-6.444468	544.677773	-11.927081	3.072805	-0.182218	-0.564151	-2.189750
0.900	1.742432	-6.632989	544.151086	-12.218453	2.912503	-0.175452	-0.535238	-2.245415
0.910	1.893823	-6.821335	543.503037	-12.494772	2.719669	-0.159201	-0.500396	-2.298933
0.920	2.102559	-6.995918	542.746814	-12.752134	2.503528	-0.136163	-0.461270	-2.349555
0.930	2.347367	-7.147141	541.897979	-12.988255	2.275157	-0.109107	-0.419850	-2.396808
0.940	2.601076	-7.272418	540.973592	-13.202532	2.045549	-0.080428	-0.378124	-2.440513
0.950	2.835755	-7.376098	539.994400	-13.395765	1.824185	-0.051927	-0.337816	-2.480723
0.960	3.027797	-7.466636	538.989393	-13.569851	1.618263	-0.024753	-0.300240	-2.517647
0.970	3.161894	-7.552876	538.000185	-13.727656	1.432379	0.000572	-0.266241	-2.551608
0.980	3.233174	-7.641354	537.082611	-13.873077	1.268356	0.024035	-0.236157	-2.583043
0.990	3.247205	-7.735418	536.304394	-14.011181	1.125100	0.045900	-0.209787	-2.612543
1.000	3.218187	-7.835666	535.739111	-14.148243	0.998658	0.066400	-0.186408	-2.640883
1.010	3.166145	-7.940785	535.457034	-14.291323	0.882765	0.085506	-0.164862	-2.668995
1.020	3.113936	-8.048056	535.513508	-14.447054	0.769979	0.102948	-0.143783	-2.697794
1.030	3.084375	-8.153335	535.935987	-14.619751	0.653214	0.118509	-0.121883	-2.727891
1.040	3.097251	-8.250833	536.711914	-14.809494	0.527219	0.132393	-0.098231	-2.759300
1.050	3.166201	-8.333308	537.781152	-15.011094	0.389611	0.145367	-0.072448	-2.791302
1.060	3.296093	-8.393218	539.037180	-15.214602	0.241225	0.158526	-0.044751	-2.822551
1.070	3.481935	-8.424786	540.339027	-15.407351	0.085792	0.172781	-0.015877	-2.851423
1.080	3.709736	-8.426146	541.531857	-15.576877	-0.070924	0.188381	0.013097	-2.876447
1.090	3.959023	-8.400331	542.471149	-15.713754	-0.222283	0.204707	0.040976	-2.896698
1.100	4.206167	-8.354310	543.045138	-15.813497	-0.361874	0.220456	0.066638	-2.912004
1.110	4.427630	-8.296358	543.191602	-15.877086	-0.484319	0.234103	0.089162	-2.922925
1.120	4.602754	-8.233079	542.906736	-15.910051	-0.585657	0.244553	0.107874	-2.930531
1.130	4.716377	-8.167817	542.244753	-15.920543	-0.663394	0.251760	0.122342	-2.936044
1.140	4.761521	-8.101428	541.307207	-15.917033	-0.716401	0.257032	0.132346	-2.940481
1.150	4.741488	-8.034811	540.222335	-15.906416	-0.744831	0.262788	0.137875	-2.944420
1.160	4.669929	-7.971333	539.118742	-15.893045	-0.750105	0.271763	0.139135	-2.947967
1.170	4.567798	-7.917238	538.101813	-15.878859	-0.734816	0.285952	0.136557	-2.950902
1.180	4.457611	-7.879547	537.241105	-15.864300	-0.702352	0.305736	0.130733	-2.952920
1.190	4.356793	-7.862659	536.571258	-15.849484	-0.656190	0.329563	0.122293	-2.953845
1.200	4.272565	-7.865648	536.102177	-15.835056	-0.598977	0.354364	0.111728	-2.953738
1.210	4.200282	-7.881599	535.831162	-15.822372	-0.531705	0.376507	0.099230	-2.952865
1.220	4.125765	-7.899098	535.751200	-15.812976	-0.453303	0.392892	0.084611	-2.951552
1.230	4.030333	-7.905083	535.853193	-15.807685	-0.360945	0.401723	0.067359	-2.950003
1.240	3.896281	-7.887949	536.123250	-15.805760	-0.251020	0.402715	0.046821	-2.948158
1.250	3.710874	-7.839920	536.538271	-15.804526	-0.120462	0.396719	0.022452	-2.945647
1.260	3.468365	-7.758220	537.064201	-15.799653	0.032008	0.385036	-0.005960	-2.941856
1.270	3.170807	-7.645098	537.660810	-15.786127	0.205029	0.368806	-0.038133	-2.936075
1.280	2.828569	-7.507130	538.293196	-15.759711	0.394248	0.348812	-0.073240	-2.927719
1.290	2.460547	-7.354123	538.944673	-15.718416	0.592517	0.325762	-0.109940	-2.916518
1.300	2.092928	-7.197693	539.622709	-15.663260	0.790613	0.300799	-0.146512	-2.902632
1.310	1.755379	-7.049412	540.352506	-15.597904	0.978424	0.275800	-0.181071	-2.886616
1.320	1.474721	-6.918637	541.159603	-15.527430	1.146375	0.253134	-0.211837	-2.869289
1.330	1.267710	-6.810407	542.048977	-15.457006	1.286709	0.234927	-0.237379	-2.851588
1.340	1.135476	-6.724082	542.990520	-15.390999	1.394228	0.222200	-0.256768	-2.834488
1.350	1.062083	-6.653564	543.918673	-15.332641	1.466364	0.214415	-0.269592	-2.818922
1.360	1.018572	-6.589661	544.748024	-15.283976	1.502645	0.209722	-0.275842	-2.805696
1.370	0.971976	-6.524153	545.398968	-15.245906	1.503820	0.205814	-0.275728	-2.795368
1.380	0.896759	-6.453725	545.822241	-15.218297	1.470970	0.200952	-0.269496	-2.788142
1.390	0.784705	-6.381684	546.011385	-15.200178	1.404870	0.194650	-0.257297	-2.783857
1.400	0.649303	-6.316633	545.997949	-15.190049	1.305784	0.187699	-0.239156	-2.782071
1.410	0.522348	-6.269071	545.832450	-15.186274	1.173757	0.181561	-0.215040	-2.782223
1.420	0.443511	-6.247738	545.560565	-15.187461	1.009273	0.177496	-0.184997	-2.783827
1.430	0.446686	-6.257159	545.205479	-15.192667	0.813988	0.175875	-0.149299	-2.786595
1.440	0.548389	-6.296794	544.763394	-15.201228	0.591129	0.176021	-0.108511	-2.790428
1.450	0.742526	-6.361309	544.212260	-15.212231	0.345326	0.176577	-0.063454	-2.795275
1.460	1.002821	-6.441328	543.528265	-15.223877	0.082006	0.176109	-0.015088	-2.800936
1.470	1.291110	-6.524575	542.702887	-15.233192	-0.193273	0.173574	0.035613	-2.806912
1.480	1.567996	-6.597576	541.754859	-15.236411	-0.475239	0.168460	0.087722	-2.812418
1.490	1.802483	-6.647682	540.734026	-15.230016	-0.759068	0.160730	0.140377	-2.816545
1.500	1.978207	-6.664778	539.716518	-15.211993	-1.040530	0.150766	0.192792	-2.818515
1.510	2.095066	-6.642325	538.792721	-15.182746	-1.316343	0.139414	0.244313	-2.817920
1.520	2.166319	-6.578118	538.050971	-15.145292	-1.584714	0.127981	0.294529	-2.814843
1.530	2.212561	-6.475252	537.560883	-15.104728	-1.845800	0.118073	0.343366	-2.809864
1.540	2.255007	-6.343131	537.360579	-15.067140	-2.101754	0.111297	0.391126	-2.803916
1.550	2.310451	-6.197621	537.450720	-15.038235	-2.356184	0.108972	0.438400	-2.798068
1.560	2.389099	-6.059455	537.795748	-15.022119	-2.613112	0.111987	0.485893	-2.793276
1.570	2.495025	-5.950612	538.331084	-15.020649	-2.875702	0.120773	0.534188	-2.790225
1.580	2.627905	-5.889544	538.974800	-15.033546	-3.145073	0.135279	0.583529	-2.789285
1.590	2.784634	-5.886854	539.641929	-15.059080	-3.419640	0.154905	0.633687	-2.790569
1.600	2.960195	-5.942923	540.258119	-15.094863	-3.695285	0.178470	0.683985	-2.794009
1.610	3.148060	-6.048129	540.768532	-15.138283	-3.966349	0.204311	0.733465	-2.799402
1.620	3.340639	-6.185454	541.139972	-15.186366	-4.226983	0.230507	0.781126	-2.806366
1.630	3.529979	-6.334679	541.358180	-15.235216	-4.472304	0.255100	0.826127	-2.814258
1.640	3.708531	-6.477022	541.424213	-15.279557	-4.698992	0.276274	0.867895	-2.822104
1.650	3.869803	-6.598776	541.351797	-15.312948	-4.905379	0.292575	0.906135	-2.828650
1.660	4.008746	-6.692744	541.164531	-15.328943	-5.091298	0.303242	0.940804	-2.832585
1.670	4.121682	-6.757228	540.891434	-15.322773	-5.257934	0.308562	0.972087	-2.832874
1.680	4.205766	-6.793485	540.561688	-15.292745	-5.407745	0.310007	1.000394	-2.829047
1.690	4.258455	-6.802980	540.201367	-15.240652	-5.544372	0.309922	1.026353	-2.821291
1.700	4.277671	-6.785648	539.834342	-15.171028	-5.672461	0.310782	1.050778	-2.810312
1.710	4.263002	-6.740028	539.486770	-15.089580	-5.797321	0.314342	1.074599	-2.797025
1.720	4.217571	-6.665422	539.191894	-15.001430	-5.924458	0.321069	1.098766	-2.782206
1.730	4.149675	-6.564942	538.991208	-14.909885	-6.059070	0.330134	1.124150	-2.766257
1.740	4.073199	-6.447416	538.929982	-14.816235	-6.205604	0.339919	1.151468	-2.749195
1.750	4.006247	-6.326523	539.048213	-14.720579	-6.367491	0.348752	1.181247	-2.730846
1.760	3.968112	-6.217176	539.370428	-14.623023	-6.547114	0.355560	1.213844	-2.711128
1.770	3.975364	-6.130796	539.897900	-14.524349	-6.746048	0.360224	1.249504	-2.690203
1.780	4.038305	-6.071822	540.605571	-14.425661	-6.965530	0.363502	1.288468	-2.668426
1.790	4.159190	-6.037062	541.444737	-14.327324	-7.207054	0.366548	1.331078	-2.646129
1.800	4.333096	-6.017888	542.351290	-14.228048	-7.472824	0.370238	1.377857	-2.623401
1.810	4.551200	-6.003843	543.257117	-14.124867	-7.765774	0.374630	1.429484	-2.600033
1.820	4.804931	-5.985964	544.100511	-14.014145	-8.088934	0.378868	1.486662	-2.575654
1.830	5.088867	-5.958879	544.832134	-13.893066	-8.444236	0.381537	1.549878	-2.549972
1.840	5.401033	-5.921463	545.415797	-13.760785	-8.831247	0.381275	1.619177	-2.522990
1.850	5.740935	-5.875967	545.825576	-13.618674	-9.246528	0.377370	1.694044	-2.495060
1.860	6.107090	-5.825838	546.041798	-13.469600	-9.684049	0.370122	1.773500	-2.466771
1.870	6.495761	-5.773106	546.048340	-13.316533	-10.136515	0.360816	1.856340	-2.438710
1.880	6.901195	-5.716769	545.832584	-13.161131	-10.596846	0.351281	1.941410	-2.411203
1.890	7.316390	-5.653076	545.387653	-13.002981	-11.059142	0.343211	2.027758	-2.384172
1.900	7.733390	-5.577275	544.715426	-12.839907	-11.518922	0.337535	2.114668	-2.357177
1.910	8.143124	-5.485487	543.829274	-12.669146	-11.972886	0.334133	2.201589	-2.329618
1.920	8.535749	-5.375658	542.756629	-12.488750	-12.418470	0.332051	2.288037	-2.300985
1.930	8.902149	-5.247547	541.541188	-12.298498	-12.853297	0.330066	2.373466	-2.271018
1.940	9.236179	-5.102239	540.242506	-12.100000	-13.274631	0.327298	2.457161	-2.239735
1.950	9.536509	-4.941644	538.929938	-11.896183	-13.678990	0.323558	2.538176	-2.207371
1.960	9.807071	-4.768256	537.670575	-11.690634	-14.062018	0.319345	2.615359	-2.174312
1.970	10.055707	-4.585409	536.515427	-11.487142	-14.418603	0.315622	2.687454	-2.141065
1.980	10.291336	-4.398129	535.490913	-11.289510	-14.743212	0.313513	2.753214	-2.108254
1.990	10.520540	-4.214168	534.600959	-11.101548	-15.030447	0.314072	2.811526	-2.076605
2.000	10.744634	-4.044282	533.839028	-10.927091	-15.275734	0.318152	2.861487	-2.046889
2.010	10.958112	-3.900931	533.203375	-10.769912	-15.475933	0.326342	2.902445	-2.019851
2.020	11.149033	-3.795396	532.707160	-10.633420	-15.629657	0.338874	2.934005	-1.996110
2.030	11.301548	-3.734287	532.378701	-10.520187	-15.737215	0.355466	2.956019	-1.976072
2.040	11.400049	-3.716905	532.253011	-10.431421	-15.800319	0.375167	2.968573	-1.959861
2.050	11.433821	-3.734734	532.359933	-10.366581	-15.821762	0.396327	2.972005	-1.947288
2.060	11.400799	-3.773505	532.714379	-10.323334	-15.805264	0.416783	2.966930	-1.937874
2.070	11.309233	-3.817257	533.310978	-10.298019	-15.755432	0.434257	2.954267	-1.930959
2.080	11.176378	-3.853005	534.122379	-10.286503	-15.677542	0.446888	2.935197	-1.925870
2.090	11.024076	-3.874431	535.099658	-10.285059	-15.576791	0.453711	2.911007	-1.922083
2.100	10.872368	-3.883234	536.174121	-10.290861	-15.456989	0.454875	2.882830	-1.919313
2.110	10.733346	-3.887569	537.260806	-10.301979	-15.319089	0.451458	2.851332	-1.917501
2.120	10.607368	-3.898147	538.264481	-10.317184	-15.160196	0.444928	2.816496	-1.916750
2.130	10.482738	-3.923739	539.089025	-10.335959	-14.973590	0.436506	2.777573	-1.917301
2.140	10.338600	-3.968163	539.650467	-10.358823	-14.749959	0.426813	2.733243	-1.919543
2.150	10.149860	-4.030071	539.892253	-10.387564	-14.479582	0.415994	2.681939	-1.924007
2.160	9.892844	-4.105270	539.798925	-10.424936	-14.154896	0.404203	2.622253	-1.931263
2.170	9.550786	-4.190008	539.403408	-10.473809	-13.772770	0.392060	2.553334	-1.941740
2.180	9.118401	-4.283347	538.784914	-10.536233	-13.335825	0.380727	2.475167	-1.955555
2.190	8.604541	-4.387317	538.057899	-10.612930	-12.852426	0.371535	2.388670	-1.972451
2.200	8.031847	-4.504880	537.354952	-10.703491	-12.335407	0.365385	2.295579	-1.991885
2.210	7.433001	-4.637032	536.807300	-10.807105	-11.800033	0.362334	2.198188	-2.013219
2.220	6.844257	-4.780902	536.526633	-10.923269	-11.261834	0.361659	2.099026	-2.035923
2.230	6.297936	-4.929866	536.591568	-11.051846	-10.734788	0.362365	2.000551	-2.059638
2.240	5.816163	-5.075467	537.040525	-11.192246	-10.230103	0.363775	1.904903	-2.084060
2.250	5.407973	-5.210196	537.870109	-11.342203	-9.755685	0.365711	1.813762	-2.108725
2.260	5.070585	-5.330049	539.036228	-11.496969	-9.316193	0.368126	1.728306	-2.132875
2.270	4.793677	-5.435823	540.456421	-11.649463	-8.913427	0.370491	1.649241	-2.155486
2.280	4.564399	-5.532605	542.014721	-11.791346	-8.546706	0.371444	1.576840	-2.175466
2.290	4.371135	-5.627824	543.571535	-11.914595	-8.213161	0.369009	1.510962	-2.191909
2.300	4.205223	-5.728955	544.979144	-12.013007	-7.908116	0.361322	1.451086	-2.204306
2.310	4.060933	-5.841661	546.100880	-12.083129	-7.625780	0.347544	1.396405	-2.212619
2.320	3.934582	-5.968371	546.830523	-12.124293	-7.360304	0.328515	1.345994	-2.217194
2.330	3.823732	-6.107095	547.107916	-12.137877	-7.106884	0.306777	1.298991	-2.218553
2.340	3.726790	-6.250834	546.926251	-12.126312	-6.862425	0.285821	1.254726	-2.217175
