Time[s]	Fx[N]	Fy[N]	Fz[N]	Mx[Nm]	My[Nm]	Mz[Nm]	COPx[cm]	COPy[cm]
0.010	4.596256	-0.022284	675.493091	5.518743	17.245612	-0.195274	-2.553041	0.816995
0.020	4.678758	-0.083987	675.648637	5.571380	17.185661	-0.197721	-2.543580	0.824597
0.030	4.757930	-0.145551	675.745513	5.623968	17.131918	-0.197764	-2.535262	0.832261
0.040	4.829332	-0.207730	675.743396	5.675929	17.090253	-0.193484	-2.529104	0.839953
0.050	4.887075	-0.272628	675.632812	5.726349	17.064833	-0.183886	-2.525756	0.847553
0.060	4.924397	-0.342449	675.433680	5.774159	17.056878	-0.169164	-2.525322	0.854882
0.070	4.935433	-0.417283	675.184502	5.818367	17.063698	-0.150743	-2.527264	0.861745
0.080	4.917673	-0.493099	674.928738	5.858239	17.078659	-0.131014	-2.530439	0.867979
0.090	4.873980	-0.561225	674.704384	5.893613	17.092350	-0.112842	-2.533309	0.873510
0.100	4.813098	-0.610014	674.539258	5.925514	17.094724	-0.098945	-2.534282	0.878454
0.110	4.748338	-0.628309	674.450741	5.956913	17.077539	-0.091276	-2.532066	0.883224
0.120	4.694887	-0.609197	674.447185	5.993089	17.036334	-0.090556	-2.525970	0.888593
0.130	4.666472	-0.552165	674.529319	6.041123	16.971477	-0.096089	-2.516047	0.895606
0.140	4.672052	-0.462609	674.691634	6.108424	16.888116	-0.105992	-2.503087	0.905365
0.150	4.713392	-0.349139	674.923817	6.200727	16.795126	-0.117824	-2.488448	0.918730
0.160	4.784258	-0.220264	675.211626	6.320305	16.703148	-0.129425	-2.473765	0.936048
0.170	4.871557	-0.082314	675.536730	6.465044	16.622020	-0.139612	-2.460565	0.957023
0.180	4.958133	0.060429	675.876253	6.628614	16.558170	-0.148450	-2.449882	0.980744
0.190	5.026754	0.203855	676.203482	6.801542	16.512760	-0.157019	-2.441981	1.005842
0.200	5.064660	0.341988	676.490499	6.972773	16.481207	-0.166803	-2.436281	1.030727
0.210	5.067639	0.466334	676.711994	7.131373	16.454292	-0.179024	-2.431506	1.053827
0.220	5.042090	0.567093	676.848384	7.268112	16.420553	-0.194140	-2.426031	1.073817
0.230	5.003813	0.635531	676.886934	7.376699	16.369180	-0.211620	-2.418303	1.089798
0.240	4.973515	0.666325	676.821583	7.454446	16.292503	-0.229984	-2.407208	1.101390
0.250	4.970565	0.658902	676.653646	7.502209	16.187438	-0.247103	-2.392278	1.108722
0.260	5.007486	0.617309	676.394436	7.523605	16.055773	-0.260697	-2.373729	1.112310
0.270	5.087288	0.548764	676.068127	7.523659	15.903581	-0.268930	-2.352364	1.112855
0.280	5.204256	0.461562	675.711902	7.507337	15.740058	-0.270900	-2.329404	1.111026
0.290	5.347144	0.363278	675.371799	7.478513	15.576039	-0.266887	-2.306291	1.107318
0.300	5.502828	0.259920	675.095012	7.439708	15.422404	-0.258303	-2.284479	1.102024
0.310	5.658870	0.156287	674.920353	7.392418	15.288617	-0.247360	-2.265248	1.095302
0.320	5.804575	0.057189	674.868289	7.337527	15.181605	-0.236544	-2.249566	1.087253
0.330	5.931200	-0.031402	674.933111	7.275446	15.105123	-0.227990	-2.238018	1.077951
0.340	6.032065	-0.102462	675.082112	7.205978	15.059736	-0.222953	-2.230801	1.067422
0.350	6.102697	-0.149885	675.265665	7.128173	15.043469	-0.221585	-2.227785	1.055610
0.360	6.140612	-0.171607	675.435661	7.040434	15.053014	-0.223088	-2.228638	1.042355
0.370	6.144649	-0.172187	675.563119	6.941058	15.085218	-0.226109	-2.232984	1.027448
0.380	6.114355	-0.163177	675.645716	6.829111	15.138422	-0.229179	-2.240586	1.010753
0.390	6.050140	-0.160766	675.702610	6.705295	15.213150	-0.231085	-2.251456	0.992344
0.400	5.954219	-0.181457	675.761067	6.572154	15.311694	-0.231188	-2.265844	0.972556
0.410	5.831525	-0.237401	675.842287	6.433132	15.436643	-0.229635	-2.284060	0.951869
0.420	5.689588	-0.333199	675.951776	6.290665	15.589023	-0.227378	-2.306233	0.930638
0.430	5.537144	-0.465521	676.075837	6.144255	15.767039	-0.225948	-2.332141	0.908812
0.440	5.382047	-0.625776	676.183794	5.989795	15.966084	-0.227017	-2.361205	0.885824
0.450	5.229468	-0.804629	676.235903	5.820775	16.179883	-0.231903	-2.392639	0.860761
0.460	5.081241	-0.996188	676.196670	5.630860	16.402044	-0.241115	-2.425632	0.832725
0.470	4.936894	-1.199824	676.050401	5.416532	16.627205	-0.254073	-2.459462	0.801202
0.480	4.796044	-1.418861	675.812805	5.178610	16.851430	-0.269090	-2.493506	0.766279
0.490	4.660741	-1.656963	675.532913	4.922313	17.071961	-0.283669	-2.527184	0.728656
0.500	4.536178	-1.914151	675.283263	4.656300	17.286675	-0.295049	-2.559915	0.689533
0.510	4.429263	-2.184392	675.141053	4.391192	17.493498	-0.300822	-2.591088	0.650411
0.520	4.346019	-2.455758	675.166067	4.137876	17.690007	-0.299479	-2.620097	0.612868
0.530	4.289194	-2.712778	675.381992	3.905811	17.873412	-0.290763	-2.646415	0.578311
0.540	4.256914	-2.939590	675.766591	3.701733	18.041024	-0.275749	-2.669712	0.547783
0.550	4.242444	-3.122437	676.254174	3.529133	18.191039	-0.256621	-2.689971	0.521865
0.560	4.234953	-3.250822	676.750633	3.388506	18.323225	-0.236150	-2.707530	0.500702
0.570	4.221357	-3.317670	677.156712	3.278095	18.439022	-0.217003	-2.723007	0.484097
0.580	4.189280	-3.319412	677.391215	3.194870	18.540822	-0.201122	-2.737092	0.471643
0.590	4.130598	-3.256814	677.406116	3.135606	18.630752	-0.189423	-2.750308	0.462884
0.600	4.044310	-3.136484	677.190695	3.097847	18.709708	-0.181879	-2.762842	0.457456
0.610	3.937269	-2.971855	676.767747	3.080437	18.777281	-0.177842	-2.774553	0.455169
0.620	3.822059	-2.782189	676.186849	3.083424	18.832632	-0.176325	-2.785122	0.456002
0.630	3.712716	-2.589333	675.517001	3.107418	18.875769	-0.176144	-2.794270	0.460006
0.640	3.620171	-2.413598	674.838019	3.152755	18.908562	-0.175980	-2.801941	0.467187
0.650	3.549197	-2.270545	674.230032	3.218825	18.935076	-0.174583	-2.808400	0.477408
0.660	3.497491	-2.169358	673.762399	3.303862	18.961291	-0.171136	-2.814240	0.490360
0.670	3.456395	-2.112414	673.484667	3.405187	18.994474	-0.165628	-2.820328	0.505607
0.680	3.412620	-2.095515	673.421698	3.519672	19.042330	-0.158946	-2.827698	0.522655
0.690	3.350757	-2.108777	673.573159	3.644068	19.111818	-0.152578	-2.837378	0.541006
0.700	3.256753	-2.138466	673.915941	3.775043	19.207554	-0.148053	-2.850141	0.560165
0.710	3.122150	-2.169841	674.407875	3.908976	19.330110	-0.146482	-2.866234	0.579616
0.720	2.948121	-2.190396	674.992145	4.041808	19.474823	-0.148424	-2.885193	0.598793
0.730	2.747491	-2.192412	675.602903	4.169237	19.631818	-0.154105	-2.905822	0.617114
0.740	2.543057	-2.173873	676.172840	4.287363	19.787526	-0.163725	-2.926401	0.634063
0.750	2.361982	-2.137647	676.642519	4.393539	19.927320	-0.177606	-2.945029	0.649315
0.760	2.228335	-2.089658	676.969610	4.486967	20.038345	-0.196071	-2.960007	0.662802
0.770	2.157123	-2.037108	677.135148	4.568670	20.111585	-0.219115	-2.970099	0.674706
0.780	2.152367	-1.987356	677.144386	4.640843	20.142581	-0.246026	-2.974636	0.685355
0.790	2.209302	-1.947455	677.021497	4.705894	20.130857	-0.275114	-2.973444	0.695088
0.800	2.318599	-1.923845	676.799779	4.765660	20.078632	-0.303687	-2.966702	0.704146
0.810	2.470008	-1.921699	676.511368	4.821191	19.989575	-0.328394	-2.954803	0.712655
0.820	2.654036	-1.943777	676.180878	4.873075	19.868077	-0.345936	-2.938278	0.720676
0.830	2.861943	-1.989041	675.824826	4.921903	19.719035	-0.353926	-2.917773	0.728281
0.840	3.085182	-2.051480	675.455400	4.968540	19.547929	-0.351619	-2.894037	0.735584
0.850	3.315035	-2.119717	675.086114	5.014163	19.360916	-0.340212	-2.867918	0.742744
0.860	3.542426	-2.177922	674.737391	5.060341	19.164794	-0.322672	-2.840334	0.749972
0.870	3.757618	-2.208372	674.439621	5.109351	18.966787	-0.303116	-2.812229	0.757570
0.880	3.950039	-2.195365	674.230817	5.164624	18.774139	-0.285888	-2.784527	0.766002
0.890	4.108929	-2.129260	674.148079	5.230910	18.593590	-0.274499	-2.758087	0.775929
0.900	4.225175	-2.009045	674.215434	5.313687	18.430793	-0.270722	-2.733665	0.788129
0.910	4.293829	-1.842485	674.432327	5.417694	18.289770	-0.274170	-2.711876	0.803297
0.920	4.316338	-1.644046	674.767196	5.545049	18.172404	-0.282510	-2.693137	0.821772
0.930	4.301652	-1.431573	675.160041	5.693965	18.077997	-0.292204	-2.677587	0.843350
0.940	4.265850	-1.222821	675.535674	5.859044	18.003023	-0.299475	-2.665000	0.867318
0.950	4.230096	-1.032612	675.824360	6.033379	17.941424	-0.301230	-2.654747	0.892744
0.960	4.216887	-0.870819	675.981657	6.211588	17.885662	-0.295775	-2.645880	0.918899
0.970	4.245009	-0.741024	675.998728	6.392289	17.828437	-0.283254	-2.637348	0.945607
0.980	4.324428	-0.639944	675.899247	6.578693	17.764518	-0.265676	-2.628279	0.973324
0.990	4.453036	-0.557955	675.726257	6.776923	17.692092	-0.246398	-2.618234	1.002910
1.000	4.616813	-0.480878	675.526781	6.992703	17.613230	-0.229131	-2.607333	1.035148
1.010	4.793729	-0.392714	675.340782	7.227762	17.533426	-0.216840	-2.596234	1.070239
1.020	4.960026	-0.278810	675.196407	7.477484	17.460330	-0.211033	-2.585963	1.107453
1.030	5.096574	-0.129079	675.109449	7.730904	17.401932	-0.211691	-2.577646	1.145133
1.040	5.193226	0.059142	675.084088	7.973325	17.364553	-0.217723	-2.572206	1.181086
1.050	5.250101	0.279382	675.113663	8.190755	17.351253	-0.227605	-2.570123	1.213241
1.060	5.275754	0.516411	675.182558	8.374395	17.361310	-0.239908	-2.571351	1.240316
1.070	5.282965	0.749171	675.270850	8.523074	17.391169	-0.253564	-2.575436	1.262171
1.080	5.283354	0.955646	675.361265	8.642376	17.436639	-0.267861	-2.581824	1.279667
1.090	5.282492	1.118165	675.445374	8.740933	17.495453	-0.282251	-2.590210	1.294099
1.100	5.277251	1.227358	675.525741	8.825900	17.568963	-0.296075	-2.600784	1.306523
1.110	5.256640	1.283546	675.613128	8.899954	17.662008	-0.308396	-2.614219	1.317315
1.120	5.206089	1.295284	675.720336	8.961121	17.780844	-0.318023	-2.631391	1.326158
1.130	5.113573	1.275814	675.855077	9.005115	17.929986	-0.323764	-2.652934	1.332403
1.140	4.975135	1.238897	676.013980	9.028563	18.109433	-0.324787	-2.678855	1.335559
1.150	4.797615	1.195599	676.179846	9.031195	18.313575	-0.320925	-2.708388	1.335620
1.160	4.597494	1.152912	676.324536	9.015951	18.532291	-0.312769	-2.740148	1.333081
1.170	4.396212	1.113938	676.418620	8.987262	18.753800	-0.301532	-2.772514	1.328654
1.180	4.213785	1.078661	676.445351	8.948841	18.968082	-0.288748	-2.804082	1.322921
1.190	4.063233	1.044708	676.412353	8.902363	19.169543	-0.275922	-2.834003	1.316115
1.200	3.947798	1.008251	676.352921	8.847690	19.357989	-0.264229	-2.862114	1.308147
1.210	3.861537	0.965530	676.312288	8.784250	19.537708	-0.254300	-2.888859	1.298845
1.220	3.792599	0.914868	676.322484	8.712517	19.715151	-0.246111	-2.915052	1.288219
1.230	3.727917	0.858267	676.378677	8.634603	19.896060	-0.239057	-2.941556	1.276593
1.240	3.657721	0.801459	676.432652	8.553683	20.083027	-0.232242	-2.968962	1.264528
1.250	3.578397	0.751945	676.410435	8.472677	20.274367	-0.224927	-2.997347	1.252594
1.260	3.492817	0.715783	676.245970	8.393052	20.464658	-0.216966	-3.026215	1.241124
1.270	3.408463	0.694848	675.912943	8.314476	20.646643	-0.208974	-3.054630	1.230111
1.280	3.334475	0.686164	675.439152	8.235637	20.813674	-0.202114	-3.081502	1.219301
1.290	3.278671	0.683717	674.898343	8.155811	20.961817	-0.197574	-3.105922	1.208450
1.300	3.244890	0.681681	674.385360	8.076265	21.091022	-0.195989	-3.127444	1.197574
1.310	3.230659	0.677283	673.986904	8.000581	21.205121	-0.197066	-3.146221	1.187053
1.320	3.225774	0.671886	673.760312	7.933597	21.310755	-0.199527	-3.162958	1.177510
1.330	3.213219	0.669749	673.726639	7.879420	21.415572	-0.201422	-3.178674	1.169528
1.340	3.173417	0.675039	673.875647	7.839420	21.526211	-0.200752	-3.194389	1.163333
1.350	3.090741	0.688551	674.175396	7.811133	21.646632	-0.196238	-3.210831	1.158620
1.360	2.959383	0.705977	674.580813	7.788586	21.777148	-0.187890	-3.228249	1.154582
1.370	2.785847	0.718916	675.040360	7.763818	21.914308	-0.177102	-3.246370	1.150126
1.380	2.587264	0.718320	675.502354	7.728838	22.051553	-0.166178	-3.264467	1.144162
1.390	2.386814	0.698586	675.921272	7.677119	22.180522	-0.157487	-3.281524	1.135801
1.400	2.208263	0.660061	676.262316	7.604121	22.292759	-0.152579	-3.296466	1.124434
1.410	2.071283	0.608488	676.502780	7.506839	22.381397	-0.151654	-3.308397	1.109654
1.420	1.988301	0.551366	676.631442	7.382781	22.442380	-0.153619	-3.316781	1.091108
1.430	1.963053	0.492690	676.648856	7.229012	22.475005	-0.156676	-3.321517	1.068355
1.440	1.990808	0.428455	676.569285	7.041959	22.481762	-0.159085	-3.322906	1.040833
1.450	2.060294	0.345335	676.421296	6.818401	22.467582	-0.159642	-3.321537	1.008011
1.460	2.157165	0.223797	676.243707	6.557592	22.438641	-0.157721	-3.318129	0.969708
1.470	2.268199	0.045072	676.076919	6.263771	22.400947	-0.153064	-3.313373	0.926488
1.480	2.384665	-0.200478	675.952634	5.947765	22.359121	-0.145662	-3.307794	0.879909
1.490	2.503226	-0.506971	675.885029	5.626288	22.315716	-0.135874	-3.301703	0.832433
1.500	2.623960	-0.851403	675.865931	5.318478	22.271228	-0.124597	-3.295214	0.786913
1.510	2.746721	-1.197964	675.866626	5.040700	22.224701	-0.113249	-3.288326	0.745813
1.520	2.867910	-1.507229	675.847837	4.801820	22.174695	-0.103448	-3.281019	0.710488
1.530	2.979168	-1.747061	675.775328	4.601117	22.120331	-0.096480	-3.273326	0.680865
1.540	3.068431	-1.901210	675.634536	4.429756	22.062058	-0.092834	-3.265383	0.655644
1.550	3.122944	-1.972614	675.437661	4.274996	22.001917	-0.092038	-3.257431	0.632922
1.560	3.133330	-1.980998	675.220724	4.125091	21.943234	-0.092927	-3.249787	0.610925
1.570	3.097259	-1.956461	675.033094	3.972855	21.890000	-0.094229	-3.242804	0.588542
1.580	3.021037	-1.931312	674.924360	3.816903	21.846243	-0.095168	-3.236843	0.565531
1.590	2.918211	-1.931982	674.932454	3.660775	21.815577	-0.095767	-3.232261	0.542391
1.600	2.805770	-1.972581	675.074542	3.510925	21.800863	-0.096698	-3.229401	0.520080
1.610	2.699577	-2.051577	675.341367	3.374700	21.803833	-0.098751	-3.228565	0.499703
1.620	2.610750	-2.152631	675.696300	3.259026	21.824623	-0.102190	-3.229946	0.482321
1.630	2.543956	-2.249439	676.080384	3.169795	21.861329	-0.106372	-3.233540	0.468849
1.640	2.497718	-2.313034	676.422914	3.111471	21.909762	-0.109908	-3.239063	0.459989
1.650	2.466123	-2.319372	676.655103	3.086456	21.963676	-0.111326	-3.245919	0.456134
1.660	2.441146	-2.255372	676.723442	3.094312	22.015651	-0.109908	-3.253271	0.457249
1.670	2.415000	-2.122250	676.600161	3.131297	22.058566	-0.106225	-3.260207	0.462799
1.680	2.382295	-1.935423	676.289897	3.190657	22.087264	-0.102085	-3.265946	0.471788
1.690	2.341703	-1.720708	675.832386	3.263668	22.099733	-0.099897	-3.270002	0.482911
1.700	2.296549	-1.507631	675.299917	3.341084	22.097222	-0.101750	-3.272209	0.494756
1.710	2.253674	-1.321995	674.787034	3.414586	22.083165	-0.108584	-3.272612	0.506024
1.720	2.220699	-1.180210	674.391551	3.477886	22.061405	-0.119833	-3.271305	0.515707
1.730	2.202838	-1.087042	674.190588	3.527279	22.034657	-0.133656	-3.268313	0.523187
1.740	2.200846	-1.036857	674.219536	3.561589	22.003897	-0.147663	-3.263610	0.528254
1.750	2.211123	-1.017228	674.461943	3.581607	21.968780	-0.159827	-3.257230	0.531032
1.760	2.227799	-1.013193	674.854279	3.589209	21.928586	-0.169228	-3.249381	0.531849
1.770	2.245494	-1.010811	675.304111	3.586356	21.883099	-0.176335	-3.240481	0.531073
1.780	2.261205	-0.999572	675.715855	3.574215	21.833131	-0.182701	-3.231111	0.528952
1.790	2.274477	-0.973932	676.016257	3.552683	21.780640	-0.190254	-3.221911	0.525532
1.800	2.286241	-0.934145	676.172453	3.520429	21.728340	-0.200519	-3.213432	0.520641
1.810	2.297567	-0.886147	676.197956	3.475342	21.678746	-0.214082	-3.205976	0.513953
1.820	2.309393	-0.840239	676.145068	3.415167	21.632889	-0.230420	-3.199445	0.505094
1.830	2.323344	-0.808662	676.085300	3.338193	21.589270	-0.248021	-3.193276	0.493753
1.840	2.342859	-0.802439	676.082712	3.243938	21.543600	-0.264726	-3.186533	0.479814
1.850	2.373683	-0.828108	676.168340	3.133594	21.489408	-0.278255	-3.178115	0.463434
1.860	2.423259	-0.885377	676.325673	3.009865	21.419231	-0.286845	-3.167000	0.445032
1.870	2.499138	-0.966971	676.494976	2.875991	21.325996	-0.289818	-3.152425	0.425131
1.880	2.606826	-1.061407	676.596916	2.734172	21.204270	-0.287803	-3.133959	0.404106
1.890	2.747727	-1.157976	676.566012	2.584147	21.051151	-0.282471	-3.111470	0.381950
1.900	2.918017	-1.251730	676.378192	2.422830	20.866597	-0.275881	-3.085049	0.358206
1.910	3.109197	-1.345903	676.059412	2.245495	20.653184	-0.269695	-3.054936	0.332145
1.920	3.310516	-1.450397	675.672531	2.048188	20.415469	-0.264593	-3.021503	0.303133
1.930	3.512396	-1.577010	675.290719	1.830335	20.159314	-0.260032	-2.985279	0.271044
1.940	3.709176	-1.733709	674.971261	1.596316	19.891528	-0.254413	-2.947018	0.236501
1.950	3.899559	-1.920522	674.741719	1.355298	19.619853	-0.245549	-2.907757	0.200862
1.960	4.084420	-2.128597	674.602678	1.119402	19.353027	-0.231294	-2.868804	0.165935
1.970	4.263375	-2.342521	674.542036	0.900851	19.100502	-0.210149	-2.831625	0.133550
1.980	4.432473	-2.544749	674.550042	0.708956	18.871539	-0.181726	-2.797648	0.105101
1.990	4.584571	-2.720391	674.625792	0.547844	18.673839	-0.146989	-2.768029	0.081207
2.000	4.711919	-2.860511	674.773328	0.415875	18.512203	-0.108198	-2.743470	0.061632
2.010	4.809052	-2.962739	674.992710	0.307216	18.387908	-0.068513	-2.724164	0.045514
2.020	4.874120	-3.029208	675.273128	0.215056	18.299156	-0.031312	-2.709890	0.031847
2.030	4.908110	-3.063233	675.591783	0.134921	18.242374	0.000603	-2.700207	0.019971
2.040	4.912887	-3.066757	675.918051	0.066392	18.213652	0.025605	-2.694654	0.009822
2.050	4.889535	-3.039961	676.220397	0.012360	18.209552	0.043401	-2.692843	0.001828
2.060	4.838106	-2.983126	676.473140	-0.023717	18.226979	0.054714	-2.694413	-0.003506
2.070	4.758922	-2.899578	676.660503	-0.040947	18.262409	0.060737	-2.698903	-0.006051
2.080	4.654793	-2.798065	676.776840	-0.042781	18.311164	0.062691	-2.705643	-0.006321
2.090	4.532949	-2.693076	676.823933	-0.036552	18.367358	0.061724	-2.713757	-0.005401
2.100	4.405181	-2.602428	676.807204	-0.031221	18.424688	0.059048	-2.722295	-0.004613
2.110	4.285318	-2.542643	676.732198	-0.034553	18.477705	0.056073	-2.730431	-0.005106
2.120	4.184820	-2.523843	676.602341	-0.050961	18.522959	0.054290	-2.737643	-0.007532
2.130	4.108816	-2.546382	676.418974	-0.080764	18.559442	0.054896	-2.743779	-0.011940
2.140	4.054962	-2.600749	676.184175	-0.121029	18.588239	0.058332	-2.748991	-0.017899
2.150	4.015666	-2.670812	675.905693	-0.167566	18.611667	0.063995	-2.753589	-0.024791
2.160	3.982166	-2.739042	675.602076	-0.217174	18.632322	0.070303	-2.757884	-0.032145
2.170	3.948115	-2.791721	675.305110	-0.269192	18.652316	0.075144	-2.762058	-0.039862
2.180	3.911081	-2.822312	675.056542	-0.325736	18.672773	0.076587	-2.766105	-0.048253
2.190	3.871803	-2.832195	674.898250	-0.390680	18.693544	0.073584	-2.769831	-0.057887
2.200	3.832386	-2.829153	674.859056	-0.467898	18.713026	0.066377	-2.772879	-0.069333
2.210	3.794958	-2.824801	674.944137	-0.559519	18.728026	0.056429	-2.774752	-0.082899
2.220	3.761586	-2.832019	675.131819	-0.664727	18.733764	0.045917	-2.774831	-0.098459
2.230	3.735017	-2.862567	675.378932	-0.779475	18.724237	0.036994	-2.772405	-0.115413
2.240	3.719104	-2.924445	675.632676	-0.897161	18.693155	0.031145	-2.766763	-0.132788
2.250	3.718211	-3.019032	675.845181	-1.010090	18.635388	0.028876	-2.757346	-0.149456
2.260	3.735840	-3.139079	675.986508	-1.111216	18.548567	0.029773	-2.743926	-0.164384
2.270	3.773183	-3.269132	676.052227	-1.195572	18.434218	0.032767	-2.726745	-0.176846
2.280	3.828194	-3.389046	676.062742	-1.260946	18.297905	0.036458	-2.706539	-0.186513
2.290	3.895521	-3.479728	676.053542	-1.307855	18.148252	0.039394	-2.684440	-0.193454
2.300	3.967538	-3.529050	676.059045	-1.339162	17.995298	0.040306	-2.661794	-0.198084
2.310	4.036204	-3.535781	676.096763	-1.359713	17.848780	0.038293	-2.639974	-0.201112
2.320	4.094987	-3.510158	676.160040	-1.375938	17.716746	0.032983	-2.620200	-0.203493
2.330	4.140116	-3.470831	676.223893	-1.395050	17.604566	0.024654	-2.603364	-0.206300
2.340	4.171022	-3.439105	676.260458	-1.423463	17.514273	0.014257	-2.589871	-0.210490
2.350	4.190192	-3.432504	676.254253	-1.464663	17.444241	0.003284	-2.579539	-0.216585
2.360	4.202571	-3.460065	676.208633	-1.517415	17.389403	-0.006505	-2.571603	-0.224400
2.370	4.214552	-3.521102	676.142124	-1.575324	17.342224	-0.013399	-2.564879	-0.232987
