Time[s]	Fx[N]	Fy[N]	Fz[N]	Mx[Nm]	My[Nm]	Mz[Nm]	COPx[cm]	COPy[cm]
0.010	2.535007	-1.728493	672.151428	2.861930	18.979551	0.000856	-2.823702	0.425787
0.020	2.680688	-1.740663	672.651850	2.875715	18.891686	0.036978	-2.808539	0.427519
0.030	2.803764	-1.753347	673.118515	2.890054	18.806666	0.070068	-2.793961	0.429353
0.040	2.888739	-1.767000	673.517825	2.905557	18.726708	0.098082	-2.780432	0.431400
0.050	2.930520	-1.782541	673.821726	2.923155	18.653002	0.120068	-2.768240	0.433817
0.060	2.934840	-1.800416	674.012783	2.943749	18.585767	0.136073	-2.757480	0.436750
0.070	2.915343	-1.819369	674.088097	2.967710	18.524710	0.146810	-2.748114	0.440256
0.080	2.888948	-1.835751	674.060027	2.994633	18.469613	0.153300	-2.740055	0.444268
0.090	2.871424	-1.843877	673.953648	3.023558	18.420817	0.156568	-2.733247	0.448630
0.100	2.874146	-1.837403	673.802002	3.053458	18.379483	0.157412	-2.727728	0.453168
0.110	2.901952	-1.811280	673.640325	3.083561	18.347676	0.156228	-2.723661	0.457746
0.120	2.951692	-1.763691	673.500431	3.113290	18.328306	0.152973	-2.721350	0.462255
0.130	3.011800	-1.697192	673.406289	3.142020	18.324772	0.147296	-2.721206	0.466586
0.140	3.063930	-1.618361	673.371070	3.169007	18.340133	0.138870	-2.723629	0.470618
0.150	3.087364	-1.535889	673.394989	3.193626	18.375873	0.127795	-2.728840	0.474257
0.160	3.065351	-1.457949	673.463853	3.215740	18.430821	0.114872	-2.736720	0.477493
0.170	2.991060	-1.390150	673.550118	3.235920	18.500825	0.101561	-2.746763	0.480428
0.180	2.870552	-1.334845	673.618715	3.255336	18.579392	0.089582	-2.758147	0.483261
0.190	2.721502	-1.291640	673.637464	3.275278	18.658967	0.080309	-2.769883	0.486208
0.200	2.568282	-1.258379	673.588389	3.296513	18.732325	0.074294	-2.780975	0.489396
0.210	2.435323	-1.232033	673.475093	3.318925	18.793713	0.071164	-2.790558	0.492806
0.220	2.340996	-1.209436	673.323035	3.341757	18.839561	0.069901	-2.797997	0.496308
0.230	2.293764	-1.188009	673.172477	3.364307	18.868792	0.069318	-2.802965	0.499769
0.240	2.291375	-1.166443	673.066113	3.386491	18.882735	0.068490	-2.805480	0.503144
0.250	2.322731	-1.145139	673.034942	3.408887	18.884717	0.066950	-2.805904	0.506495
0.260	2.371368	-1.126185	673.086972	3.432361	18.879421	0.064649	-2.804901	0.509943
0.270	2.419299	-1.112635	673.203290	3.457595	18.872141	0.061755	-2.803335	0.513603
0.280	2.450338	-1.107209	673.343836	3.484806	18.868019	0.058493	-2.802137	0.517537
0.290	2.452571	-1.111029	673.460812	3.513744	18.871335	0.055093	-2.802143	0.521744
0.300	2.420141	-1.123207	673.513920	3.543949	18.884919	0.051793	-2.803939	0.526188
0.310	2.354326	-1.141438	673.481926	3.575131	18.909851	0.048774	-2.807774	0.530843
0.320	2.263388	-1.162734	673.368612	3.607478	18.945607	0.046045	-2.813557	0.535736
0.330	2.160505	-1.183398	673.203503	3.641736	18.990577	0.043385	-2.820927	0.540956
0.340	2.059945	-1.198341	673.036421	3.678955	19.042631	0.040435	-2.829361	0.546621
0.350	1.972892	-1.200854	672.923690	3.719934	19.099381	0.036896	-2.838268	0.552802
0.360	1.904778	-1.183802	672.907359	3.764590	19.158101	0.032695	-2.847064	0.559451
0.370	1.855119	-1.142117	672.995401	3.811642	19.215615	0.028010	-2.855237	0.566370
0.380	1.819432	-1.075496	673.154058	3.858851	19.268453	0.023150	-2.862414	0.573249
0.390	1.791779	-0.989923	673.318804	3.903732	19.313363	0.018386	-2.868383	0.579775
0.400	1.766535	-0.897133	673.419981	3.944391	19.347981	0.013895	-2.873093	0.585725
0.410	1.738897	-0.811849	673.410433	3.980127	19.371456	0.009900	-2.876619	0.591040
0.420	1.704603	-0.747681	673.281784	4.011674	19.384871	0.006882	-2.879162	0.595839
0.430	1.659798	-0.713155	673.063389	4.041084	19.391267	0.005645	-2.881046	0.600402
0.440	1.601865	-0.709252	672.807470	4.071194	19.395096	0.007041	-2.882711	0.605105
0.450	1.531119	-0.729177	672.569407	4.104669	19.401080	0.011478	-2.884621	0.610297
0.460	1.452213	-0.760404	672.391649	4.142870	19.412780	0.018502	-2.887124	0.616139
0.470	1.373786	-0.788419	672.295712	4.185211	19.431425	0.026749	-2.890309	0.622525
0.480	1.305962	-0.800871	672.282493	4.229433	19.455574	0.034316	-2.893958	0.629115
0.490	1.256810	-0.790676	672.338615	4.272626	19.481765	0.039390	-2.897612	0.635487
0.500	1.229571	-0.757245	672.445624	4.312300	19.505814	0.040868	-2.900727	0.641286
0.510	1.221896	-0.705937	672.588997	4.346938	19.524120	0.038730	-2.902831	0.646299
0.520	1.227251	-0.646254	672.764193	4.375981	19.534397	0.034040	-2.903602	0.650448
0.530	1.237771	-0.589296	672.977060	4.399622	19.535697	0.028560	-2.902877	0.653755
0.540	1.247351	-0.545007	673.237134	4.418680	19.527848	0.024154	-2.900590	0.656333
0.550	1.253798	-0.519884	673.545434	4.434489	19.510614	0.022208	-2.896703	0.658380
0.560	1.259419	-0.515699	673.881433	4.448632	19.482860	0.023217	-2.891141	0.660151
0.570	1.270224	-0.529390	674.195455	4.462467	19.442085	0.026616	-2.883746	0.661895
0.580	1.294247	-0.553907	674.412392	4.476646	19.384652	0.030942	-2.874302	0.663785
0.590	1.339310	-0.579724	674.449463	4.490904	19.306953	0.034403	-2.862624	0.665862
0.600	1.410294	-0.596884	674.244324	4.504340	19.207361	0.035704	-2.848724	0.668058
0.610	1.506345	-0.597534	673.783144	4.516124	19.088283	0.034742	-2.833001	0.670264
0.620	1.619100	-0.578477	673.116484	4.526272	18.957303	0.032786	-2.816348	0.672435
0.630	1.733199	-0.542815	672.355275	4.535973	18.826493	0.031969	-2.800081	0.674639
0.640	1.829583	-0.499733	671.646673	4.547204	18.709701	0.034350	-2.785646	0.677023
0.650	1.890649	-0.462185	671.136610	4.561799	18.618557	0.040981	-2.774183	0.679712
0.660	1.905450	-0.443092	670.931056	4.580505	18.558713	0.051430	-2.766113	0.682709
0.670	1.873200	-0.451179	671.068924	4.602484	18.527878	0.063960	-2.760950	0.685844
0.680	1.804137	-0.487850	671.514660	4.625464	18.516457	0.076176	-2.757417	0.688811
0.690	1.717594	-0.546482	672.170456	4.646388	18.510462	0.085813	-2.753835	0.691251
0.700	1.637840	-0.614696	672.902107	4.662183	18.495466	0.091335	-2.748612	0.692847
0.710	1.588826	-0.678762	673.570572	4.670308	18.460088	0.092231	-2.740632	0.693366
0.720	1.589176	-0.728074	674.061835	4.668936	18.398096	0.089015	-2.729437	0.692657
0.730	1.648447	-0.757667	674.308938	4.656978	18.309008	0.082989	-2.715226	0.690630
0.740	1.765114	-0.767934	674.301865	4.634231	18.197624	0.075868	-2.698736	0.687264
0.750	1.926431	-0.762411	674.083671	4.601770	18.072884	0.069320	-2.681104	0.682670
0.760	2.110238	-0.745419	673.734387	4.562212	17.946247	0.064521	-2.663698	0.677153
0.770	2.288660	-0.721012	673.347175	4.519391	17.829621	0.061813	-2.647909	0.671183
0.780	2.433327	-0.693315	673.003472	4.477306	17.733058	0.060599	-2.634913	0.665272
0.790	2.521253	-0.667206	672.754592	4.438775	17.662715	0.059598	-2.625432	0.659791
0.800	2.539872	-0.648270	672.615138	4.404569	17.619767	0.057474	-2.619591	0.654842
0.810	2.489527	-0.641729	672.568801	4.373547	17.600646	0.053562	-2.616929	0.650275
0.820	2.382342	-0.650891	672.582189	4.343720	17.598477	0.048308	-2.616554	0.645827
0.830	2.238029	-0.676113	672.620141	4.313581	17.605113	0.043155	-2.617393	0.641310
0.840	2.078504	-0.715058	672.657116	4.282953	17.613082	0.039898	-2.618434	0.636722
0.850	1.923383	-0.764137	672.681866	4.253017	17.616849	0.039817	-2.618898	0.632248
0.860	1.787428	-0.820111	672.695186	4.225657	17.613136	0.043023	-2.618294	0.628168
0.870	1.679923	-0.880770	672.703028	4.202560	17.600371	0.048332	-2.616366	0.624727
0.880	1.605433	-0.944531	672.709300	4.184516	17.577699	0.053666	-2.612971	0.622039
0.890	1.565284	-1.009695	672.712682	4.171226	17.544149	0.056797	-2.607971	0.620061
0.900	1.559050	-1.074083	672.709239	4.161574	17.498390	0.056110	-2.601182	0.618629
0.910	1.585313	-1.135218	672.698572	4.154069	17.439131	0.051138	-2.592414	0.617523
0.920	1.641327	-1.190750	672.688394	4.147156	17.365817	0.042722	-2.581554	0.616505
0.930	1.721902	-1.238756	672.693315	4.139311	17.279235	0.032756	-2.568665	0.615334
0.940	1.818409	-1.277805	672.728115	4.129056	17.181741	0.023639	-2.554039	0.613778
0.950	1.918873	-1.306971	672.800090	4.115029	17.077025	0.017613	-2.538202	0.611627
0.960	2.009793	-1.326068	672.905548	4.096143	16.969492	0.016166	-2.521824	0.608725
0.970	2.079585	-1.336028	673.032055	4.071789	16.863412	0.019665	-2.505588	0.604992
0.980	2.122502	-1.339114	673.164033	4.041954	16.762073	0.027332	-2.490043	0.600441
0.990	2.141089	-1.338765	673.287980	4.007191	16.667109	0.037523	-2.475480	0.595167
1.000	2.145663	-1.339205	673.394883	3.968467	16.578172	0.048201	-2.461880	0.589322
1.010	2.150752	-1.344997	673.479729	3.927014	16.493070	0.057448	-2.448933	0.583093
1.020	2.170006	-1.360453	673.539579	3.884237	16.408477	0.063914	-2.436156	0.576690
1.030	2.211664	-1.388750	673.571999	3.841617	16.321085	0.067086	-2.423065	0.570335
1.040	2.276048	-1.431004	673.574828	3.800499	16.228764	0.067338	-2.409348	0.564228
1.050	2.355707	-1.485871	673.546960	3.761758	16.131265	0.065741	-2.394973	0.558500
1.060	2.438096	-1.549927	673.489272	3.725515	16.030192	0.063713	-2.380170	0.553166
1.070	2.509997	-1.618531	673.405223	3.691131	15.928411	0.062608	-2.365353	0.548129
1.080	2.562054	-1.686722	673.301086	3.657520	15.829181	0.063341	-2.350981	0.543222
1.090	2.591495	-1.749960	673.185569	3.623587	15.735266	0.066142	-2.337434	0.538275
1.100	2.601891	-1.804793	673.068554	3.588579	15.648195	0.070552	-2.324904	0.533167
1.110	2.600362	-1.849432	672.959506	3.552366	15.567875	0.075680	-2.313345	0.527872
1.120	2.593896	-1.884044	672.866901	3.515763	15.492711	0.080615	-2.302493	0.522505
1.130	2.586819	-1.910493	672.799319	3.480806	15.420248	0.084763	-2.291954	0.517362
1.140	2.580456	-1.931474	672.767002	3.450665	15.348040	0.087965	-2.281331	0.512906
1.150	2.574477	-1.949448	672.781848	3.429027	15.274379	0.090364	-2.270332	0.509679
1.160	2.568428	-1.965955	672.855124	3.419112	15.198564	0.092136	-2.258817	0.508150
1.170	2.562371	-1.981606	672.994053	3.422731	15.120736	0.093269	-2.246786	0.508583
1.180	2.556747	-1.996423	673.198710	3.439779	15.041491	0.093577	-2.234332	0.510960
1.190	2.552221	-2.010005	673.459223	3.468320	14.961455	0.092943	-2.221583	0.515001
1.200	2.550050	-2.021265	673.752695	3.505186	14.880779	0.091638	-2.208641	0.520248
1.210	2.552702	-2.027958	674.040941	3.546865	14.798468	0.090464	-2.195485	0.526209
1.220	2.564111	-2.026493	674.272290	3.590418	14.711664	0.090571	-2.181858	0.532488
1.230	2.589280	-2.012540	674.390221	3.634273	14.615291	0.092971	-2.167186	0.538898
1.240	2.633470	-1.982587	674.348083	3.678739	14.502578	0.098007	-2.150607	0.545525
1.250	2.701242	-1.935940	674.125193	3.726019	14.366781	0.105092	-2.131174	0.552719
1.260	2.795391	-1.876078	673.737716	3.779510	14.203800	0.112904	-2.108209	0.560976
1.270	2.915748	-1.810277	673.239253	3.842537	14.014854	0.119944	-2.081705	0.570754
1.280	3.058090	-1.747249	672.710180	3.917068	13.807977	0.125159	-2.052589	0.582282
1.290	3.213680	-1.693760	672.239568	4.003093	13.597311	0.128283	-2.022688	0.595486
1.300	3.369945	-1.652000	671.906003	4.098981	13.399992	0.129795	-1.994325	0.610053
1.310	3.512509	-1.619201	671.762443	4.202509	13.231470	0.130633	-1.969665	0.625595
1.320	3.628331	-1.589662	671.827030	4.311831	13.100963	0.131897	-1.950050	0.641807
1.330	3.709162	-1.557834	672.079837	4.425832	13.008693	0.134634	-1.935587	0.658528
1.340	3.754181	-1.520566	672.465677	4.543809	12.945907	0.139670	-1.925140	0.675694
1.350	3.770671	-1.477270	672.903521	4.664846	12.897598	0.147366	-1.916708	0.693241
1.360	3.772057	-1.428286	673.302421	4.787389	12.846974	0.157352	-1.908054	0.711031
1.370	3.773836	-1.373007	673.582053	4.909293	12.780195	0.168393	-1.897348	0.728834
1.380	3.789005	-1.309437	673.693240	5.028307	12.689938	0.178563	-1.883637	0.746379
1.390	3.824849	-1.235684	673.631462	5.142625	12.576830	0.185746	-1.867019	0.763418
1.400	3.882024	-1.152337	673.437154	5.251149	12.448459	0.188298	-1.848496	0.779753
1.410	3.955699	-1.064065	673.181468	5.353380	12.316428	0.185563	-1.829585	0.795236
1.420	4.037887	-0.979219	672.942349	5.449108	12.192525	0.178008	-1.811823	0.809744
1.430	4.120034	-0.907309	672.779595	5.538202	12.085325	0.166958	-1.796328	0.823182
1.440	4.195164	-0.855362	672.717657	5.620670	11.998290	0.154127	-1.783555	0.835517
1.450	4.258990	-0.824959	672.741859	5.696921	11.929822	0.141172	-1.773313	0.846821
1.460	4.309697	-0.811616	672.808523	5.767896	11.875080	0.129394	-1.765001	0.857286
1.470	4.346701	-0.806856	672.864068	5.834774	11.828747	0.119604	-1.757970	0.867155
1.480	4.369319	-0.801684	672.865261	5.898285	11.787663	0.112142	-1.751861	0.876592
1.490	4.376075	-0.789599	672.793645	5.958110	11.752248	0.107018	-1.746783	0.885578
1.500	4.364829	-0.768149	672.660456	6.012921	11.726130	0.104045	-1.743247	0.893901
1.510	4.333458	-0.739115	672.501773	6.061195	11.714172	0.102903	-1.741880	0.901291
1.520	4.280921	-0.707716	672.365635	6.102352	11.719834	0.103090	-1.743074	0.907594
1.530	4.208396	-0.680998	672.294326	6.137444	11.743137	0.103887	-1.746726	0.912910
1.540	4.119935	-0.665668	672.307553	6.168930	11.780197	0.104430	-1.752204	0.917576
1.550	4.022140	-0.666015	672.394204	6.199682	11.824571	0.103935	-1.758577	0.922031
1.560	3.922871	-0.682769	672.517710	6.231863	11.869781	0.101957	-1.764977	0.926647
1.570	3.829561	-0.713405	672.632666	6.266222	11.911808	0.098535	-1.770923	0.931596
1.580	3.747818	-0.753601	672.704089	6.301972	11.950460	0.094133	-1.776481	0.936812
1.590	3.680701	-0.798966	672.720216	6.337128	11.989128	0.089468	-1.782186	0.942015
1.600	3.628609	-0.846095	672.694329	6.369151	12.033164	0.085332	-1.788801	0.946812
1.610	3.589582	-0.892712	672.656570	6.395768	12.087589	0.082426	-1.796993	0.950822
1.620	3.559763	-0.937275	672.640003	6.415812	12.154998	0.081161	-1.807058	0.953825
1.630	3.533874	-0.978634	672.666229	6.429773	12.234482	0.081463	-1.818804	0.955864
1.640	3.505651	-1.015849	672.735830	6.439766	12.322091	0.082706	-1.831639	0.957250
1.650	3.468383	-1.047990	672.827897	6.448784	12.412744	0.083852	-1.844862	0.958460
1.660	3.415704	-1.073964	672.909556	6.459576	12.502781	0.083752	-1.858018	0.959947
1.670	3.342568	-1.092718	672.951622	6.473723	12.591896	0.081472	-1.871144	0.961989
1.680	3.246106	-1.103918	672.942787	6.491326	12.683403	0.076583	-1.884767	0.964618
1.690	3.126060	-1.108517	672.895050	6.511314	12.782620	0.069328	-1.899645	0.967657
1.700	2.984789	-1.108534	672.837494	6.532138	12.894121	0.060625	-1.916380	0.970834
1.710	2.827125	-1.106110	672.801700	6.552576	13.019203	0.051856	-1.935073	0.973924
1.720	2.660204	-1.102807	672.806412	6.572345	13.154789	0.044498	-1.955212	0.976855
1.730	2.493041	-1.100039	672.849165	6.592263	13.294221	0.039723	-1.975810	0.979753
1.740	2.335375	-1.100366	672.908513	6.613931	13.429425	0.038142	-1.995728	0.982887
1.750	2.195729	-1.108192	672.955001	6.639141	13.553321	0.039731	-2.014001	0.986565
1.760	2.079274	-1.128591	672.965109	6.669296	13.661522	0.043930	-2.030049	0.991032
1.770	1.986548	-1.164422	672.931770	6.705084	13.752900	0.049795	-2.043729	0.996399
1.780	1.913826	-1.213329	672.867031	6.746480	13.829170	0.056184	-2.055260	1.002647
1.790	1.855027	-1.266575	672.796345	6.792994	13.893900	0.062007	-2.065097	1.009666
1.800	1.804185	-1.310861	672.748212	6.843917	13.951371	0.066575	-2.073788	1.017307
1.810	1.757181	-1.332742	672.744913	6.898427	14.005636	0.069953	-2.081864	1.025415
1.820	1.712032	-1.323822	672.798498	6.955518	14.059877	0.073100	-2.089760	1.033819
1.830	1.667998	-1.284327	672.912251	7.013798	14.116078	0.077593	-2.097759	1.042305
1.840	1.624477	-1.223385	673.084088	7.071322	14.174906	0.084962	-2.105964	1.050585
1.850	1.580632	-1.155863	673.307306	7.125751	14.235685	0.095906	-2.114292	1.058321
1.860	1.536025	-1.097194	673.566568	7.175059	14.296318	0.109787	-2.122480	1.065234
1.870	1.491683	-1.058413	673.831486	7.218527	14.353149	0.124695	-2.130080	1.071266
1.880	1.450620	-1.043177	674.053537	7.257367	14.400967	0.138094	-2.136472	1.076675
1.890	1.417338	-1.047449	674.172105	7.294457	14.433531	0.147768	-2.140927	1.081987
1.900	1.396655	-1.061507	674.131608	7.333336	14.444755	0.152646	-2.142720	1.087820
1.910	1.392654	-1.073371	673.905411	7.377065	14.430316	0.153088	-2.141297	1.094674
1.920	1.408260	-1.072575	673.515856	7.427570	14.389057	0.150550	-2.136410	1.102806
1.930	1.445252	-1.053233	673.038095	7.485542	14.323542	0.146836	-2.128192	1.112202
1.940	1.504048	-1.015567	672.581894	7.550662	14.239476	0.143366	-2.117136	1.122638
1.950	1.582926	-0.965448	672.257501	7.621873	14.144148	0.140753	-2.103978	1.133773
1.960	1.677144	-0.912245	672.140725	7.697526	14.044437	0.138775	-2.089508	1.145225
1.970	1.778962	-0.865975	672.251972	7.775408	13.945074	0.136699	-2.074382	1.156621
1.980	1.879271	-0.834806	672.555265	7.852765	13.847757	0.133829	-2.058977	1.167601
1.990	1.970463	-0.823438	672.973414	7.926483	13.751267	0.130042	-2.043360	1.177830
2.000	2.049287	-0.832380	673.410768	7.993528	13.652310	0.126025	-2.027338	1.187021
2.010	2.118311	-0.858115	673.775915	8.051627	13.546638	0.123007	-2.010555	1.195001
2.020	2.185286	-0.894184	673.999975	8.099967	13.430166	0.122131	-1.992606	1.201776
2.030	2.260588	-0.932912	674.048561	8.139570	13.300009	0.123845	-1.973153	1.207564
2.040	2.353695	-0.967050	673.926363	8.173103	13.155400	0.127665	-1.952053	1.212759
2.050	2.470065	-0.990739	673.673657	8.204206	12.998205	0.132384	-1.929451	1.217831
2.060	2.609680	-1.000017	673.355310	8.236666	12.832663	0.136497	-1.905779	1.223227
2.070	2.767661	-0.993529	673.044951	8.273772	12.664269	0.138627	-1.881638	1.229305
2.080	2.936303	-0.973515	672.808165	8.317992	12.498257	0.137816	-1.857626	1.236310
2.090	3.107364	-0.946095	672.688506	8.370925	12.338368	0.133707	-1.834187	1.244398
2.100	3.273820	-0.919704	672.699353	8.433288	12.186348	0.126579	-1.811559	1.253649
2.110	3.430927	-0.901807	672.823174	8.504662	12.042176	0.117190	-1.789798	1.264026
2.120	3.576527	-0.895516	673.017522	8.583016	11.904808	0.106486	-1.768871	1.275304
2.130	3.710420	-0.898028	673.225342	8.664484	11.773116	0.095366	-1.748763	1.287011
2.140	3.833011	-0.901734	673.387162	8.743918	11.646734	0.084627	-1.729575	1.298498
2.150	3.944008	-0.897461	673.453988	8.816254	11.526551	0.075074	-1.711557	1.309110
2.160	4.041897	-0.878476	673.399773	8.878086	11.414705	0.067577	-1.695086	1.318397
2.170	4.124194	-0.843748	673.230217	8.928757	11.314095	0.062962	-1.680569	1.326256
2.180	4.188006	-0.799048	672.983169	8.970494	11.227576	0.061795	-1.668329	1.332945
2.190	4.230555	-0.755171	672.718112	9.007511	11.157202	0.064241	-1.658526	1.338973
2.200	4.249717	-0.723958	672.497763	9.044435	11.103857	0.070064	-1.651137	1.344902
2.210	4.244896	-0.714071	672.369313	9.084684	11.067330	0.078680	-1.646019	1.351145
2.220	4.218201	-0.728466	672.352933	9.129460	11.046562	0.089181	-1.642971	1.357838
2.230	4.175270	-0.764162	672.440838	9.177689	11.039802	0.100353	-1.641751	1.364832
2.240	4.124791	-0.813600	672.605003	9.226797	11.044694	0.110781	-1.642077	1.371800
2.250	4.076269	-0.866631	672.808696	9.273947	11.058618	0.119077	-1.643650	1.378393
2.260	4.036630	-0.912666	673.016806	9.317255	11.079369	0.124163	-1.646225	1.384401
2.270	4.007239	-0.942803	673.201487	9.356541	11.105909	0.125512	-1.649715	1.389857
2.280	3.983048	-0.951643	673.342506	9.393372	11.138703	0.123244	-1.654240	1.395036
2.290	3.954562	-0.938472	673.424943	9.430452	11.179370	0.118117	-1.660077	1.400372
2.300	3.911707	-0.907562	673.438268	9.470660	11.229799	0.111403	-1.667532	1.406315
2.310	3.847746	-0.867374	673.378806	9.516121	11.291233	0.104698	-1.676803	1.413190
2.320	3.761707	-0.828559	673.253782	9.567599	11.363798	0.099615	-1.687892	1.421098
2.330	3.658661	-0.801222	673.083240	9.624443	11.446667	0.097438	-1.700632	1.429904
2.340	3.547984	-0.792312	672.897550	9.685053	11.538585	0.098850	-1.714761	1.439306
2.350	3.440132	-0.803943	672.731386	9.747586	11.638297	0.103845	-1.730006	1.448957
2.360	3.342952	-0.833050	672.616575	9.810444	11.744547	0.111795	-1.746098	1.458549
2.370	3.259037	-0.872503	672.575254	9.872355	11.855796	0.121618	-1.762746	1.467844
2.380	3.185559	-0.913350	672.613640	9.932198	11.970045	0.132003	-1.779632	1.476657
2.390	3.116738	-0.947332	672.717799	9.988931	12.085070	0.141621	-1.796455	1.484862
2.400	3.047370	-0.968591	672.854540	10.041747	12.198933	0.149335	-1.813012	1.492410
