Time[s]	Fx[N]	Fy[N]	Fz[N]	Mx[Nm]	My[Nm]	Mz[Nm]	COPx[cm]	COPy[cm]
0.010	1.077308	-7.006277	652.252215	-0.340526	7.433161	0.667199	-1.139615	-0.052208
0.020	1.258215	-6.947601	651.576088	-0.325208	7.367247	0.676596	-1.130681	-0.049911
0.030	1.427111	-6.891455	650.986182	-0.306074	7.303376	0.685713	-1.121894	-0.047017
0.040	1.575702	-6.838088	650.544762	-0.279928	7.243410	0.694181	-1.113438	-0.043030
0.050	1.701244	-6.784454	650.275813	-0.245057	7.188950	0.701631	-1.105523	-0.037685
0.060	1.806312	-6.725307	650.166047	-0.201621	7.140714	0.707858	-1.098291	-0.031011
0.070	1.896698	-6.656002	650.176848	-0.151490	7.097809	0.713021	-1.091674	-0.023300
0.080	1.978506	-6.575640	650.259394	-0.097612	7.057536	0.717757	-1.085342	-0.015011
0.090	2.055495	-6.488765	650.367225	-0.043199	7.016169	0.723039	-1.078801	-0.006642
0.100	2.127418	-6.404442	650.464657	0.008931	6.970582	0.729796	-1.071631	0.001373
0.110	2.189672	-6.332889	650.531217	0.056746	6.919921	0.738458	-1.063734	0.008723
0.120	2.234353	-6.281167	650.562053	0.099165	6.866335	0.748667	-1.055447	0.015243
0.130	2.252635	-6.249918	650.564338	0.136067	6.814189	0.759289	-1.047427	0.020915
0.140	2.238080	-6.232727	650.550986	0.168102	6.768093	0.768729	-1.040363	0.025840
0.150	2.189945	-6.218533	650.534511	0.196350	6.730706	0.775429	-1.034642	0.030183
0.160	2.115148	-6.196199	650.524039	0.221954	6.701379	0.778400	-1.030151	0.034119
0.170	2.027928	-6.159348	650.526543	0.245938	6.676210	0.777613	-1.026278	0.037806
0.180	1.947139	-6.109234	650.550095	0.269185	6.649382	0.774075	-1.022117	0.041378
0.190	1.891928	-6.054199	650.605148	0.292390	6.615164	0.769558	-1.016771	0.044941
0.200	1.876954	-6.005862	650.701187	0.315857	6.569741	0.766063	-1.009640	0.048541
0.210	1.908555	-5.973877	650.839782	0.339267	6.512289	0.765210	-1.000598	0.052128
0.220	1.983175	-5.961783	651.008490	0.361612	6.445132	0.767768	-0.990023	0.055546
0.230	2.088603	-5.965856	651.180640	0.381436	6.373130	0.773439	-0.978704	0.058576
0.240	2.207543	-5.977326	651.322735	0.397300	6.302502	0.780957	-0.967647	0.060999
0.250	2.322367	-5.986788	651.406135	0.408205	6.239289	0.788461	-0.957819	0.062665
0.260	2.419762	-5.988768	651.416766	0.413741	6.187868	0.794064	-0.949909	0.063514
0.270	2.494037	-5.984376	651.358258	0.413982	6.150014	0.796459	-0.944183	0.063557
0.280	2.547960	-5.980856	651.248536	0.409443	6.124827	0.795384	-0.940475	0.062870
0.290	2.590657	-5.988164	651.113289	0.401347	6.109400	0.791747	-0.938301	0.061640
0.300	2.633201	-6.014045	650.979359	0.392067	6.099819	0.787341	-0.937022	0.060227
0.310	2.683615	-6.059682	650.869047	0.385226	6.092170	0.784195	-0.936005	0.059186
0.320	2.743243	-6.117838	650.795932	0.385046	6.083454	0.783828	-0.934771	0.059165
0.330	2.805771	-6.174473	650.763788	0.394977	6.072344	0.786686	-0.933110	0.060694
0.340	2.859165	-6.213378	650.769329	0.416177	6.059604	0.791958	-0.931145	0.063952
0.350	2.889839	-6.221969	650.806602	0.446632	6.047964	0.797832	-0.929303	0.068627
0.360	2.887546	-6.195748	650.869574	0.481455	6.041404	0.802118	-0.928205	0.073971
0.370	2.849262	-6.139650	650.951677	0.514445	6.044024	0.803019	-0.928490	0.079030
0.380	2.780544	-6.066016	651.044083	0.540346	6.058791	0.799748	-0.930627	0.082997
0.390	2.693782	-5.990498	651.134996	0.556907	6.086431	0.792738	-0.934742	0.085529
0.400	2.604107	-5.927780	651.210769	0.565780	6.124670	0.783322	-0.940505	0.086881
0.410	2.524971	-5.888538	651.258476	0.571803	6.168115	0.773092	-0.947107	0.087800
0.420	2.465500	-5.877862	651.268866	0.581005	6.209050	0.763278	-0.953377	0.089211
0.430	2.430392	-5.894619	651.238099	0.598313	6.239232	0.754477	-0.958057	0.091873
0.440	2.421318	-5.931494	651.167806	0.626070	6.252280	0.746792	-0.960164	0.096146
0.450	2.438059	-5.976141	651.065231	0.663936	6.245809	0.740193	-0.959321	0.101977
0.460	2.478382	-6.013972	650.945184	0.709967	6.222379	0.734774	-0.955899	0.109067
0.470	2.537195	-6.032040	650.832310	0.762074	6.188843	0.730778	-0.950912	0.117092
0.480	2.606321	-6.022368	650.759275	0.818979	6.154316	0.728483	-0.945713	0.125850
0.490	2.675777	-5.983054	650.757720	0.880281	6.127506	0.728139	-0.941596	0.135270
0.500	2.736170	-5.916883	650.843906	0.945852	6.114375	0.730032	-0.939453	0.145327
0.510	2.780732	-5.828821	651.006086	1.015167	6.116979	0.734588	-0.939619	0.155938
0.520	2.805629	-5.724192	651.201759	1.087080	6.133844	0.742331	-0.941927	0.166934
0.530	2.808674	-5.608323	651.368817	1.160241	6.161543	0.753631	-0.945938	0.178124
0.540	2.788016	-5.487033	651.447178	1.233923	6.196613	0.768351	-0.951207	0.189413
0.550	2.742357	-5.366809	651.400998	1.308620	6.236895	0.785601	-0.957459	0.200893
0.560	2.672723	-5.254040	651.230594	1.385824	6.281765	0.803762	-0.964599	0.212801
0.570	2.584393	-5.153579	650.969297	1.466891	6.331310	0.820804	-0.972597	0.225339
0.580	2.487286	-5.067374	650.669236	1.551583	6.385111	0.834803	-0.981314	0.238460
0.590	2.394098	-4.994028	650.384639	1.637184	6.441420	0.844428	-0.990402	0.251725
0.600	2.316832	-4.929891	650.159544	1.718759	6.497208	0.849208	-0.999325	0.264360
0.610	2.263294	-4.871478	650.022399	1.790534	6.549054	0.849461	-1.007512	0.275457
0.620	2.235091	-4.817954	649.986413	1.847769	6.594483	0.845967	-1.014557	0.284278
0.630	2.227737	-4.772086	650.052508	1.888264	6.633218	0.839532	-1.020413	0.290479
0.640	2.232486	-4.739023	650.211426	1.912807	6.667735	0.830684	-1.025472	0.294182
0.650	2.238882	-4.723617	650.443535	1.924473	6.702733	0.819622	-1.030487	0.295871
0.660	2.237163	-4.727866	650.718040	1.927215	6.743552	0.806401	-1.036325	0.296167
0.670	2.220204	-4.749765	650.994924	1.924393	6.794148	0.791186	-1.043656	0.295608
0.680	2.185064	-4.784137	651.231658	1.917760	6.855490	0.774415	-1.052696	0.294482
0.690	2.134037	-4.825021	651.393234	1.907145	6.925026	0.756821	-1.063110	0.292779
0.700	2.074682	-4.868375	651.461367	1.890785	6.997424	0.739426	-1.074112	0.290237
0.710	2.018258	-4.913569	651.438726	1.865987	7.066279	0.723507	-1.084719	0.286441
0.720	1.976553	-4.962909	651.346720	1.829831	7.126125	0.710443	-1.094060	0.280930
0.730	1.958002	-5.019746	651.218461	1.779735	7.174084	0.701326	-1.101640	0.273293
0.740	1.964648	-5.086520	651.090023	1.713906	7.210676	0.696438	-1.107478	0.263236
0.750	1.991316	-5.163802	650.992366	1.631704	7.239572	0.694916	-1.112083	0.250649
0.760	2.027456	-5.250452	650.944807	1.533879	7.266425	0.694848	-1.116289	0.235639
0.770	2.060762	-5.344309	650.950743	1.422600	7.297201	0.693809	-1.121007	0.218542
0.780	2.080941	-5.442788	650.997125	1.301166	7.336619	0.689603	-1.126982	0.199873
0.790	2.082110	-5.543268	651.059065	1.173391	7.387213	0.680892	-1.134646	0.180228
0.800	2.063395	-5.643572	651.108934	1.042807	7.449150	0.667544	-1.144071	0.160159
0.810	2.028217	-5.742650	651.126629	0.912006	7.520592	0.650630	-1.155012	0.140066
0.820	1.983001	-5.840909	651.105928	0.782328	7.598284	0.632128	-1.166981	0.120154
0.830	1.935638	-5.939568	651.053107	0.653938	7.678219	0.614405	-1.179354	0.100443
0.840	1.893754	-6.039194	650.978603	0.526173	7.756504	0.599608	-1.191514	0.080828
0.850	1.862856	-6.138448	650.887640	0.398015	7.830379	0.589106	-1.203031	0.061150
0.860	1.844572	-6.234068	650.777025	0.268616	7.899094	0.583149	-1.213794	0.041276
0.870	1.835486	-6.322189	650.641193	0.137803	7.964140	0.580869	-1.224045	0.021180
0.880	1.827255	-6.400237	650.483691	0.006524	8.028666	0.580633	-1.234261	0.001003
0.890	1.808511	-6.468293	650.325787	-0.122867	8.096426	0.580671	-1.244980	-0.018893
0.900	1.768197	-6.529138	650.205210	-0.246648	8.170827	0.579746	-1.256654	-0.037934
0.910	1.699017	-6.586943	650.164216	-0.360283	8.254295	0.577584	-1.269571	-0.055414
0.920	1.599549	-6.645227	650.232525	-0.459438	8.347729	0.574899	-1.283807	-0.070658
0.930	1.474444	-6.705028	650.412933	-0.541097	8.449795	0.573013	-1.299143	-0.083193
0.940	1.333174	-6.764011	650.675545	-0.604234	8.556338	0.573219	-1.314993	-0.092863
0.950	1.188191	-6.816859	650.963007	-0.649742	8.660570	0.576125	-1.330424	-0.099812
0.960	1.052904	-6.856839	651.205306	-0.679744	8.754401	0.581276	-1.344338	-0.104382
0.970	0.939494	-6.878006	651.339316	-0.696705	8.830580	0.587250	-1.355757	-0.106965
0.980	0.856735	-6.877181	651.326415	-0.702768	8.884747	0.592276	-1.364100	-0.107898
0.990	0.808426	-6.854850	651.162730	-0.699504	8.916496	0.595134	-1.369319	-0.107424
1.000	0.793110	-6.814746	650.879454	-0.688039	8.929041	0.595903	-1.371842	-0.105709
1.010	0.805151	-6.762627	650.533491	-0.669269	8.927660	0.596171	-1.372360	-0.102880
1.020	0.836600	-6.704995	650.191361	-0.643865	8.917675	0.598540	-1.371546	-0.099027
1.030	0.879052	-6.648098	649.912061	-0.611937	8.902868	0.605645	-1.369857	-0.094157
1.040	0.925151	-6.596891	649.735043	-0.572659	8.884951	0.619074	-1.367473	-0.088137
1.050	0.969713	-6.553682	649.676382	-0.524350	8.864088	0.638638	-1.364385	-0.080709
1.060	1.010232	-6.516812	649.731989	-0.465289	8.839948	0.662271	-1.360553	-0.071613
1.070	1.046418	-6.480356	649.884100	-0.394953	8.812698	0.686633	-1.356041	-0.060773
1.080	1.078928	-6.435621	650.107370	-0.315007	8.783524	0.708219	-1.351088	-0.048455
1.090	1.108251	-6.374174	650.372451	-0.229405	8.754521	0.724516	-1.346078	-0.035273
1.100	1.134620	-6.291155	650.647124	-0.143388	8.727984	0.734761	-1.341431	-0.022038
1.110	1.158937	-6.187295	650.896926	-0.061790	8.705404	0.739964	-1.337447	-0.009493
1.120	1.183752	-6.068785	651.087767	0.012561	8.686656	0.742284	-1.334176	0.001929
1.130	1.213496	-5.945216	651.191394	0.079476	8.669826	0.744058	-1.331379	0.012205
1.140	1.253826	-5.826651	651.192040	0.140739	8.651806	0.746964	-1.328611	0.021613
1.150	1.310354	-5.721102	651.091703	0.198590	8.629408	0.751625	-1.325375	0.030501
1.160	1.386882	-5.633298	650.912276	0.254353	8.600507	0.757734	-1.321300	0.039076
1.170	1.483251	-5.564851	650.693494	0.307979	8.564743	0.764514	-1.316248	0.047331
1.180	1.593466	-5.515156	650.486178	0.358437	8.523588	0.771203	-1.310341	0.055103
1.190	1.705336	-5.482243	650.341674	0.404278	8.479828	0.777335	-1.303903	0.062164
1.200	1.802778	-5.463206	650.299891	0.443825	8.436757	0.782744	-1.297364	0.068249
1.210	1.870759	-5.454367	650.378622	0.475021	8.397370	0.787417	-1.291151	0.073038
1.220	1.901196	-5.451469	650.566712	0.495289	8.363734	0.791366	-1.285607	0.076132
1.230	1.897073	-5.450090	650.824197	0.501836	8.336557	0.794621	-1.280923	0.077108
1.240	1.872420	-5.446371	651.091604	0.492491	8.314893	0.797269	-1.277070	0.075641
1.250	1.847812	-5.438035	651.306191	0.466825	8.296063	0.799435	-1.273758	0.071675
1.260	1.843341	-5.425322	651.418093	0.426967	8.275980	0.801166	-1.270456	0.065544
1.270	1.872259	-5.411224	651.399599	0.377438	8.250002	0.802368	-1.266504	0.057943
1.280	1.937764	-5.400634	651.246496	0.323842	8.214173	0.802874	-1.261300	0.049726
1.290	2.033558	-5.398683	650.975499	0.270908	8.166463	0.802608	-1.254496	0.041616
1.300	2.146993	-5.408894	650.621303	0.220863	8.107605	0.801693	-1.246133	0.033946
1.310	2.262873	-5.431952	650.233117	0.172893	8.041289	0.800414	-1.236678	0.026589
1.320	2.366435	-5.465762	649.869067	0.123845	7.973671	0.799055	-1.226966	0.019057
1.330	2.445053	-5.506966	649.588661	0.069703	7.912270	0.797687	-1.218043	0.010730
1.340	2.489010	-5.553120	649.444698	0.007076	7.864457	0.796047	-1.210951	0.001089
1.350	2.492176	-5.604228	649.474789	-0.065899	7.835820	0.793583	-1.206486	-0.010147
1.360	2.453255	-5.662743	649.692002	-0.149414	7.828831	0.789685	-1.205007	-0.022998
1.370	2.377466	-5.732115	650.076461	-0.242364	7.842211	0.783984	-1.206352	-0.037282
1.380	2.277380	-5.814762	650.572535	-0.342831	7.871199	0.776552	-1.209888	-0.052697
1.390	2.171516	-5.910392	651.096060	-0.448387	7.908670	0.767842	-1.214670	-0.068867
1.400	2.080423	-6.015222	651.552360	-0.556235	7.946822	0.758399	-1.219675	-0.085371
1.410	2.021683	-6.122337	651.860813	-0.663413	7.979085	0.748519	-1.224047	-0.101772
1.420	2.005894	-6.223241	651.977847	-0.767206	8.001789	0.738124	-1.227310	-0.117674
1.430	2.034945	-6.310191	651.909013	-0.865662	8.015149	0.726943	-1.229489	-0.132789
1.440	2.102341	-6.378400	651.704114	-0.957941	8.023156	0.714871	-1.231104	-0.146990
1.450	2.194515	-6.427302	651.436930	-1.044266	8.032304	0.702271	-1.233013	-0.160302
1.460	2.292487	-6.460719	651.178947	-1.125498	8.049573	0.690066	-1.236154	-0.172840
1.470	2.374205	-6.486196	650.978412	-1.202554	8.080439	0.679586	-1.241276	-0.184730
1.480	2.418266	-6.513457	650.851354	-1.275939	8.127575	0.672191	-1.248761	-0.196041
1.490	2.408893	-6.551853	650.784704	-1.345531	8.190479	0.668756	-1.258554	-0.206755
1.500	2.340692	-6.607346	650.747741	-1.410676	8.265871	0.669171	-1.270211	-0.216778
1.510	2.221124	-6.680456	650.706903	-1.470512	8.348543	0.672153	-1.282996	-0.225987
1.520	2.069353	-6.766249	650.639363	-1.524362	8.432436	0.675523	-1.296023	-0.234287
1.530	1.911636	-6.856188	650.541814	-1.571961	8.511805	0.676899	-1.308418	-0.241639
1.540	1.774566	-6.940668	650.432183	-1.613341	8.582383	0.674493	-1.319489	-0.248041
1.550	1.677892	-7.011214	650.343507	-1.648427	8.642376	0.667698	-1.328894	-0.253470
1.560	1.628712	-7.061916	650.311736	-1.676618	8.693002	0.657243	-1.336744	-0.257818
1.570	1.618968	-7.090054	650.362287	-1.696625	8.738210	0.644900	-1.343591	-0.260874
1.580	1.627741	-7.095992	650.501175	-1.706734	8.783411	0.632853	-1.350253	-0.262372
1.590	1.628343	-7.082635	650.713525	-1.705420	8.833477	0.622948	-1.357506	-0.262085
1.600	1.597928	-7.054784	650.967537	-1.692151	8.890743	0.616055	-1.365774	-0.259944
1.610	1.525849	-7.018461	651.220428	-1.668084	8.953876	0.611837	-1.374938	-0.256147
1.620	1.417473	-6.979916	651.425385	-1.636275	9.018173	0.609086	-1.384375	-0.251184
1.630	1.292288	-6.944222	651.540546	-1.601073	9.077080	0.606471	-1.393172	-0.245736
1.640	1.177534	-6.913939	651.539238	-1.566786	9.124205	0.603260	-1.400408	-0.240475
1.650	1.100022	-6.888555	651.417957	-1.536270	9.155002	0.599630	-1.405396	-0.235835
1.660	1.078843	-6.864955	651.198622	-1.510264	9.167639	0.596430	-1.407810	-0.231921
1.670	1.120788	-6.838670	650.924255	-1.487853	9.162913	0.594635	-1.407677	-0.228575
1.680	1.219217	-6.805446	650.649814	-1.467658	9.143432	0.594853	-1.405277	-0.225568
1.690	1.356284	-6.762713	650.430905	-1.448906	9.112530	0.597135	-1.400999	-0.222761
1.700	1.507813	-6.710546	650.312504	-1.431739	9.073498	0.601096	-1.395252	-0.220162
1.710	1.649529	-6.651755	650.318952	-1.416704	9.029430	0.606229	-1.388462	-0.217848
1.720	1.762828	-6.590996	650.446743	-1.403909	8.983448	0.612172	-1.381120	-0.215838
1.730	1.838399	-6.533135	650.662885	-1.392472	8.938759	0.618762	-1.373793	-0.214008
1.740	1.876818	-6.481507	650.911714	-1.380585	8.898177	0.625851	-1.367033	-0.212100
1.750	1.886346	-6.436804	651.130188	-1.366107	8.863316	0.633105	-1.361220	-0.209805
1.760	1.879125	-6.397071	651.267100	-1.347325	8.834020	0.640004	-1.356436	-0.206878
1.770	1.867303	-6.358830	651.298770	-1.323512	8.808473	0.646103	-1.352447	-0.203211
1.780	1.860353	-6.318826	651.234623	-1.295054	8.783962	0.651358	-1.348817	-0.198861
1.790	1.864063	-6.275658	651.110497	-1.263087	8.757858	0.656271	-1.345065	-0.193990
1.800	1.880955	-6.230587	650.972999	-1.228767	8.728380	0.661711	-1.340821	-0.188758
1.810	1.911223	-6.187254	650.861758	-1.192518	8.694883	0.668503	-1.335903	-0.183221
1.820	1.953264	-6.150474	650.796463	-1.153707	8.657789	0.676988	-1.330337	-0.177276
1.830	2.003597	-6.124512	650.773067	-1.110938	8.618392	0.686807	-1.324331	-0.170710
1.840	2.056854	-6.111318	650.770157	-1.062878	8.578773	0.697032	-1.318249	-0.163326
1.850	2.106554	-6.109260	650.762842	-1.009218	8.541831	0.706590	-1.312587	-0.155082
1.860	2.146532	-6.112944	650.738103	-0.951299	8.511275	0.714715	-1.307942	-0.146188
1.870	2.172176	-6.114397	650.704152	-0.892162	8.491382	0.721206	-1.304953	-0.137107
1.880	2.180847	-6.105376	650.688673	-0.836011	8.486446	0.726390	-1.304225	-0.128481
1.890	2.171574	-6.079991	650.726050	-0.787254	8.499968	0.730891	-1.306228	-0.120981
1.900	2.144502	-6.036805	650.838973	-0.749283	8.533752	0.735354	-1.311193	-0.115126
1.910	2.100461	-5.979863	651.022821	-0.723326	8.587123	0.740285	-1.319020	-0.111106
1.920	2.040972	-5.918341	651.240888	-0.707973	8.656513	0.746020	-1.329234	-0.108711
1.930	1.968978	-5.864597	651.434218	-0.699841	8.735589	0.752758	-1.340978	-0.107431
1.940	1.890053	-5.830811	651.542326	-0.695181	8.816026	0.760532	-1.353101	-0.106698
1.950	1.813158	-5.825226	651.524696	-0.691581	8.888854	0.769096	-1.364316	-0.106148
1.960	1.749933	-5.849518	651.372736	-0.688775	8.946158	0.777804	-1.373431	-0.105742
1.970	1.712247	-5.898410	651.108102	-0.688134	8.982702	0.785623	-1.379602	-0.105687
1.980	1.708762	-5.961571	650.770884	-0.691250	8.997029	0.791326	-1.382519	-0.106220
1.990	1.741858	-6.026804	650.405393	-0.698532	8.991637	0.793820	-1.382467	-0.107400
2.000	1.806247	-6.083101	650.050623	-0.708548	8.972146	0.792485	-1.380223	-0.108999
2.010	1.889936	-6.122573	649.738478	-0.718292	8.945664	0.787397	-1.376810	-0.110551
2.020	1.977236	-6.141156	649.497863	-0.724085	8.918856	0.779335	-1.373193	-0.111484
2.030	2.052733	-6.138666	649.359007	-0.722700	8.896353	0.769603	-1.370021	-0.111294
2.040	2.104942	-6.118664	649.352047	-0.712330	8.880043	0.759708	-1.367524	-0.109699
2.050	2.128641	-6.088019	649.498000	-0.693133	8.869439	0.751004	-1.365584	-0.106718
2.060	2.125277	-6.055795	649.796328	-0.667240	8.862777	0.744336	-1.363932	-0.102684
2.070	2.101417	-6.031264	650.216727	-0.638256	8.858158	0.739831	-1.362339	-0.098161
2.080	2.065932	-6.021358	650.700909	-0.610356	8.854129	0.736932	-1.360706	-0.093800
2.090	2.027322	-6.028251	651.174743	-0.587189	8.849567	0.734715	-1.359016	-0.090174
2.100	1.992466	-6.048048	651.566141	-0.570948	8.843256	0.732356	-1.357231	-0.087627
2.110	1.967039	-6.071454	651.822044	-0.561909	8.833711	0.729553	-1.355234	-0.086206
2.120	1.956579	-6.086731	651.919277	-0.558546	8.819562	0.726678	-1.352861	-0.085677
2.130	1.966733	-6.084197	651.866879	-0.558035	8.800352	0.724562	-1.350023	-0.085606
2.140	2.002014	-6.060565	651.700285	-0.556904	8.777295	0.723971	-1.346830	-0.085454
2.150	2.063568	-6.021011	651.469930	-0.551632	8.753484	0.725032	-1.343651	-0.084675
2.160	2.147345	-5.977636	651.228335	-0.539232	8.733298	0.726923	-1.341050	-0.082802
2.170	2.243947	-5.944698	651.019246	-0.517867	8.721227	0.728058	-1.339627	-0.079547
2.180	2.340379	-5.932856	650.870225	-0.487388	8.720637	0.726705	-1.339843	-0.074882
2.190	2.422823	-5.945253	650.788926	-0.449488	8.732996	0.721763	-1.341909	-0.069068
2.200	2.479288	-5.977143	650.764378	-0.407353	8.757789	0.713303	-1.345770	-0.062596
2.210	2.501452	-6.018689	650.774635	-0.364973	8.793059	0.702612	-1.351168	-0.056083
2.220	2.485668	-6.059069	650.798599	-0.326480	8.836373	0.691758	-1.357774	-0.050166
2.230	2.433247	-6.090070	650.825765	-0.295740	8.885911	0.682875	-1.365329	-0.045441
2.240	2.350112	-6.108188	650.857877	-0.276107	8.941175	0.677460	-1.373752	-0.042422
2.250	2.245885	-6.115092	650.901709	-0.269993	9.002832	0.675877	-1.383132	-0.041480
2.260	2.132521	-6.116614	650.958285	-0.278037	9.071687	0.677275	-1.393590	-0.042712
2.270	2.022499	-6.120573	651.016486	-0.298182	9.147340	0.679934	-1.405086	-0.045802
2.280	1.926462	-6.133968	651.056017	-0.325335	9.227292	0.681941	-1.417281	-0.049970
2.290	1.850585	-6.160285	651.057920	-0.352212	9.306990	0.681863	-1.429518	-0.054098
2.300	1.794583	-6.197884	651.015488	-0.371255	9.380818	0.679166	-1.440952	-0.057027
2.310	1.751630	-6.240215	650.938546	-0.376852	9.443673	0.674236	-1.450778	-0.057894
2.320	1.710790	-6.277911	650.848833	-0.366920	9.492465	0.668115	-1.458475	-0.056376
2.330	1.661486	-6.301933	650.769725	-0.343341	9.526849	0.662118	-1.463936	-0.052759
2.340	1.598471	-6.306509	650.716341	-0.311207	9.548893	0.657470	-1.467443	-0.047825
2.350	1.525241	-6.290749	650.691031	-0.277256	9.561919	0.655008	-1.469502	-0.042609
2.360	1.453941	-6.258370	650.685506	-0.247994	9.569175	0.654979	-1.470630	-0.038113
2.370	1.401057	-6.215786	650.687204	-0.228035	9.572911	0.656962	-1.471200	-0.035045
2.380	1.380439	-6.169461	650.685950	-0.219109	9.574147	0.660004	-1.471393	-0.033674
2.390	1.397053	-6.123708	650.677670	-0.220003	9.573017	0.662933	-1.471238	-0.033811
