Time[s]	Fx[N]	Fy[N]	Fz[N]	Mx[Nm]	My[Nm]	Mz[Nm]	COPx[cm]	COPy[cm]
0.010	1.335681	-4.533310	520.838943	1.437979	0.840282	0.323294	-0.161332	0.276089
0.020	1.352987	-4.517275	520.763749	1.463699	0.756938	0.317762	-0.145352	0.281068
0.030	1.388243	-4.496011	520.707635	1.487401	0.669606	0.314028	-0.128595	0.285650
0.040	1.452038	-4.467772	520.680174	1.508012	0.576153	0.313200	-0.110654	0.289624
0.050	1.543501	-4.436081	520.678570	1.525910	0.477038	0.315328	-0.091619	0.293062
0.060	1.651331	-4.408297	520.689627	1.542447	0.375336	0.319455	-0.072084	0.296232
0.070	1.758848	-4.392013	520.696526	1.558974	0.275778	0.324090	-0.052963	0.299402
0.080	1.850318	-4.391367	520.686157	1.575986	0.183226	0.327863	-0.035189	0.302675
0.090	1.915724	-4.405408	520.653255	1.592900	0.101248	0.330082	-0.019446	0.305943
0.100	1.952483	-4.429299	520.600812	1.608497	0.031367	0.330936	-0.006025	0.308969
0.110	1.964362	-4.457316	520.538568	1.621696	-0.026848	0.331297	0.005158	0.311542
0.120	1.958918	-4.485507	520.480988	1.632127	-0.075043	0.332270	0.014418	0.313581
0.130	1.944758	-4.512392	520.444754	1.640171	-0.115085	0.334695	0.022113	0.315148
0.140	1.929338	-4.537739	520.445104	1.646462	-0.148223	0.338813	0.028480	0.316356
0.150	1.917592	-4.560741	520.490976	1.651215	-0.174713	0.344207	0.033567	0.317242
0.160	1.911441	-4.579132	520.580111	1.653868	-0.194041	0.350009	0.037274	0.317697
0.170	1.910053	-4.589929	520.696483	1.653319	-0.205635	0.355247	0.039492	0.317521
0.180	1.910616	-4.591387	520.812406	1.648769	-0.209756	0.359203	0.040275	0.316576
0.190	1.909382	-4.584854	520.895840	1.640803	-0.208123	0.361603	0.039955	0.314996
0.200	1.902943	-4.575072	520.920662	1.632086	-0.203911	0.362609	0.039144	0.313308
0.210	1.889612	-4.568330	520.876180	1.627058	-0.201000	0.362626	0.038589	0.312370
0.220	1.870461	-4.569258	520.772557	1.630518	-0.202802	0.362054	0.038943	0.313096
0.230	1.849392	-4.578013	520.640101	1.645763	-0.211240	0.361135	0.040573	0.316104
0.240	1.831923	-4.589455	520.521895	1.673325	-0.226388	0.359993	0.043492	0.321471
0.250	1.823169	-4.594921	520.461182	1.711015	-0.246904	0.358768	0.047439	0.328750
0.260	1.826066	-4.585991	520.487063	1.755150	-0.270924	0.357696	0.052052	0.337213
0.270	1.840824	-4.558616	520.603887	1.802194	-0.296911	0.356998	0.057032	0.346174
0.280	1.865776	-4.515552	520.789326	1.849878	-0.324044	0.356666	0.062222	0.355207
0.290	1.898930	-4.465690	521.002342	1.897339	-0.352061	0.356302	0.067574	0.364171
0.300	1.939066	-4.420457	521.197056	1.944456	-0.380809	0.355144	0.073064	0.373075
0.310	1.985652	-4.389008	521.336120	1.991007	-0.409939	0.352324	0.078632	0.381905
0.320	2.037646	-4.374489	521.399009	2.036241	-0.438947	0.347256	0.084186	0.390534
0.330	2.092105	-4.373071	521.384303	2.079038	-0.467479	0.340005	0.089661	0.398753
0.340	2.143667	-4.375972	521.307460	2.118437	-0.495616	0.331423	0.095072	0.406370
0.350	2.185576	-4.373422	521.195894	2.154134	-0.523884	0.322931	0.100516	0.413306
0.360	2.212026	-4.358887	521.082492	2.186620	-0.552980	0.316016	0.106121	0.419630
0.370	2.220697	-4.331977	520.998291	2.216932	-0.583351	0.311628	0.111968	0.425516
0.380	2.214134	-4.298840	520.965335	2.246215	-0.614819	0.309798	0.118015	0.431164
0.390	2.199223	-4.269645	520.991074	2.275337	-0.646356	0.309633	0.124063	0.436732
0.400	2.184952	-4.253831	521.065797	2.304649	-0.676135	0.309711	0.129760	0.442295
0.410	2.179270	-4.255167	521.164362	2.333863	-0.701952	0.308648	0.134689	0.447817
0.420	2.186205	-4.269224	521.252839	2.362031	-0.721921	0.305605	0.138497	0.453145
0.430	2.204536	-4.284921	521.299148	2.387730	-0.735135	0.300566	0.141020	0.458034
0.440	2.228775	-4.289478	521.284433	2.409471	-0.742001	0.294376	0.142341	0.462218
0.450	2.252058	-4.274158	521.210244	2.426197	-0.744198	0.288529	0.142783	0.465493
0.460	2.269475	-4.237855	521.097709	2.437659	-0.744322	0.284747	0.142837	0.467793
0.470	2.280175	-4.187156	520.978931	2.444541	-0.745259	0.284428	0.143050	0.469221
0.480	2.287167	-4.133528	520.885080	2.448305	-0.749387	0.288143	0.143868	0.470028
0.490	2.294970	-4.089432	520.836493	2.450867	-0.757860	0.295374	0.145508	0.470564
0.500	2.306662	-4.064858	520.837498	2.454234	-0.770393	0.304590	0.147914	0.471209
0.510	2.322299	-4.064985	520.875907	2.460094	-0.785690	0.313652	0.150840	0.472299
0.520	2.339624	-4.089078	520.926708	2.469352	-0.802286	0.320447	0.154011	0.474031
0.530	2.356153	-4.130609	520.959709	2.481732	-0.819309	0.323591	0.157269	0.476377
0.540	2.370793	-4.178645	520.949813	2.495782	-0.836698	0.322922	0.160610	0.479083
0.550	2.383751	-4.220584	520.886462	2.509460	-0.854767	0.319536	0.164099	0.481767
0.560	2.395073	-4.245860	520.777944	2.521056	-0.873387	0.315331	0.167708	0.484094
0.570	2.403320	-4.249406	520.647957	2.529924	-0.891376	0.312236	0.171205	0.485918
0.580	2.405719	-4.233250	520.525947	2.536617	-0.906526	0.311507	0.174156	0.487318
0.590	2.399896	-4.205322	520.436811	2.542406	-0.916315	0.313381	0.176067	0.488514
0.600	2.385929	-4.176076	520.395794	2.548524	-0.918967	0.317206	0.176590	0.489728
0.610	2.367172	-4.154460	520.409680	2.555584	-0.914386	0.321902	0.175705	0.491072
0.620	2.349121	-4.144855	520.480022	2.563417	-0.904490	0.326520	0.173780	0.492510
0.630	2.336972	-4.145935	520.603509	2.571305	-0.892660	0.330632	0.171466	0.493909
0.640	2.333390	-4.151736	520.768879	2.578452	-0.882427	0.334416	0.169447	0.495124
0.650	2.337830	-4.154391	520.954263	2.584461	-0.875980	0.338378	0.168149	0.496101
0.660	2.347685	-4.147388	521.129247	2.589749	-0.873208	0.342862	0.167561	0.496949
0.670	2.360274	-4.128005	521.262275	2.595814	-0.871697	0.347624	0.167228	0.497986
0.680	2.374194	-4.098014	521.329706	2.605218	-0.867640	0.351759	0.166428	0.499726
0.690	2.389208	-4.062559	521.321957	2.621044	-0.857211	0.354117	0.164430	0.502769
0.700	2.405115	-4.027859	521.245012	2.645801	-0.837834	0.354053	0.160737	0.507593
0.710	2.420853	-3.998822	521.118516	2.680153	-0.808867	0.352057	0.155217	0.514308
0.720	2.434666	-3.977651	520.971970	2.722111	-0.771500	0.349838	0.148089	0.522506
0.730	2.445010	-3.963894	520.839356	2.767284	-0.727986	0.349699	0.139772	0.531312
0.740	2.451245	-3.955497	520.752035	2.810244	-0.680571	0.353493	0.130690	0.539651
0.750	2.453549	-3.949919	520.730473	2.846509	-0.630560	0.361756	0.121091	0.546638
0.760	2.452218	-3.944625	520.776870	2.874201	-0.577876	0.373494	0.110964	0.551906
0.770	2.446863	-3.937019	520.872357	2.894522	-0.521203	0.386671	0.100063	0.555707
0.780	2.435887	-3.924336	520.982055	2.910807	-0.458557	0.399005	0.088018	0.558715
0.790	2.416334	-3.904052	521.067232	2.926656	-0.388055	0.408631	0.074473	0.561666
0.800	2.384195	-3.874778	521.098899	2.944186	-0.308624	0.414437	0.059226	0.564996
0.810	2.335260	-3.837083	521.066374	2.963325	-0.220464	0.416165	0.042310	0.568704
0.820	2.266434	-3.793678	520.978581	2.982467	-0.125025	0.414393	0.023998	0.572474
0.830	2.177151	-3.748911	520.860283	2.999968	-0.024457	0.410351	0.004695	0.575964
0.840	2.070308	-3.707876	520.746105	3.015513	0.079286	0.405530	-0.015226	0.579075
0.850	1.952214	-3.675377	520.673048	3.030548	0.185243	0.401131	-0.035578	0.582044
0.860	1.831400	-3.654888	520.671254	3.047569	0.293737	0.397628	-0.056415	0.585315
0.870	1.716622	-3.647733	520.754350	3.068707	0.405955	0.394684	-0.077955	0.589281
0.880	1.614673	-3.652729	520.912901	3.094466	0.523006	0.391461	-0.100402	0.594047
0.890	1.528604	-3.666418	521.114522	3.123309	0.644988	0.387126	-0.123771	0.599352
0.900	1.456836	-3.683834	521.311712	3.152233	0.770619	0.381257	-0.147823	0.604673
0.910	1.393525	-3.699631	521.454810	3.177931	0.897650	0.373947	-0.172143	0.609435
0.920	1.330281	-3.709309	521.505077	3.197959	1.023787	0.365602	-0.196314	0.613217
0.930	1.258714	-3.710320	521.443125	3.211466	1.147557	0.356627	-0.220073	0.615880
0.940	1.172784	-3.702851	521.270602	3.219262	1.268602	0.347224	-0.243367	0.617580
0.950	1.069987	-3.690012	521.006418	3.223266	1.387389	0.337458	-0.266290	0.618661
0.960	0.951167	-3.676977	520.680829	3.225589	1.504675	0.327493	-0.288982	0.619494
0.970	0.819618	-3.668943	520.330248	3.227724	1.621124	0.317788	-0.311557	0.620322
0.980	0.680403	-3.668578	519.993686	3.230268	1.737160	0.309117	-0.334073	0.621213
0.990	0.540306	-3.674352	519.710025	3.233224	1.852853	0.302390	-0.356517	0.622121
1.000	0.407938	-3.680892	519.515358	3.236567	1.967710	0.298393	-0.378759	0.622997
1.010	0.292992	-3.681421	519.439920	3.240570	2.080443	0.297551	-0.400516	0.623858
1.020	0.204221	-3.671203	519.503689	3.245600	2.188950	0.299775	-0.421354	0.624750
1.030	0.146766	-3.650417	519.709888	3.251490	2.290624	0.304432	-0.440750	0.625636
1.040	0.120246	-3.625284	520.038264	3.256906	2.382865	0.310455	-0.458210	0.626282
1.050	0.118749	-3.606844	520.443142	3.259155	2.463589	0.316573	-0.473364	0.626227
1.060	0.132884	-3.607498	520.860490	3.254585	2.531560	0.321596	-0.486034	0.624848
1.070	0.152960	-3.636328	521.223049	3.239378	2.586578	0.324663	-0.496252	0.621496
1.080	0.171872	-3.694959	521.477345	3.210433	2.629531	0.325402	-0.504247	0.615642
1.090	0.186536	-3.775802	521.595522	3.166165	2.662282	0.323969	-0.510411	0.607015
1.100	0.197445	-3.863720	521.578244	3.107111	2.687257	0.320976	-0.515216	0.595713
1.110	0.206806	-3.940858	521.449638	3.036150	2.706699	0.317294	-0.519072	0.582252
1.120	0.216339	-3.993018	521.248200	2.958114	2.721706	0.313767	-0.522152	0.567506
1.130	0.225817	-4.015029	521.017501	2.878809	2.731399	0.310937	-0.524243	0.552536
1.140	0.233070	-4.012681	520.798284	2.803681	2.732692	0.308894	-0.524712	0.538343
1.150	0.235487	-4.000141	520.622060	2.736474	2.720991	0.307363	-0.522642	0.525616
1.160	0.232376	-3.993960	520.506887	2.678353	2.691752	0.305970	-0.517141	0.514566
1.170	0.226944	-4.006507	520.456966	2.627942	2.642329	0.304574	-0.507694	0.504930
1.180	0.226674	-4.041665	520.466498	2.582416	2.573255	0.303438	-0.494413	0.496173
1.190	0.241856	-4.094051	520.525204	2.539065	2.488359	0.303108	-0.478048	0.487789
1.200	0.282932	-4.151333	520.621289	2.496401	2.393643	0.304035	-0.459767	0.479504
1.210	0.357474	-4.198588	520.739990	2.454255	2.295413	0.306171	-0.440798	0.471301
1.220	0.467270	-4.223506	520.860262	2.413220	2.198441	0.308875	-0.422079	0.463314
1.230	0.606298	-4.220896	520.954336	2.374194	2.104877	0.311235	-0.404042	0.455739
1.240	0.760915	-4.194621	520.993006	2.338365	2.014301	0.312600	-0.386627	0.448829
1.250	0.913156	-4.155952	520.955356	2.307274	1.924692	0.312959	-0.369454	0.442893
1.260	1.046421	-4.119043	520.838327	2.282407	1.833717	0.312948	-0.352070	0.438218
1.270	1.151141	-4.095687	520.660985	2.264316	1.739760	0.313545	-0.334145	0.434893
1.280	1.227842	-4.091567	520.460887	2.251853	1.642405	0.315633	-0.315567	0.432665
1.290	1.286234	-4.105255	520.284049	2.242129	1.542337	0.319612	-0.296441	0.430943
1.300	1.340686	-4.129925	520.172964	2.231319	1.440945	0.325191	-0.277013	0.428957
1.310	1.403810	-4.156627	520.156868	2.215887	1.339937	0.331466	-0.257602	0.426004
1.320	1.480610	-4.177569	520.246150	2.193665	1.241110	0.337237	-0.238562	0.421659
1.330	1.565697	-4.188241	520.430913	2.164383	1.146218	0.341423	-0.220244	0.415883
1.340	1.645238	-4.188020	520.683151	2.129554	1.056814	0.343415	-0.202967	0.408992
1.350	1.703272	-4.179589	520.961847	2.091775	0.974081	0.343239	-0.186977	0.401522
1.360	1.729596	-4.167671	521.220184	2.053680	0.898749	0.341530	-0.172432	0.394014
1.370	1.725309	-4.157534	521.413994	2.016896	0.831155	0.339357	-0.159404	0.386813
1.380	1.703189	-4.153648	521.510629	1.981441	0.771403	0.337956	-0.147917	0.379943
1.390	1.682747	-4.158804	521.496810	1.945857	0.719468	0.338379	-0.137962	0.373129
1.400	1.682249	-4.173808	521.382955	1.908004	0.675108	0.341144	-0.129484	0.365951
1.410	1.711133	-4.197743	521.201383	1.866096	0.637654	0.346020	-0.122343	0.358037
1.420	1.765886	-4.228674	520.997670	1.819495	0.605908	0.352090	-0.116298	0.349233
1.430	1.830980	-4.264428	520.817748	1.768952	0.578318	0.358139	-0.111040	0.339649
1.440	1.884468	-4.303054	520.695832	1.716287	0.553344	0.363205	-0.106270	0.329614
1.450	1.906023	-4.342777	520.647868	1.663755	0.529752	0.366989	-0.101749	0.319555
1.460	1.884250	-4.381625	520.671915	1.613401	0.506595	0.369881	-0.097296	0.309869
1.470	1.820550	-4.417198	520.753157	1.566668	0.482933	0.372613	-0.092737	0.300847
1.480	1.728451	-4.446930	520.869717	1.524284	0.457536	0.375788	-0.087841	0.292642
1.490	1.629162	-4.468756	520.997007	1.486350	0.428797	0.379506	-0.082303	0.285290
1.500	1.545112	-4.481653	521.110938	1.452517	0.394957	0.383259	-0.075791	0.278735
1.510	1.493557	-4.485698	521.191489	1.422154	0.354592	0.386105	-0.068035	0.272866
1.520	1.482099	-4.481817	521.226769	1.394483	0.307235	0.387077	-0.058945	0.267539
1.530	1.507481	-4.471658	521.215612	1.368668	0.253942	0.385649	-0.048721	0.262591
1.540	1.557898	-4.457698	521.166683	1.343855	0.197459	0.382031	-0.037888	0.257855
1.550	1.617773	-4.443330	521.094271	1.319248	0.141747	0.377119	-0.027202	0.253169
1.560	1.673045	-4.432597	521.013113	1.294368	0.090909	0.372130	-0.017448	0.248433
1.570	1.714945	-4.429500	520.934597	1.269487	0.047949	0.368115	-0.009204	0.243694
1.580	1.741036	-4.437045	520.865375	1.245944	0.013893	0.365606	-0.002667	0.239207
1.590	1.753545	-4.456374	520.808351	1.225871	-0.012354	0.364582	0.002372	0.235379
1.600	1.756320	-4.486181	520.765186	1.211228	-0.033352	0.364705	0.006404	0.232586
1.610	1.752300	-4.522503	520.738619	1.202650	-0.052022	0.365652	0.009990	0.230951
1.620	1.742849	-4.559104	520.732931	1.198855	-0.070633	0.367305	0.013564	0.230225
1.630	1.728996	-4.588758	520.752232	1.196975	-0.090424	0.369728	0.017364	0.229855
1.640	1.713464	-4.605269	520.797693	1.193569	-0.111919	0.372928	0.021490	0.229181
1.650	1.701986	-4.605390	520.865043	1.185730	-0.135484	0.376583	0.026011	0.227646
1.660	1.702804	-4.589740	520.943203	1.171776	-0.161560	0.379918	0.031013	0.224934
1.670	1.723961	-4.562462	521.014775	1.151383	-0.190351	0.381892	0.036535	0.220988
1.680	1.769187	-4.529999	521.059224	1.125369	-0.221265	0.381586	0.042464	0.215977
1.690	1.834439	-4.499576	521.058882	1.095445	-0.252609	0.378578	0.048480	0.210234
1.700	1.907420	-4.477781	521.006251	1.063996	-0.281839	0.373107	0.054095	0.204219
1.710	1.970932	-4.469382	520.909253	1.033689	-0.306238	0.365994	0.058789	0.198439
1.720	2.008755	-4.476413	520.790983	1.006747	-0.323615	0.358405	0.062139	0.193311
1.730	2.011366	-4.497748	520.683056	0.984037	-0.332706	0.351540	0.063898	0.188990
1.740	1.979037	-4.529447	520.615174	0.964514	-0.333255	0.346282	0.064012	0.185264
1.750	1.921186	-4.565877	520.605521	0.945476	-0.325945	0.342893	0.062609	0.181611
1.760	1.852587	-4.601154	520.655823	0.923698	-0.312207	0.340866	0.059964	0.177410
1.770	1.788248	-4.630440	520.752566	0.896907	-0.293779	0.339103	0.056414	0.172233
1.780	1.738951	-4.650881	520.873066	0.864830	-0.271983	0.336405	0.052217	0.166035
1.790	1.708710	-4.662179	520.993392	0.829226	-0.246969	0.332087	0.047404	0.159162
1.800	1.694398	-4.666682	521.095105	0.792873	-0.217455	0.326348	0.041730	0.152155
1.810	1.687207	-4.668852	521.168884	0.758030	-0.181240	0.320160	0.034776	0.145448
1.820	1.675468	-4.674243	521.214016	0.725131	-0.136331	0.314700	0.026156	0.139123
1.830	1.648217	-4.688287	521.233838	0.692388	-0.082094	0.310708	0.015750	0.132836
1.840	1.598384	-4.715127	521.229346	0.656490	-0.019854	0.308187	0.003809	0.125950
1.850	1.524376	-4.756493	521.195127	0.614056	0.047249	0.306591	-0.009065	0.117817
1.860	1.429593	-4.810798	521.120919	0.563140	0.114954	0.305329	-0.022059	0.108063
1.870	1.320689	-4.872947	520.998751	0.504122	0.178736	0.304209	-0.034306	0.096761
1.880	1.205813	-4.935339	520.832293	0.439714	0.234576	0.303580	-0.045039	0.084425
1.890	1.093491	-4.989891	520.643677	0.374286	0.279549	0.304134	-0.053693	0.071889
1.900	0.991996	-5.030313	520.473475	0.312869	0.312197	0.306531	-0.059983	0.060112
1.910	0.908839	-5.053753	520.371778	0.260192	0.332498	0.311064	-0.063896	0.050001
1.920	0.850240	-5.061376	520.382152	0.219916	0.341370	0.317487	-0.065600	0.042261
1.930	0.820598	-5.057838	520.524615	0.194150	0.339977	0.325053	-0.065314	0.037299
1.940	0.821859	-5.049843	520.785702	0.183237	0.329280	0.332723	-0.063228	0.035185
1.950	0.852764	-5.044088	521.120878	0.185782	0.310066	0.339488	-0.059500	0.035650
1.960	0.908284	-5.045158	521.468294	0.198853	0.283239	0.344708	-0.054316	0.038133
1.970	0.979770	-5.054008	521.766997	0.218403	0.249989	0.348308	-0.047912	0.041858
1.980	1.056151	-5.067496	521.971356	0.240021	0.211651	0.350710	-0.040548	0.045984
1.990	1.126004	-5.079064	522.057205	0.260016	0.169377	0.352530	-0.032444	0.049806
2.000	1.179935	-5.080438	522.021054	0.276527	0.123841	0.354227	-0.023723	0.052972
2.010	1.212550	-5.064193	521.876547	0.290099	0.075067	0.355931	-0.014384	0.055588
2.020	1.223471	-5.026735	521.650755	0.303292	0.022423	0.357541	-0.004299	0.058141
2.030	1.217039	-4.970503	521.379855	0.319426	-0.035185	0.358953	0.006748	0.061265
2.040	1.200727	-4.904000	521.103355	0.341144	-0.098833	0.360214	0.018966	0.065466
2.050	1.182635	-4.839207	520.857929	0.369617	-0.168907	0.361465	0.032429	0.070963
2.060	1.168899	-4.787347	520.672530	0.404711	-0.244573	0.362787	0.046973	0.077728
2.070	1.162089	-4.754842	520.564790	0.445804	-0.323792	0.364071	0.062200	0.085639
2.080	1.161453	-4.741105	520.538000	0.492562	-0.403978	0.365056	0.077608	0.094626
2.090	1.164949	-4.739023	520.579860	0.545122	-0.483009	0.365477	0.092783	0.104714
2.100	1.171919	-4.738001	520.665543	0.603664	-0.560095	0.365241	0.107573	0.115941
2.110	1.184723	-4.728317	520.765581	0.667769	-0.636222	0.364497	0.122171	0.128228
2.120	1.208315	-4.704744	520.855600	0.736055	-0.714109	0.363561	0.137103	0.141317
2.130	1.248211	-4.667715	520.923448	0.806423	-0.797802	0.362729	0.153151	0.154806
2.140	1.308280	-4.621751	520.970547	0.876811	-0.892014	0.362132	0.171222	0.168303
2.150	1.389554	-4.572477	521.006892	0.946083	-1.001203	0.361764	0.192167	0.181587
2.160	1.490327	-4.524107	521.042107	1.014556	-1.128372	0.361669	0.216561	0.194717
2.170	1.607037	-4.478553	521.077267	1.083758	-1.273819	0.362137	0.244459	0.207984
2.180	1.735261	-4.435945	521.102174	1.155384	-1.434366	0.363760	0.275256	0.221719
2.190	1.870433	-4.395460	521.099592	1.229826	-1.603640	0.367215	0.307742	0.236006
2.200	2.008264	-4.355734	521.053766	1.305099	-1.773604	0.372844	0.340388	0.250473
2.210	2.145103	-4.315103	520.958407	1.376901	-1.936873	0.380222	0.371790	0.264302
2.220	2.278278	-4.272275	520.820338	1.440001	-2.088864	0.388001	0.401072	0.276487
2.230	2.406136	-4.227277	520.658061	1.490338	-2.228769	0.394224	0.428068	0.286241
2.240	2.527564	-4.181884	520.497253	1.526785	-2.358901	0.397023	0.453202	0.293332
2.250	2.641178	-4.139046	520.365682	1.551747	-2.482834	0.395352	0.477133	0.298203
2.260	2.744781	-4.101715	520.288287	1.570364	-2.603339	0.389415	0.500365	0.301826
2.270	2.835650	-4.071923	520.281906	1.588760	-2.721094	0.380593	0.523004	0.305365
2.280	2.911726	-4.050605	520.350167	1.612085	-2.834521	0.370948	0.544733	0.309808
2.290	2.973098	-4.038008	520.480767	1.643046	-2.940443	0.362512	0.564948	0.315678
2.300	3.022767	-4.034022	520.647116	1.681273	-3.035062	0.356657	0.582940	0.322920
2.310	3.065991	-4.037904	520.814490	1.723533	-3.114908	0.353801	0.598084	0.330930
2.320	3.108258	-4.047469	520.949497	1.764628	-3.177623	0.353562	0.609968	0.338733
2.330	3.152687	-4.058487	521.030628	1.798857	-3.222472	0.355230	0.618480	0.345250
2.340	3.198085	-4.065150	521.056174	1.821857	-3.250475	0.358263	0.623824	0.349647
2.350	3.238806	-4.061856	521.045141	1.832327	-3.264082	0.362489	0.626449	0.351664
2.360	3.266718	-4.045573	521.029381	1.832832	-3.266446	0.367942	0.626922	0.351771
2.370	3.274339	-4.017384	521.039961	1.829128	-3.260501	0.374481	0.625768	0.351053
2.380	3.257518	-3.982195	521.094205	1.828184	-3.248203	0.381482	0.623343	0.350836
2.390	3.216461	-3.946729	521.189157	1.835719	-3.230214	0.387825	0.619778	0.352217
2.400	3.154921	-3.916985	521.303368	1.854224	-3.206107	0.392223	0.615018	0.355690
2.410	3.078306	-3.896510	521.405180	1.882252	-3.174889	0.393713	0.608910	0.360996
2.420	2.991799	-3.886136	521.464027	1.915198	-3.135515	0.392103	0.601291	0.367273
2.430	2.899375	-3.884790	521.461005	1.947187	-3.087228	0.388194	0.592034	0.373410
