Time[s]	Fx[N]	Fy[N]	Fz[N]	Mx[Nm]	My[Nm]	Mz[Nm]	COPx[cm]	COPy[cm]
0.010	0.583539	4.524215	504.215789	18.671741	13.168290	-0.155211	-2.611638	3.703125
0.020	0.611336	4.503081	504.273540	18.778023	13.163543	-0.157893	-2.610397	3.723777
0.030	0.651469	4.504499	504.281740	18.883218	13.148468	-0.166071	-2.607365	3.744577
0.040	0.710132	4.543031	504.189985	18.986773	13.115405	-0.183568	-2.601282	3.765797
0.050	0.784087	4.620735	503.943340	19.088214	13.061047	-0.211387	-2.591769	3.787770
0.060	0.862479	4.727302	503.487943	19.186506	12.986672	-0.247544	-2.579341	3.810718
0.070	0.932427	4.844664	502.782746	19.279434	12.897107	-0.287866	-2.565145	3.834546
0.080	0.985361	4.953845	501.813847	19.363522	12.799050	-0.327419	-2.550557	3.858706
0.090	1.021055	5.041128	500.606527	19.434703	12.699537	-0.362009	-2.536830	3.882231
0.100	1.047732	5.101279	499.230375	19.489564	12.604974	-0.389211	-2.524881	3.903922
0.110	1.078467	5.137368	497.794425	19.526779	12.520710	-0.408602	-2.515237	3.922659
0.120	1.125653	5.158426	496.432217	19.548342	12.450808	-0.421261	-2.508058	3.937767
0.130	1.196014	5.176697	495.280347	19.560212	12.397724	-0.428911	-2.503173	3.949321
0.140	1.288232	5.205362	494.456413	19.571999	12.361901	-0.433180	-2.500099	3.958286
0.150	1.393764	5.256581	494.041668	19.595503	12.341579	-0.435234	-2.498085	3.966367
0.160	1.499831	5.339452	494.070828	19.642274	12.333120	-0.435745	-2.496225	3.975599
0.170	1.592750	5.457950	494.528922	19.720783	12.331910	-0.434982	-2.493668	3.987792
0.180	1.660228	5.609218	495.354635	19.833994	12.333531	-0.432820	-2.489839	4.003999
0.190	1.692398	5.782483	496.450285	19.978103	12.334677	-0.428686	-2.484575	4.024190
0.200	1.682323	5.958908	497.698079	20.142940	12.333451	-0.421600	-2.478099	4.047221
0.210	1.626818	6.113081	498.979931	20.314009	12.328939	-0.410438	-2.470829	4.071107
0.220	1.527840	6.217185	500.196005	20.475481	12.320254	-0.394416	-2.463085	4.093492
0.230	1.393857	6.247830	501.277456	20.613178	12.305413	-0.373626	-2.454811	4.112130
0.240	1.240175	6.193559	502.191430	20.716678	12.280622	-0.349443	-2.445407	4.125255
0.250	1.087536	6.059710	502.938864	20.780184	12.240327	-0.324595	-2.433760	4.131752
0.260	0.959210	5.868168	503.545859	20.802195	12.178053	-0.302779	-2.418460	4.131142
0.270	0.877352	5.651759	504.048785	20.784204	12.087661	-0.287857	-2.398113	4.123451
0.280	0.859334	5.445277	504.474827	20.728771	11.964611	-0.282816	-2.371696	4.108980
0.290	0.914566	5.275923	504.824245	20.637418	11.806921	-0.288805	-2.338818	4.088040
0.300	1.042436	5.155456	505.064031	20.508995	11.615557	-0.304613	-2.299819	4.060672
0.310	1.232514	5.075530	505.139208	20.339001	11.393983	-0.326828	-2.255613	4.026415
0.320	1.468024	5.007314	504.998011	20.120103	11.146909	-0.350651	-2.207317	3.984195
0.330	1.732225	4.906208	504.617373	19.843794	10.878705	-0.371104	-2.155832	3.932444
0.340	2.014967	4.721652	504.013696	19.502952	10.592322	-0.384255	-2.101594	3.869528
0.350	2.315468	4.410701	503.233250	19.094775	10.289368	-0.388082	-2.044652	3.794418
0.360	2.638907	3.952516	502.329997	18.623348	9.971382	-0.382758	-1.985026	3.707393
0.370	2.988309	3.359646	501.345535	18.101015	9.641580	-0.370322	-1.923141	3.610487
0.380	3.356675	2.681471	500.301048	17.548035	9.306097	-0.353909	-1.860099	3.507495
0.390	3.724413	1.996710	499.200661	16.990473	8.974116	-0.336834	-1.797697	3.403536
0.400	4.063751	1.395649	498.039499	16.456802	8.656944	-0.321822	-1.738204	3.304317
0.410	4.347457	0.957181	496.811989	15.973918	8.366456	-0.310589	-1.684029	3.215284
0.420	4.557194	0.728100	495.521098	15.563295	8.113432	-0.303785	-1.637353	3.140794
0.430	4.688099	0.711121	494.190184	15.237822	7.906111	-0.301162	-1.599811	3.083392
0.440	4.748908	0.864611	492.875289	14.999756	7.749169	-0.301815	-1.572237	3.043317
0.450	4.758911	1.113122	491.671617	14.840086	7.643243	-0.304392	-1.554542	3.018292
0.460	4.743100	1.365076	490.707785	14.739624	7.585173	-0.307243	-1.545762	3.003748
0.470	4.726236	1.532811	490.125278	14.672068	7.568992	-0.308513	-1.544297	2.993534
0.480	4.726250	1.550478	490.046133	14.609015	7.587443	-0.306251	-1.548312	2.981151
0.490	4.748284	1.386364	490.537471	14.526122	7.633558	-0.298672	-1.556162	2.961266
0.500	4.781738	1.047680	491.585182	14.408736	7.701808	-0.284637	-1.566729	2.931076
0.510	4.802468	0.577242	493.087734	14.254942	7.788519	-0.264196	-1.579540	2.890955
0.520	4.780236	0.042905	494.873883	14.074722	7.891616	-0.238863	-1.594672	2.844103
0.530	4.688808	-0.478009	496.739190	13.885482	8.009946	-0.211363	-1.612505	2.795326
0.540	4.514754	-0.915786	498.490265	13.705738	8.142477	-0.184857	-1.633427	2.749450
0.550	4.261856	-1.222708	499.983534	13.549493	8.287574	-0.162026	-1.657569	2.709988
0.560	3.950080	-1.381071	501.147017	13.423324	8.442489	-0.144414	-1.684633	2.678520
0.570	3.610153	-1.403040	501.979949	13.326798	8.603085	-0.132265	-1.713830	2.654847
0.580	3.276037	-1.323240	502.534211	13.255302	8.763780	-0.124770	-1.743917	2.637691
0.590	2.977948	-1.187288	502.888001	13.203533	8.917732	-0.120497	-1.773304	2.625542
0.600	2.737841	-1.040214	503.121772	13.167937	9.057290	-0.117797	-1.800218	2.617247
0.610	2.567860	-0.917745	503.301146	13.147139	9.174676	-0.115127	-1.822900	2.612181
0.620	2.470737	-0.841766	503.466416	13.140617	9.262836	-0.111304	-1.839812	2.610029
0.630	2.440764	-0.819748	503.627434	13.146874	9.316341	-0.105683	-1.849848	2.610436
0.640	2.464874	-0.846934	503.765041	13.162609	9.332144	-0.098215	-1.852479	2.612847
0.650	2.524563	-0.909575	503.840885	13.183740	9.309962	-0.089378	-1.847798	2.616648
0.660	2.599518	-0.987957	503.813950	13.208013	9.252154	-0.080061	-1.836423	2.621605
0.670	2.672735	-1.058820	503.657186	13.237902	9.163204	-0.071505	-1.819334	2.628356
0.680	2.735475	-1.097640	503.366773	13.282065	9.049059	-0.065264	-1.797707	2.638646
0.690	2.789903	-1.081451	502.960802	13.354050	8.916510	-0.063074	-1.772804	2.655088
0.700	2.847989	-0.992543	502.469772	13.468273	8.772662	-0.066573	-1.745908	2.680415
0.710	2.926782	-0.822468	501.924439	13.634834	8.624443	-0.076857	-1.718275	2.716511
0.720	3.041736	-0.574765	501.346186	13.855559	8.478063	-0.093962	-1.691060	2.763671
0.730	3.200775	-0.264672	500.742724	14.123098	8.338512	-0.116458	-1.665229	2.820430
0.740	3.401669	0.084630	500.109425	14.423276	8.209275	-0.141486	-1.641496	2.884024
0.750	3.633605	0.447805	499.434894	14.739357	8.092462	-0.165427	-1.620324	2.951207
0.760	3.881371	0.802732	498.708223	15.056372	7.989405	-0.185016	-1.602020	3.019074
0.770	4.129008	1.133651	497.924722	15.364120	7.901635	-0.198380	-1.586914	3.085631
0.780	4.360447	1.431804	497.087883	15.658293	7.831953	-0.205457	-1.575567	3.150005
0.790	4.557329	1.694713	496.207910	15.939917	7.785229	-0.207621	-1.568945	3.212346
0.800	4.696858	1.925529	495.299673	16.213741	7.768562	-0.206830	-1.568457	3.273522
0.810	4.753172	2.133085	494.383594	16.486469	7.790548	-0.204863	-1.575810	3.334753
0.820	4.703986	2.332020	493.491246	16.765446	7.859604	-0.203102	-1.592653	3.397314
0.830	4.541215	2.541488	492.674394	17.057793	7.981523	-0.202799	-1.620040	3.462285
0.840	4.281588	2.781218	492.013328	17.369320	8.156819	-0.205382	-1.657845	3.530254
0.850	3.971813	3.064956	491.618288	17.702688	8.378831	-0.212307	-1.704337	3.600901
0.860	3.683484	3.393111	491.617174	18.055194	8.633696	-0.224353	-1.756183	3.672612
0.870	3.495864	3.747985	492.126022	18.417403	8.902773	-0.240787	-1.809043	3.742416
0.880	3.469874	4.095073	493.207537	18.773935	9.166997	-0.259050	-1.858649	3.806498
0.890	3.622122	4.391678	494.833464	19.106741	9.411715	-0.275370	-1.901997	3.861247
0.900	3.910574	4.600332	496.869736	19.399888	9.630132	-0.286096	-1.938160	3.904421
0.910	4.240683	4.701590	499.094569	19.643979	9.824001	-0.289109	-1.968365	3.935923
0.920	4.492621	4.700795	501.244802	19.838450	10.001341	-0.284615	-1.995301	3.957836
0.930	4.560290	4.626421	503.074480	19.990972	10.172291	-0.275012	-2.022025	3.973760
0.940	4.386708	4.521354	504.406791	20.114419	10.344984	-0.264012	-2.050921	3.987738
0.950	3.981701	4.430697	505.164236	20.222644	10.523030	-0.255475	-2.083091	4.003182
0.960	3.415993	4.389843	505.369752	20.326570	10.705190	-0.252375	-2.118289	4.022119
0.970	2.795952	4.415699	505.121255	20.431685	10.886801	-0.256152	-2.155285	4.044907
0.980	2.230303	4.502982	504.550751	20.537279	11.062083	-0.266537	-2.192462	4.070409
0.990	1.801178	4.626436	503.783474	20.637193	11.226376	-0.281843	-2.228413	4.096441
1.000	1.547819	4.748521	502.910547	20.721581	11.377604	-0.299539	-2.262352	4.120331
1.010	1.465111	4.830532	501.981378	20.779285	11.516675	-0.316896	-2.294244	4.139453
1.020	1.513862	4.843954	501.013117	20.800424	11.647058	-0.331486	-2.324701	4.151673
1.030	1.636923	4.778704	500.008949	20.778689	11.774004	-0.341420	-2.354759	4.155663
1.040	1.775220	4.645804	498.976659	20.712848	11.903713	-0.345417	-2.385625	4.151065
1.050	1.879858	4.473751	497.941711	20.607147	12.042556	-0.342870	-2.418467	4.138466
1.060	1.918976	4.299678	496.952369	20.470681	12.196266	-0.334082	-2.454212	4.119244
1.070	1.879889	4.158004	496.077016	20.316093	12.369049	-0.320550	-2.493373	4.095351
1.080	1.767832	4.069992	495.395671	20.157970	12.562622	-0.305028	-2.535877	4.069065
1.090	1.602692	4.037429	494.988558	20.010976	12.775442	-0.291118	-2.580957	4.042715
1.100	1.414465	4.042483	494.924392	19.887662	13.002453	-0.282413	-2.627160	4.018323
1.110	1.237459	4.054066	495.250154	19.796140	13.235592	-0.281459	-2.672506	3.997200
1.120	1.103033	4.038788	495.983113	19.738241	13.464915	-0.288909	-2.714793	3.979620
1.130	1.031689	3.972658	497.105384	19.709009	13.680004	-0.303208	-2.751932	3.964755
1.140	1.026829	3.849251	498.561685	19.698008	13.871276	-0.320979	-2.782259	3.950967
1.150	1.073120	3.681568	500.261167	19.692221	14.030948	-0.338011	-2.804725	3.936388
1.160	1.141064	3.497480	502.083526	19.679592	14.153580	-0.350492	-2.818969	3.919585
1.170	1.196620	3.330957	503.888414	19.652002	14.236328	-0.356048	-2.825294	3.900070
1.180	1.211967	3.212268	505.526724	19.606765	14.279077	-0.354233	-2.824594	3.878482
1.190	1.172953	3.159921	506.852991	19.546293	14.284466	-0.346372	-2.818266	3.856403
1.200	1.080910	3.176069	507.739076	19.476263	14.257652	-0.334897	-2.808067	3.835880
1.210	0.949780	3.246296	508.089489	19.403100	14.205616	-0.322471	-2.795888	3.818835
1.220	0.801515	3.343905	507.857241	19.331817	14.135959	-0.311208	-2.783451	3.806545
1.230	0.662124	3.437665	507.056211	19.264950	14.055429	-0.302186	-2.771967	3.799372
1.240	0.558759	3.500604	505.763897	19.202732	13.968705	-0.295280	-2.761902	3.796778
1.250	0.516755	3.517000	504.110324	19.143981	13.878050	-0.289262	-2.752979	3.797578
1.260	0.555727	3.485470	502.254747	19.087025	13.784151	-0.282101	-2.744454	3.800268
1.270	0.685143	3.417558	500.357331	19.030256	13.687836	-0.271575	-2.735612	3.803333
1.280	0.901028	3.332653	498.554482	18.972432	13.591822	-0.256156	-2.726246	3.805488
1.290	1.185510	3.251462	496.944364	18.913012	13.501591	-0.235924	-2.716922	3.805861
1.300	1.509836	3.190801	495.585327	18.852626	13.424943	-0.212952	-2.708906	3.804113
1.310	1.840065	3.161710	494.505059	18.793456	13.370434	-0.190825	-2.703801	3.800458
1.320	2.143641	3.170804	493.714233	18.739174	13.345386	-0.173398	-2.703059	3.795551
1.330	2.394786	3.222870	493.217411	18.694437	13.354244	-0.163410	-2.707578	3.790304
1.340	2.577220	3.322081	493.016573	18.664259	13.397835	-0.161670	-2.717522	3.785726
1.350	2.683870	3.470323	493.106864	18.653520	13.473787	-0.167102	-2.732427	3.782855
1.360	2.714427	3.663110	493.468258	18.666425	13.577894	-0.177480	-2.751523	3.782700
1.370	2.672286	3.885473	494.059361	18.705525	13.705829	-0.190350	-2.774126	3.786089
1.380	2.562295	4.110752	494.819063	18.770216	13.854432	-0.203671	-2.799899	3.793349
1.390	2.390191	4.303988	495.677512	18.855135	14.022061	-0.215964	-2.828868	3.803912
1.400	2.163918	4.429310	496.572152	18.949191	14.207973	-0.226027	-2.861210	3.816000
1.410	1.896139	4.458802	497.461456	19.035929	14.411018	-0.232583	-2.896911	3.826614
1.420	1.606482	4.379899	498.330649	19.095564	14.628104	-0.234177	-2.935421	3.831906
1.430	1.321772	4.199191	499.187964	19.108479	14.853045	-0.229478	-2.975441	3.827913
1.440	1.073054	3.941718	500.053206	19.059412	15.076457	-0.217894	-3.014971	3.811477
1.450	0.889376	3.645689	500.942041	18.941126	15.287092	-0.200228	-3.051669	3.781101
1.460	0.789604	3.353294	501.850021	18.756221	15.474309	-0.178971	-3.083453	3.737416
1.470	0.774947	3.099409	502.740751	18.516107	15.630829	-0.157864	-3.109123	3.683033
1.480	0.825781	2.901416	503.542634	18.237158	15.754660	-0.140686	-3.128764	3.621770
1.490	0.905520	2.753998	504.157231	17.935416	15.849409	-0.129717	-3.143743	3.557505
1.500	0.971344	2.631598	504.478549	17.622109	15.922787	-0.124670	-3.156286	3.493133
1.510	0.987982	2.498417	504.418532	17.302026	15.983888	-0.122772	-3.168775	3.430093
1.520	0.939234	2.322613	503.932626	16.975491	16.040283	-0.120106	-3.183021	3.368603
1.530	0.833319	2.089429	503.039747	16.642860	16.095941	-0.113589	-3.199736	3.308458
1.540	0.700976	1.808229	501.830823	16.309191	16.150589	-0.102627	-3.218333	3.249938
1.550	0.587461	1.510812	500.460139	15.986564	16.200534	-0.089661	-3.237128	3.194373
1.560	0.540440	1.241628	499.117261	15.692635	16.240618	-0.079365	-3.253868	3.144078
1.570	0.596116	1.043381	497.984620	15.445766	16.266651	-0.076815	-3.266497	3.101655
1.580	0.766704	0.943199	497.193009	15.258741	16.277576	-0.085345	-3.273895	3.068977
1.590	1.033171	0.944410	496.789958	15.133878	16.276642	-0.104976	-3.276363	3.046333
1.600	1.346882	1.026814	496.732271	15.061796	16.271217	-0.132068	-3.275651	3.032176
1.610	1.641353	1.154933	496.905307	15.024478	16.271349	-0.160403	-3.274537	3.023610
1.620	1.851110	1.290693	497.162016	15.001364	16.287606	-0.183261	-3.276116	3.017399
1.630	1.930914	1.405632	497.368221	14.975988	16.328816	-0.195664	-3.283044	3.011046
1.640	1.868077	1.488121	497.439500	14.940598	16.400289	-0.195942	-3.296941	3.003501
1.650	1.683791	1.542992	497.359149	14.897062	16.502853	-0.186066	-3.318096	2.995232
1.660	1.424085	1.583959	497.173761	14.853926	16.632880	-0.170686	-3.345486	2.987673
1.670	1.144470	1.622659	496.970073	14.821045	16.783392	-0.155322	-3.377143	2.982281
1.680	0.893413	1.659991	496.841545	14.804141	16.946176	-0.144360	-3.410781	2.979650
1.690	0.699201	1.684216	496.855308	14.801539	17.114500	-0.139598	-3.444564	2.979044
1.700	0.563536	1.676495	497.030108	14.804241	17.285529	-0.139785	-3.477763	2.978540
1.710	0.463680	1.620637	497.333316	14.799077	17.461323	-0.141246	-3.510990	2.975686
1.720	0.362882	1.512009	497.699022	14.773521	17.647641	-0.139305	-3.545846	2.968364
1.730	0.226213	1.361497	498.060556	14.720319	17.850785	-0.129977	-3.584059	2.955528
1.740	0.036416	1.193132	498.383673	14.640321	18.073702	-0.111408	-3.626463	2.937560
1.750	-0.196540	1.036747	498.685265	14.542651	18.313072	-0.084616	-3.672271	2.916198
1.760	-0.436893	0.918691	499.028490	14.442289	18.558733	-0.053307	-3.718973	2.894081
1.770	-0.635925	0.854071	499.496308	14.355985	18.795728	-0.022807	-3.762936	2.874092
1.780	-0.751294	0.843197	500.155997	14.297957	19.008052	0.001591	-3.800425	2.858699
1.790	-0.764201	0.873218	501.030615	14.276605	19.182442	0.016261	-3.828597	2.849448
1.800	-0.686255	0.923795	502.087409	14.292852	19.310758	0.020252	-3.846095	2.846686
1.810	-0.553155	0.974378	503.243004	14.340202	19.390445	0.015314	-3.853098	2.849558
1.820	-0.409332	1.010655	504.378461	14.406455	19.423531	0.004985	-3.850983	2.856279
1.830	-0.291883	1.028600	505.357814	14.476828	19.415046	-0.006773	-3.841841	2.864669
1.840	-0.221004	1.035395	506.047903	14.537708	19.371573	-0.016867	-3.828012	2.872793
1.850	-0.199057	1.047020	506.339178	14.579869	19.300161	-0.023820	-3.811706	2.879467
1.860	-0.215691	1.082976	506.165018	14.600122	19.207558	-0.027874	-3.794723	2.884459
1.870	-0.254633	1.159551	505.514612	14.601116	19.099688	-0.030546	-3.778266	2.888367
1.880	-0.298932	1.283923	504.435350	14.589623	18.981376	-0.033905	-3.762896	2.892268
1.890	-0.333607	1.451292	503.024311	14.573985	18.856401	-0.039830	-3.748606	2.897273
1.900	-0.346297	1.645964	501.412197	14.561486	18.727853	-0.049463	-3.735021	2.904095
1.910	-0.327061	1.845490	499.744351	14.556368	18.598674	-0.062962	-3.721638	2.912763
1.920	-0.268242	2.025844	498.162078	14.559009	18.472223	-0.079521	-3.708075	2.922545
1.930	-0.164945	2.165868	496.785557	14.566346	18.352691	-0.097607	-3.694288	2.932119
1.940	-0.016425	2.250306	495.699652	14.573197	18.245170	-0.115336	-3.680691	2.939925
1.950	0.171874	2.271772	494.945631	14.573846	18.155180	-0.130899	-3.668116	2.944535
1.960	0.386686	2.232020	494.522015	14.563397	18.087685	-0.142923	-3.657610	2.944944
1.970	0.607120	2.142061	494.394967	14.538742	18.045994	-0.150690	-3.650117	2.940714
1.980	0.807508	2.020306	494.514312	14.499179	18.031075	-0.154159	-3.646219	2.932004
1.990	0.962425	1.888631	494.828941	14.446626	18.041610	-0.153849	-3.646030	2.919519
2.000	1.052258	1.767634	495.296588	14.385382	18.074658	-0.150605	-3.649260	2.904398
2.010	1.067266	1.672942	495.886613	14.321492	18.126526	-0.145392	-3.655377	2.888058
2.020	1.008732	1.613659	496.577380	14.261955	18.193410	-0.139195	-3.663761	2.872051
2.030	0.887214	1.592681	497.350614	14.213891	18.271623	-0.133041	-3.673791	2.857922
2.040	0.719114	1.607758	498.184757	14.183497	18.357532	-0.127984	-3.684884	2.847036
2.050	0.523070	1.652326	499.049174	14.174593	18.447481	-0.124910	-3.696526	2.840320
2.060	0.317179	1.715921	499.901402	14.186964	18.537875	-0.124158	-3.708306	2.837952
2.070	0.117410	1.784817	500.689787	14.215337	18.625355	-0.125155	-3.719939	2.839151
2.080	-0.062927	1.843749	501.362393	14.249884	18.706818	-0.126392	-3.731197	2.842232
2.090	-0.213102	1.878910	501.879635	14.278482	18.779162	-0.125914	-3.741766	2.845001
2.100	-0.324889	1.881217	502.225519	14.290000	18.838881	-0.122194	-3.751080	2.845335
2.110	-0.392896	1.848352	502.413111	14.277367	18.881787	-0.114913	-3.758219	2.841758
2.120	-0.415164	1.784762	502.482510	14.239379	18.903115	-0.105241	-3.761945	2.833806
2.130	-0.393232	1.700018	502.491696	14.180782	18.898075	-0.095472	-3.760873	2.822093
2.140	-0.330909	1.606756	502.501581	14.110768	18.862677	-0.088276	-3.753755	2.808104
2.150	-0.231890	1.519133	502.557903	14.040462	18.794538	-0.085910	-3.739776	2.793800
2.160	-0.097616	1.451733	502.674642	13.980166	18.693445	-0.089655	-3.718796	2.781156
2.170	0.072787	1.417968	502.825158	13.937097	18.561583	-0.099597	-3.691459	2.771758
2.180	0.279853	1.427146	502.946352	13.914083	18.403343	-0.114746	-3.659107	2.766514
2.190	0.519851	1.480615	502.956982	13.909355	18.224641	-0.133331	-3.623499	2.765516
2.200	0.782357	1.568744	502.784873	13.917326	18.031756	-0.153117	-3.586376	2.768048
2.210	1.051344	1.670927	502.392617	13.930039	17.830013	-0.171690	-3.549020	2.772740
2.220	1.309565	1.759769	501.791075	13.938870	17.622870	-0.186778	-3.511993	2.777823
2.230	1.543773	1.808586	501.035160	13.935984	17.411907	-0.196691	-3.475187	2.781438
2.240	1.747966	1.799658	500.204287	13.915182	17.197822	-0.200752	-3.438160	2.781900
2.250	1.923351	1.730132	499.376471	13.872198	16.981994	-0.199500	-3.400640	2.777904
2.260	2.075792	1.613358	498.607122	13.804900	16.767834	-0.194548	-3.362935	2.768693
2.270	2.212365	1.475115	497.920133	13.713895	16.561289	-0.188088	-3.326093	2.754236
2.280	2.338234	1.346081	497.312374	13.603499	16.370268	-0.182271	-3.291748	2.735403
2.290	2.454417	1.253249	496.767355	13.482449	16.203239	-0.178653	-3.261736	2.714037
2.300	2.556980	1.213120	496.271833	13.363433	16.067449	-0.177866	-3.237631	2.692765
2.310	2.638396	1.228430	495.830084	13.260987	15.967306	-0.179569	-3.220318	2.674502
2.320	2.691231	1.288655	495.472019	13.188208	15.903292	-0.182666	-3.209726	2.661746
2.330	2.712878	1.373561	495.251804	13.153450	15.871695	-0.185732	-3.204773	2.655912
2.340	2.708681	1.458639	495.234325	13.158227	15.865252	-0.187516	-3.203585	2.656970
2.350	2.691097	1.521199	495.471116	13.197036	15.874654	-0.187337	-3.203951	2.663533
2.360	2.674720	1.545788	495.974650	13.259036	15.890646	-0.185226	-3.203923	2.673329
2.370	2.669603	1.527663	496.703903	13.330992	15.906235	-0.181814	-3.202358	2.683891
