Time[s]	Fx[N]	Fy[N]	Fz[N]	Mx[Nm]	My[Nm]	Mz[Nm]	COPx[cm]	COPy[cm]
0.010	1.623996	0.813798	467.281487	-1.315674	21.303639	-0.369725	-4.559059	-0.281559
0.020	1.667840	0.795607	467.582250	-1.282175	21.317779	-0.380226	-4.559151	-0.274214
0.030	1.704816	0.783833	467.816465	-1.248052	21.327893	-0.389067	-4.559030	-0.266782
0.040	1.730010	0.782268	467.936556	-1.213039	21.331336	-0.395099	-4.558596	-0.259232
0.050	1.740723	0.790789	467.926007	-1.177229	21.327531	-0.398006	-4.557885	-0.251585
0.060	1.736844	0.806151	467.803605	-1.141203	21.318102	-0.398400	-4.557062	-0.243949
0.070	1.720528	0.824171	467.615525	-1.106145	21.306201	-0.397608	-4.556350	-0.236550
0.080	1.695372	0.842063	467.417306	-1.073840	21.295321	-0.397171	-4.555955	-0.229739
0.090	1.665642	0.859850	467.253496	-1.046352	21.288089	-0.398297	-4.556004	-0.223937
0.100	1.635811	0.880274	467.144273	-1.025238	21.285568	-0.401478	-4.556530	-0.219469
0.110	1.610144	0.907323	467.084323	-1.010615	21.287212	-0.406384	-4.557467	-0.216367
0.120	1.591973	0.944019	467.052716	-1.000628	21.291327	-0.412027	-4.558656	-0.214243
0.130	1.582682	0.990509	467.027633	-0.991805	21.295766	-0.417143	-4.559851	-0.212365
0.140	1.581042	1.043377	466.998777	-0.980189	21.298666	-0.420699	-4.560754	-0.209891
0.150	1.583571	1.096512	466.972442	-0.962777	21.299069	-0.422341	-4.561098	-0.206174
0.160	1.586054	1.143117	466.967766	-0.938641	21.297247	-0.422550	-4.560753	-0.201008
0.170	1.585557	1.177951	467.006383	-0.909243	21.294571	-0.422392	-4.559803	-0.194696
0.180	1.581841	1.198970	467.100625	-0.877838	21.292893	-0.423023	-4.558524	-0.187933
0.190	1.577476	1.207905	467.246181	-0.848241	21.293622	-0.425222	-4.557260	-0.181541
0.200	1.576711	1.209699	467.422597	-0.823506	21.296868	-0.429170	-4.556234	-0.176180
0.210	1.583737	1.210901	467.600337	-0.805022	21.301101	-0.434457	-4.555407	-0.172160
0.220	1.601069	1.217384	467.749801	-0.792306	21.303533	-0.440227	-4.554472	-0.169387
0.230	1.628713	1.232070	467.848089	-0.783479	21.301092	-0.445400	-4.552993	-0.167464
0.240	1.664504	1.253511	467.882248	-0.776222	21.291468	-0.448961	-4.550604	-0.165901
0.250	1.705439	1.276098	467.850254	-0.768793	21.273783	-0.450258	-4.547135	-0.164325
0.260	1.749125	1.292164	467.761085	-0.760670	21.248689	-0.449183	-4.542637	-0.162619
0.270	1.794442	1.295357	467.633781	-0.752606	21.217983	-0.446150	-4.537308	-0.160939
0.280	1.841254	1.283769	467.494283	-0.746137	21.183971	-0.441894	-4.531386	-0.159604
0.290	1.889654	1.261145	467.369786	-0.742889	21.148816	-0.437178	-4.525071	-0.158951
0.300	1.939166	1.235398	467.282205	-0.744072	21.114141	-0.432531	-4.518499	-0.159234
0.310	1.987970	1.214993	467.243078	-0.750365	21.081016	-0.428133	-4.511788	-0.160594
0.320	2.032289	1.204821	467.251727	-0.762088	21.050266	-0.423894	-4.505123	-0.163100
0.330	2.066596	1.203526	467.297479	-0.779393	21.022869	-0.419681	-4.498819	-0.166787
0.340	2.085130	1.203752	467.365075	-0.802336	21.000210	-0.415590	-4.493320	-0.171672
0.350	2.084294	1.195451	467.440460	-0.830807	20.984041	-0.412074	-4.489137	-0.177735
0.360	2.064572	1.170719	467.513969	-0.864413	20.976031	-0.409817	-4.486717	-0.184896
0.370	2.030892	1.127670	467.580224	-0.902446	20.976962	-0.409376	-4.486281	-0.193003
0.380	1.991359	1.071439	467.636252	-0.944025	20.985923	-0.410830	-4.487660	-0.201872
0.390	1.955159	1.012003	467.679308	-0.988420	21.000014	-0.413686	-4.490259	-0.211346
0.400	1.930561	0.960030	467.704628	-1.035456	21.014848	-0.417153	-4.493188	-0.221391
0.410	1.923397	0.922507	467.703332	-1.085844	21.025653	-0.420626	-4.495511	-0.232165
0.420	1.936031	0.899714	467.662307	-1.141232	21.028472	-0.424039	-4.496508	-0.244029
0.430	1.966772	0.884718	467.568267	-1.203775	21.021009	-0.427864	-4.495816	-0.257454
0.440	2.009894	0.865817	467.415301	-1.275215	21.002974	-0.432754	-4.493429	-0.272823
0.450	2.056460	0.831127	467.211301	-1.355741	20.976014	-0.439059	-4.489620	-0.290177
0.460	2.096010	0.773419	466.978452	-1.443114	20.943344	-0.446474	-4.484863	-0.309032
0.470	2.118861	0.693222	466.747257	-1.532489	20.909169	-0.453955	-4.479763	-0.328334
0.480	2.118600	0.599142	466.548121	-1.617136	20.877931	-0.459933	-4.474979	-0.346617
0.490	2.094153	0.505558	466.405099	-1.689894	20.853532	-0.462751	-4.471120	-0.362323
0.500	2.050782	0.428599	466.333708	-1.744879	20.838701	-0.461204	-4.468624	-0.374170
0.510	1.999383	0.381678	466.341773	-1.778967	20.834731	-0.454975	-4.467696	-0.381473
0.520	1.953832	0.371812	466.431222	-1.792607	20.841622	-0.444762	-4.468316	-0.384324
0.530	1.926996	0.397683	466.599259	-1.789697	20.858492	-0.432020	-4.470323	-0.383562
0.540	1.926776	0.449919	466.838455	-1.776475	20.883985	-0.418486	-4.473493	-0.380533
0.550	1.953812	0.513560	467.136121	-1.759729	20.916457	-0.405738	-4.477594	-0.376706
0.560	2.001726	0.572137	467.473529	-1.744931	20.953900	-0.394958	-4.482371	-0.373268
0.570	2.059554	0.612185	467.825281	-1.735003	20.993724	-0.386885	-4.487514	-0.370866
0.580	2.115004	0.626687	468.158905	-1.730149	21.032646	-0.381856	-4.492630	-0.369564
0.590	2.157084	0.616128	468.435378	-1.728785	21.066904	-0.379855	-4.497291	-0.369055
0.600	2.177523	0.586858	468.612524	-1.729207	21.092821	-0.380567	-4.501122	-0.369006
0.610	2.171333	0.547783	468.653157	-1.731238	21.107573	-0.383408	-4.503879	-0.369407
0.620	2.137237	0.507098	468.537135	-1.736969	21.109986	-0.387601	-4.505510	-0.370722
0.630	2.078392	0.470317	468.272578	-1.750081	21.101148	-0.392300	-4.506168	-0.373731
0.640	2.002943	0.439790	467.899618	-1.774129	21.084590	-0.396745	-4.506221	-0.379169
0.650	1.923321	0.415175	467.482621	-1.810784	21.065747	-0.400429	-4.506210	-0.387348
0.660	1.853531	0.394503	467.093123	-1.858888	21.050774	-0.403274	-4.506762	-0.397970
0.670	1.804990	0.375780	466.791121	-1.914549	21.045091	-0.405761	-4.508460	-0.410151
0.680	1.782750	0.358805	466.612313	-1.971986	21.052272	-0.408896	-4.511727	-0.422618
0.690	1.784003	0.346257	466.564224	-2.024756	21.073618	-0.413900	-4.516767	-0.433972
0.700	1.799568	0.343066	466.629867	-2.067158	21.108337	-0.421672	-4.523572	-0.442997
0.710	1.817550	0.354077	466.776160	-2.095598	21.153907	-0.432243	-4.531917	-0.448951
0.720	1.827466	0.381167	466.964170	-2.109449	21.206315	-0.444480	-4.541315	-0.451737
0.730	1.823393	0.421322	467.158028	-2.110943	21.260204	-0.456268	-4.550966	-0.451869
0.740	1.805455	0.466620	467.330018	-2.104137	21.309339	-0.465113	-4.559805	-0.450247
0.750	1.779582	0.506185	467.461285	-2.093508	21.347734	-0.468958	-4.566738	-0.447846
0.760	1.755669	0.529410	467.539967	-2.082866	21.371362	-0.466845	-4.571024	-0.445495
0.770	1.744507	0.529323	467.559738	-2.074941	21.379772	-0.459206	-4.572629	-0.443781
0.780	1.754158	0.504949	467.521010	-2.071507	21.376728	-0.447702	-4.572357	-0.443083
0.790	1.786872	0.461785	467.434369	-2.073651	21.369332	-0.434733	-4.571622	-0.443624
0.800	1.837712	0.410001	467.323032	-2.081798	21.365807	-0.422758	-4.571957	-0.445473
0.810	1.895598	0.360758	467.220590	-2.095378	21.372818	-0.413656	-4.574460	-0.448477
0.820	1.946417	0.322081	467.162803	-2.112428	21.393476	-0.408315	-4.579448	-0.452182
0.830	1.976934	0.296212	467.175915	-2.129621	21.426807	-0.406564	-4.586454	-0.455850
0.840	1.978107	0.279796	467.266397	-2.143021	21.468760	-0.407433	-4.594544	-0.458629
0.850	1.946994	0.266719	467.417167	-2.149345	21.514065	-0.409617	-4.602755	-0.459834
0.860	1.886956	0.252028	467.592607	-2.147156	21.558008	-0.412003	-4.610425	-0.459194
0.870	1.806242	0.234882	467.750250	-2.137375	21.597410	-0.414079	-4.617295	-0.456948
0.880	1.715397	0.219190	467.853560	-2.122833	21.630691	-0.416088	-4.623389	-0.453739
0.890	1.624390	0.211870	467.880603	-2.107057	21.657457	-0.418864	-4.628843	-0.450341
0.900	1.540443	0.219732	467.826774	-2.092932	21.678182	-0.423395	-4.633805	-0.447373
0.910	1.467197	0.246413	467.703173	-2.081899	21.694190	-0.430299	-4.638453	-0.445133
0.920	1.405294	0.290459	467.533066	-2.073920	21.707739	-0.439414	-4.643038	-0.443588
0.930	1.353956	0.345112	467.347365	-2.067884	21.721781	-0.449673	-4.647888	-0.442473
0.940	1.312870	0.399838	467.178482	-2.062150	21.739280	-0.459324	-4.653314	-0.441405
0.950	1.283579	0.443329	467.052732	-2.055146	21.762297	-0.466441	-4.659495	-0.440024
0.960	1.269579	0.467184	466.983876	-2.046033	21.791282	-0.469556	-4.666389	-0.438138
0.970	1.274824	0.468999	466.971365	-2.035259	21.824939	-0.468188	-4.673721	-0.435842
0.980	1.301202	0.453392	467.004438	-2.024681	21.860679	-0.463058	-4.681043	-0.433546
0.990	1.346418	0.430176	467.069234	-2.017092	21.895402	-0.455874	-4.687828	-0.431861
1.000	1.403610	0.410208	467.153921	-2.015259	21.926276	-0.448757	-4.693587	-0.431391
1.010	1.462952	0.400762	467.248499	-2.020827	21.951333	-0.443539	-4.698000	-0.432495
1.020	1.514340	0.402798	467.340786	-2.033538	21.969923	-0.441260	-4.701050	-0.435130
1.030	1.549968	0.411612	467.413985	-2.051116	21.983011	-0.442056	-4.703114	-0.438822
1.040	1.566016	0.420543	467.450136	-2.069837	21.993162	-0.445361	-4.704921	-0.442793
1.050	1.563173	0.425556	467.438326	-2.085493	22.003973	-0.450203	-4.707353	-0.446154
1.060	1.546110	0.428125	467.382264	-2.094258	22.019007	-0.455382	-4.711135	-0.448082
1.070	1.522326	0.434982	467.301930	-2.093170	22.040579	-0.459558	-4.716561	-0.447927
1.080	1.500741	0.455141	467.227540	-2.080261	22.068923	-0.461370	-4.723378	-0.445235
1.090	1.490007	0.495800	467.188123	-2.054700	22.102029	-0.459736	-4.730863	-0.439801
1.100	1.496398	0.558974	467.199727	-2.017196	22.136215	-0.454244	-4.738062	-0.431763
1.110	1.521649	0.640167	467.258993	-1.970472	22.167272	-0.445463	-4.744108	-0.421709
1.120	1.561523	0.729544	467.345660	-1.919224	22.191837	-0.434944	-4.748485	-0.410665
1.130	1.606005	0.815041	467.432750	-1.869187	22.208484	-0.424842	-4.751161	-0.399884
1.140	1.641540	0.886109	467.498443	-1.825559	22.218063	-0.417246	-4.752543	-0.390495
1.150	1.654967	0.936474	467.532879	-1.791547	22.223037	-0.413459	-4.753257	-0.383192
1.160	1.637868	0.964837	467.537163	-1.767701	22.226045	-0.413518	-4.753856	-0.378088
1.170	1.589609	0.973580	467.517261	-1.752237	22.228331	-0.416200	-4.754548	-0.374796
1.180	1.517853	0.966742	467.477989	-1.742075	22.228853	-0.419555	-4.755059	-0.372654
1.190	1.436503	0.948710	467.420800	-1.734154	22.224527	-0.421719	-4.754715	-0.371005
1.200	1.361934	0.924034	467.345587	-1.726594	22.211447	-0.421626	-4.752681	-0.369447
1.210	1.308804	0.897668	467.254207	-1.719320	22.186444	-0.419313	-4.748260	-0.367962
1.220	1.286625	0.874603	467.153654	-1.713927	22.148323	-0.415754	-4.741122	-0.366887
1.230	1.297907	0.858543	467.058154	-1.712777	22.098393	-0.412389	-4.731401	-0.366716
1.240	1.338079	0.850189	466.989173	-1.717727	22.040229	-0.410593	-4.719645	-0.367830
1.250	1.397017	0.846335	466.971388	-1.729112	21.978817	-0.411234	-4.706673	-0.370282
1.260	1.461821	0.840757	467.024191	-1.745555	21.919372	-0.414467	-4.693412	-0.373761
1.270	1.520263	0.826882	467.151823	-1.764751	21.866168	-0.419795	-4.680741	-0.377768
1.280	1.563927	0.801096	467.337220	-1.784791	21.821692	-0.426365	-4.669367	-0.381907
1.290	1.590046	0.765044	467.543078	-1.805248	21.786320	-0.433325	-4.659746	-0.386114
1.300	1.601430	0.725678	467.720363	-1.827367	21.758552	-0.440067	-4.652043	-0.390697
1.310	1.604681	0.692780	467.821816	-1.853237	21.735656	-0.446324	-4.646140	-0.396142
1.320	1.607640	0.674971	467.816708	-1.884399	21.714400	-0.452130	-4.641647	-0.402807
1.330	1.617223	0.676052	467.702272	-1.920652	21.691708	-0.457713	-4.637931	-0.410657
1.340	1.638349	0.693417	467.506807	-1.959718	21.665179	-0.463295	-4.634195	-0.419185
1.350	1.673918	0.719133	467.281521	-1.997999	21.633540	-0.468875	-4.629659	-0.427579
1.360	1.725055	0.742895	467.083597	-2.032065	21.596947	-0.474079	-4.623786	-0.435054
1.370	1.790874	0.755380	466.958060	-2.060066	21.556946	-0.478185	-4.616463	-0.441167
1.380	1.867753	0.750852	466.925961	-2.082288	21.515962	-0.480346	-4.608003	-0.445957
1.390	1.948939	0.728415	466.981753	-2.100636	21.476469	-0.479916	-4.598995	-0.449833
1.400	2.025375	0.691686	467.098392	-2.117511	21.440157	-0.476732	-4.590073	-0.453333
1.410	2.087910	0.646949	467.237466	-2.134794	21.407428	-0.471215	-4.581702	-0.456897
1.420	2.130025	0.600462	467.361763	-2.153386	21.377403	-0.464232	-4.574059	-0.460754
1.430	2.149762	0.556213	467.446950	-2.173397	21.348366	-0.456796	-4.567014	-0.464951
1.440	2.150062	0.515286	467.488024	-2.194808	21.318482	-0.449746	-4.560220	-0.469490
1.450	2.137665	0.477006	467.497372	-2.218189	21.286514	-0.443531	-4.553291	-0.474482
1.460	2.121386	0.440880	467.495177	-2.244855	21.252266	-0.438144	-4.545986	-0.480188
1.470	2.110294	0.408000	467.496956	-2.276087	21.216615	-0.433204	-4.538343	-0.486867
1.480	2.111932	0.381064	467.504383	-2.311739	21.181130	-0.428138	-4.530681	-0.494485
1.490	2.130602	0.363143	467.503830	-2.349192	21.147497	-0.422426	-4.523492	-0.502497
1.500	2.166159	0.356094	467.473107	-2.383636	21.116963	-0.415882	-4.517257	-0.509898
1.510	2.213935	0.359600	467.392601	-2.409895	21.090002	-0.408844	-4.512267	-0.515604
1.520	2.266172	0.371402	467.254971	-2.424977	21.066313	-0.402203	-4.508526	-0.518984
1.530	2.314514	0.388493	467.069205	-2.429823	21.045191	-0.397200	-4.505797	-0.520228
1.540	2.352417	0.408516	466.858588	-2.429071	21.026181	-0.395030	-4.503758	-0.520301
1.550	2.376369	0.430531	466.654740	-2.428825	21.009766	-0.396363	-4.502208	-0.520476
1.560	2.385603	0.454728	466.490261	-2.433761	20.997704	-0.400983	-4.501210	-0.521718
1.570	2.380978	0.481270	466.391382	-2.445258	20.992703	-0.407775	-4.501092	-0.524293
1.580	2.364060	0.508971	466.371221	-2.461550	20.997466	-0.415049	-4.502307	-0.527809
1.590	2.337093	0.534538	466.425207	-2.479535	21.013588	-0.421063	-4.505243	-0.531604
1.600	2.303501	0.552720	466.531579	-2.496829	21.040870	-0.424495	-4.510063	-0.535190
1.610	2.267908	0.557367	466.658601	-2.512750	21.077332	-0.424771	-4.516649	-0.538456
1.620	2.235003	0.543322	466.776189	-2.527882	21.119802	-0.422218	-4.524610	-0.541562
1.630	2.207750	0.508767	466.866515	-2.542947	21.164700	-0.417998	-4.533351	-0.544684
1.640	2.186229	0.457012	466.928570	-2.558065	21.208622	-0.413783	-4.542156	-0.547849
1.650	2.167970	0.396475	466.975054	-2.572849	21.248612	-0.411238	-4.550267	-0.550961
1.660	2.149675	0.338310	467.023795	-2.586968	21.282303	-0.411491	-4.557006	-0.553926
1.670	2.129453	0.292514	467.088233	-2.600442	21.308212	-0.414836	-4.561924	-0.556735
1.680	2.108460	0.264331	467.171209	-2.613305	21.326156	-0.420795	-4.564955	-0.559389
1.690	2.091027	0.252635	467.264096	-2.624930	21.337483	-0.428478	-4.566472	-0.561766
1.700	2.083014	0.250911	467.351172	-2.633703	21.344831	-0.436961	-4.567193	-0.563538
1.710	2.089175	0.250146	467.417780	-2.637495	21.351419	-0.445511	-4.567952	-0.564269
1.720	2.110928	0.242265	467.459367	-2.634762	21.360087	-0.453583	-4.569400	-0.563635
1.730	2.145673	0.222886	467.486780	-2.625606	21.372429	-0.460747	-4.571772	-0.561643
1.740	2.187862	0.192667	467.523442	-2.612092	21.388363	-0.466623	-4.574821	-0.558708
1.750	2.231032	0.157025	467.594239	-2.597568	21.406404	-0.470860	-4.577987	-0.555518
1.760	2.269721	0.124328	467.711594	-2.585387	21.424554	-0.473155	-4.580719	-0.552774
1.770	2.300459	0.103053	467.866440	-2.577784	21.441346	-0.473331	-4.582792	-0.550966
1.780	2.321661	0.098863	468.028853	-2.575434	21.456516	-0.471460	-4.584443	-0.550273
1.790	2.332914	0.112667	468.158138	-2.577632	21.471043	-0.467996	-4.586280	-0.550590
1.800	2.334335	0.140433	468.218315	-2.582756	21.486648	-0.463823	-4.589023	-0.551614
1.810	2.326437	0.174800	468.192626	-2.588754	21.504992	-0.460188	-4.593193	-0.552925
1.820	2.310320	0.207733	468.090346	-2.593636	21.526884	-0.458486	-4.598874	-0.554089
1.830	2.287650	0.233165	467.942245	-2.595930	21.551885	-0.459864	-4.605672	-0.554754
1.840	2.259999	0.248800	467.786931	-2.594978	21.578515	-0.464723	-4.612894	-0.554735
1.850	2.227692	0.256775	467.655442	-2.590904	21.604991	-0.472358	-4.619852	-0.554020
1.860	2.188989	0.263018	467.562121	-2.584349	21.630077	-0.480993	-4.626140	-0.552728
1.870	2.140556	0.275159	467.505236	-2.576152	21.653644	-0.488300	-4.631744	-0.551042
1.880	2.079374	0.299340	467.474624	-2.567116	21.676742	-0.492180	-4.636988	-0.549146
1.890	2.005083	0.337205	467.460553	-2.557844	21.701147	-0.491477	-4.642348	-0.547179
1.900	1.921315	0.384712	467.459003	-2.548624	21.728580	-0.486361	-4.648232	-0.545208
1.910	1.835316	0.433579	467.471540	-2.539424	21.759891	-0.478234	-4.654806	-0.543225
1.920	1.756253	0.474740	467.501047	-2.530046	21.794548	-0.469207	-4.661925	-0.541185
1.930	1.693163	0.502044	467.546631	-2.520351	21.830624	-0.461355	-4.669186	-0.539059
1.940	1.653277	0.514518	467.601018	-2.510368	21.865278	-0.456085	-4.676054	-0.536861
1.950	1.640860	0.516330	467.652122	-2.500203	21.895523	-0.453835	-4.682011	-0.534629
1.960	1.656367	0.514738	467.688344	-2.489911	21.919005	-0.454133	-4.686669	-0.532387
1.970	1.695968	0.517168	467.705072	-2.479481	21.934562	-0.455852	-4.689828	-0.530138
1.980	1.751920	0.528807	467.708695	-2.468890	21.942592	-0.457495	-4.691508	-0.527869
1.990	1.814158	0.551512	467.715236	-2.458035	21.945234	-0.457495	-4.692008	-0.525541
2.000	1.872676	0.583956	467.743258	-2.446488	21.946174	-0.454585	-4.691927	-0.523041
2.010	1.919783	0.622376	467.803495	-2.433400	21.949750	-0.448229	-4.692088	-0.520176
2.020	1.951445	0.661530	467.889678	-2.417821	21.959426	-0.438916	-4.693291	-0.516750
2.030	1.967440	0.695832	467.975488	-2.399368	21.976371	-0.428105	-4.696052	-0.512712
2.040	1.970264	0.720618	468.020421	-2.378764	21.999074	-0.417723	-4.700452	-0.508261
2.050	1.963180	0.733199	467.983296	-2.357848	22.024340	-0.409431	-4.706224	-0.503832
2.060	1.948346	0.733370	467.838363	-2.339051	22.049129	-0.404004	-4.712980	-0.499970
2.070	1.926166	0.723313	467.587582	-2.324591	22.072207	-0.401091	-4.720443	-0.497146
2.080	1.896247	0.707033	467.263889	-2.315678	22.094762	-0.399388	-4.728541	-0.495583
2.090	1.859243	0.689452	466.923642	-2.311903	22.119769	-0.397070	-4.737342	-0.495135
2.100	1.818200	0.675164	466.630994	-2.311016	22.150552	-0.392339	-4.746910	-0.495256
2.110	1.778320	0.667001	466.440495	-2.309298	22.189349	-0.383967	-4.757166	-0.495090
2.120	1.745175	0.664812	466.384457	-2.302543	22.236574	-0.371766	-4.767863	-0.493701
2.130	1.722373	0.665162	466.468285	-2.287422	22.290999	-0.356801	-4.778674	-0.490370
2.140	1.710006	0.662447	466.673136	-2.262697	22.350526	-0.341219	-4.789332	-0.484857
2.150	1.704604	0.651131	466.963220	-2.229739	22.412964	-0.327669	-4.799728	-0.477498
2.160	1.700452	0.627950	467.294848	-2.192077	22.476361	-0.318495	-4.809889	-0.469099
2.170	1.691456	0.593024	467.624871	-2.154202	22.538839	-0.315017	-4.819855	-0.460669
2.180	1.672701	0.549708	467.916779	-2.120197	22.598220	-0.317189	-4.829538	-0.453114
2.190	1.641229	0.503715	468.143225	-2.092737	22.651878	-0.323751	-4.838664	-0.447029
2.200	1.596055	0.462022	468.285061	-2.072640	22.697068	-0.332776	-4.846849	-0.442602
2.210	1.537823	0.431583	468.329206	-2.058974	22.731650	-0.342365	-4.853776	-0.439642
2.220	1.468610	0.417851	468.268897	-2.049568	22.754818	-0.351206	-4.859349	-0.437690
2.230	1.392076	0.423391	468.107752	-2.041754	22.767420	-0.358845	-4.863714	-0.436172
2.240	1.313587	0.447186	467.864702	-2.033109	22.771751	-0.365574	-4.867166	-0.434551
2.250	1.239731	0.485020	467.574663	-2.021994	22.770963	-0.372028	-4.870016	-0.432443
2.260	1.176983	0.530810	467.282386	-2.007726	22.768335	-0.378715	-4.872500	-0.429660
2.270	1.129841	0.578336	467.031889	-1.990365	22.766530	-0.385731	-4.874727	-0.426173
2.280	1.099153	0.622745	466.856469	-1.970251	22.766989	-0.392802	-4.876657	-0.422025
2.290	1.081385	0.661458	466.773197	-1.947559	22.769615	-0.399540	-4.878090	-0.417239
2.300	1.069337	0.694340	466.782773	-1.922055	22.772934	-0.405656	-4.878701	-0.411766
2.310	1.054390	0.723163	466.872745	-1.893195	22.774752	-0.410956	-4.878150	-0.405506
2.320	1.029860	0.750542	467.021212	-1.860586	22.773072	-0.415172	-4.876239	-0.398394
2.330	0.994375	0.778681	467.199648	-1.824640	22.766872	-0.417847	-4.873050	-0.390548
2.340	0.953815	0.808319	467.375780	-1.786990	22.756409	-0.418440	-4.868975	-0.382346
