Time[s]	Fx[N]	Fy[N]	Fz[N]	Mx[Nm]	My[Nm]	Mz[Nm]	COPx[cm]	COPy[cm]
0.010	2.991070	0.327611	513.149094	14.351825	-29.146474	0.162311	5.679923	2.796814
0.020	3.250096	0.266531	511.412979	14.430780	-29.163670	0.099800	5.702568	2.821747
0.030	3.518863	0.230558	509.794670	14.507382	-29.188114	0.043961	5.725465	2.845730
0.040	3.801115	0.240357	508.390954	14.580777	-29.225916	0.000046	5.748709	2.868024
0.050	4.088795	0.306804	507.262447	14.651840	-29.279911	-0.029230	5.772142	2.888414
0.060	4.361600	0.427754	506.429346	14.722827	-29.348593	-0.043904	5.795200	2.907183
0.070	4.591584	0.587716	505.877175	14.796432	-29.426114	-0.046293	5.816850	2.924906
0.080	4.751138	0.760871	505.567839	14.874648	-29.503557	-0.040137	5.835727	2.942167
0.090	4.820903	0.916710	505.451158	14.957702	-29.571085	-0.029678	5.850434	2.959277
0.100	4.794386	1.026821	505.474592	15.043286	-29.620198	-0.018828	5.859879	2.976072
0.110	4.678298	1.071449	505.590855	15.126473	-29.645316	-0.010516	5.863499	2.991841
0.120	4.490134	1.044786	505.763907	15.200699	-29.644427	-0.006243	5.861317	3.005493
0.130	4.255351	0.958055	505.973909	15.259845	-29.619101	-0.005908	5.853879	3.015935
0.140	4.005269	0.839223	506.220729	15.300800	-29.574330	-0.007937	5.842181	3.022555
0.150	3.774885	0.728332	506.523658	15.325467	-29.518282	-0.009689	5.827622	3.025617
0.160	3.599101	0.668483	506.914352	15.341290	-29.461525	-0.008154	5.811934	3.026407
0.170	3.506836	0.694328	507.422564	15.359846	-29.415197	-0.000851	5.796982	3.027033
0.180	3.514062	0.821446	508.058588	15.393757	-29.388121	0.013278	5.784396	3.029918
0.190	3.617856	1.040206	508.799155	15.452702	-29.383678	0.033315	5.775104	3.037093
0.200	3.793845	1.316446	509.582605	15.539819	-29.397697	0.056426	5.768976	3.049519
0.210	3.998935	1.599279	510.315767	15.649949	-29.418491	0.078585	5.764762	3.066719
0.220	4.179827	1.834155	510.891207	15.770594	-29.429318	0.095751	5.760388	3.086879
0.230	4.285468	1.977421	511.210454	15.885332	-29.412521	0.105145	5.753505	3.107396
0.240	4.279602	2.007919	511.206625	15.978404	-29.353978	0.106204	5.742097	3.125625
0.250	4.149334	1.932087	510.859664	16.038954	-29.246454	0.100856	5.724949	3.139601
0.260	3.907360	1.781370	510.200171	16.063844	-29.090951	0.092997	5.701870	3.148538
0.270	3.587716	1.603168	509.302092	16.058459	-28.895801	0.087329	5.673607	3.153032
0.280	3.236294	1.448359	508.267804	16.035307	-28.673817	0.087999	5.641478	3.154893
0.290	2.898134	1.359087	507.210313	16.010662	-28.438372	0.097483	5.606820	3.156612
0.300	2.604604	1.359994	506.237520	16.000218	-28.199821	0.116050	5.570472	3.160615
0.310	2.364938	1.454503	505.443180	16.015257	-27.963917	0.141865	5.532554	3.168557
0.320	2.166550	1.626037	504.906498	16.060506	-27.733194	0.171555	5.492738	3.180887
0.330	1.985219	1.842960	504.696876	16.134026	-27.510617	0.200982	5.450919	3.196775
0.340	1.800477	2.065948	504.875780	16.228652	-27.303215	0.226072	5.407907	3.214385
0.350	1.607552	2.256413	505.489205	16.334295	-27.123128	0.243586	5.365718	3.231383
0.360	1.418894	2.384376	506.551388	16.440514	-26.985096	0.251704	5.327218	3.245577
0.370	1.255194	2.434127	508.027132	16.538892	-26.901499	0.250238	5.295288	3.255514
0.380	1.132256	2.406650	509.821644	16.624661	-26.877496	0.240356	5.271941	3.260878
0.390	1.051718	2.318617	511.783859	16.697019	-26.908652	0.223941	5.257816	3.262514
0.400	1.000188	2.198189	513.724530	16.757959	-26.982154	0.202937	5.252261	3.262052
0.410	0.956424	2.078058	515.445556	16.810011	-27.081056	0.179003	5.253912	3.261258
0.420	0.902695	1.986889	516.773550	16.853827	-27.189800	0.153570	5.261453	3.261356
0.430	0.835388	1.941487	517.589293	16.886625	-27.298808	0.128137	5.274222	3.262553
0.440	0.770543	1.942742	517.845661	16.902081	-27.406453	0.104503	5.292398	3.263922
0.450	0.741719	1.977190	517.569406	16.891701	-27.517904	0.084765	5.316756	3.263659
0.460	0.790223	2.023469	516.846810	16.847213	-27.641730	0.071021	5.348147	3.259614
0.470	0.950941	2.060626	515.798039	16.763228	-27.785907	0.064888	5.386974	3.249960
0.480	1.239271	2.074635	514.547880	16.639273	-27.954722	0.067009	5.432871	3.233766
0.490	1.644336	2.060687	513.200490	16.480450	-28.147291	0.076670	5.484658	3.211308
0.500	2.130710	2.020995	511.824109	16.296390	-28.357634	0.091689	5.540504	3.183982
0.510	2.647251	1.959902	510.449580	16.098801	-28.575941	0.108635	5.598191	3.153847
0.520	3.139295	1.879204	509.083269	15.898460	-28.790666	0.123416	5.655394	3.122959
0.530	3.560309	1.776452	507.729826	15.702744	-28.991147	0.132137	5.709956	3.092736
0.540	3.880204	1.647284	506.415226	15.514572	-29.170237	0.132064	5.760142	3.063607
0.550	4.089112	1.490450	505.199610	15.333032	-29.326175	0.122422	5.804869	3.035044
0.560	4.196571	1.312618	504.174142	15.155326	-29.462893	0.104754	5.843793	3.005971
0.570	4.226933	1.130295	503.443391	14.979232	-29.588499	0.082674	5.877225	2.975356
0.580	4.212464	0.967692	503.100418	14.805105	-29.712528	0.060997	5.905884	2.942773
0.590	4.186131	0.850731	503.203213	14.636540	-29.843142	0.044475	5.930634	2.908674
0.600	4.175765	0.798375	503.759034	14.479316	-29.985357	0.036508	5.952321	2.874254
0.610	4.200189	0.813673	504.719780	14.339031	-30.140724	0.038252	5.971774	2.840989
0.620	4.266802	0.878083	505.988893	14.218431	-30.308119	0.048414	5.989878	2.810028
0.630	4.370293	0.952604	507.438441	14.115484	-30.484884	0.063749	6.007602	2.781714
0.640	4.493385	0.987085	508.932730	14.022983	-30.667740	0.080108	6.025893	2.755371
0.650	4.611222	0.935675	510.352251	13.929949	-30.853453	0.093688	6.045521	2.729477
0.660	4.699541	0.773322	511.610531	13.824610	-31.039444	0.102101	6.067006	2.702175
0.670	4.743854	0.507042	512.658409	13.698148	-31.224276	0.104854	6.090659	2.671983
0.680	4.745286	0.177188	513.475209	13.547961	-31.407583	0.103070	6.116670	2.638484
0.690	4.720203	-0.152415	514.051827	13.379157	-31.589193	0.098624	6.145138	2.602686
0.700	4.694219	-0.412519	514.373989	13.203472	-31.767803	0.093121	6.176013	2.566901
0.710	4.693730	-0.548951	514.413601	13.035706	-31.939966	0.087187	6.209005	2.534091
0.720	4.738394	-0.539114	514.132645	12.888707	-32.100047	0.080318	6.243534	2.506884
0.730	4.836574	-0.399208	513.498813	12.768654	-32.241235	0.071263	6.278736	2.486599
0.740	4.984227	-0.179678	512.506822	12.672463	-32.357158	0.058753	6.313508	2.472643
0.750	5.166851	0.049750	511.196291	12.588361	-32.443520	0.042289	6.346588	2.462530
0.760	5.363768	0.220590	509.658359	12.499445	-32.499331	0.022708	6.376690	2.452515
0.770	5.553738	0.284858	508.028214	12.388908	-32.527541	0.002346	6.402704	2.438626
0.780	5.720334	0.226833	506.465637	12.245142	-32.534971	-0.015331	6.423925	2.417764
0.790	5.855021	0.063686	505.128093	12.065210	-32.531409	-0.026579	6.440230	2.388545
0.800	5.956431	-0.164462	504.142044	11.855743	-32.527848	-0.028515	6.452120	2.351667
0.810	6.026226	-0.410526	503.579229	11.631201	-32.534083	-0.020177	6.460569	2.309706
0.820	6.064012	-0.636017	503.444534	11.410137	-32.556223	-0.003102	6.466695	2.266414
0.830	6.064431	-0.820825	503.679488	11.210570	-32.594845	0.018829	6.471347	2.225735
0.840	6.018347	-0.964890	504.180834	11.045622	-32.644446	0.040271	6.474750	2.190806
0.850	5.917700	-1.082611	504.828759	10.920430	-32.694499	0.055797	6.476354	2.163195
0.860	5.761385	-1.193025	505.516052	10.831144	-32.731881	0.061345	6.474944	2.142591
0.870	5.558723	-1.309718	506.169121	10.766446	-32.743849	0.055276	6.468954	2.127045
0.880	5.328177	-1.434042	506.754592	10.711218	-32.720566	0.038744	6.456886	2.113689
0.890	5.091427	-1.553882	507.270857	10.651201	-32.656531	0.015352	6.437691	2.099707
0.900	4.865446	-1.648220	507.730733	10.577131	-32.550989	-0.009690	6.411073	2.083217
0.910	4.656460	-1.695734	508.145831	10.487103	-32.407878	-0.030705	6.377673	2.063798
0.920	4.459010	-1.684099	508.521771	10.386591	-32.235729	-0.042801	6.339105	2.042507
0.930	4.260951	-1.616167	508.865871	10.286291	-32.047494	-0.043028	6.297827	2.021415
0.940	4.052213	-1.510311	509.199971	10.198584	-31.859817	-0.031164	6.256838	2.002864
0.950	3.832952	-1.394745	509.566748	10.133847	-31.691157	-0.009794	6.219236	1.988718
0.960	3.616623	-1.298311	510.021487	10.097810	-31.558610	0.016416	6.187702	1.979879
0.970	3.425877	-1.241629	510.610831	10.090608	-31.474130	0.042073	6.164015	1.976184
0.980	3.283147	-1.231805	511.349184	10.107488	-31.441587	0.062589	6.148751	1.976631
0.990	3.200918	-1.262046	512.205937	10.140623	-31.456128	0.075352	6.141305	1.979794
1.000	3.176997	-1.315477	513.110725	10.181312	-31.506413	0.080154	6.140276	1.984233
1.010	3.197247	-1.371164	513.973660	10.221982	-31.579015	0.078776	6.144092	1.988814
1.020	3.244185	-1.409949	514.709673	10.257571	-31.663260	0.073976	6.151674	1.992885
1.030	3.306982	-1.418220	515.255364	10.286109	-31.754477	0.068303	6.162862	1.996313
1.040	3.387883	-1.388886	515.572394	10.308422	-31.854261	0.063193	6.178426	1.999413
1.050	3.501789	-1.320350	515.639081	10.327048	-31.967676	0.058635	6.199622	2.002767
1.060	3.668723	-1.215219	515.437472	10.344611	-32.098720	0.053457	6.227471	2.006957
1.070	3.902240	-1.080179	514.944923	10.362108	-32.246183	0.046056	6.262064	2.012275
1.080	4.199004	-0.926841	514.136914	10.377782	-32.401801	0.035235	6.302174	2.018486
1.090	4.534731	-0.771959	513.001988	10.387121	-32.551627	0.020840	6.345322	2.024772
1.100	4.869043	-0.635357	511.562828	10.384138	-32.680185	0.003957	6.388303	2.029885
1.110	5.157682	-0.535424	509.893170	10.363408	-32.775744	-0.013349	6.427963	2.032467
1.120	5.366962	-0.483839	508.120661	10.322078	-32.834490	-0.028644	6.461947	2.031423
1.130	5.484154	-0.482054	506.411159	10.261093	-32.861799	-0.039855	6.489154	2.026238
1.140	5.519523	-0.521288	504.938106	10.185274	-32.870181	-0.045856	6.509745	2.017133
1.150	5.499778	-0.585880	503.847917	10.102324	-32.874959	-0.046666	6.524778	2.005034
1.160	5.456525	-0.658241	503.234212	10.021220	-32.889677	-0.043192	6.535660	1.991363
1.170	5.415216	-0.723217	503.128279	9.950592	-32.923013	-0.036720	6.543662	1.977744
1.180	5.389060	-0.770476	503.504123	9.897470	-32.977955	-0.028423	6.549689	1.965718
1.190	5.379314	-0.794868	504.290753	9.866450	-33.052755	-0.019155	6.554305	1.956500
1.200	5.379883	-0.795673	505.385159	9.859174	-33.142505	-0.009521	6.557871	1.950824
1.210	5.382489	-0.775844	506.663681	9.874060	-33.240298	-0.000103	6.560624	1.948839
1.220	5.379660	-0.741666	507.992916	9.906291	-33.337782	0.008389	6.562647	1.950084
1.230	5.365395	-0.702536	509.242135	9.947994	-33.425589	0.015201	6.563791	1.953490
1.240	5.335258	-0.670388	510.297512	9.988624	-33.494315	0.019829	6.563684	1.957412
1.250	5.287303	-0.658327	511.075558	10.015713	-33.536234	0.022376	6.561894	1.959732
1.260	5.223409	-0.678228	511.531354	10.016322	-33.547127	0.023783	6.558176	1.958105
1.270	5.149239	-0.737476	511.658635	9.979360	-33.527199	0.025837	6.552650	1.950394
1.280	5.071694	-0.835781	511.483120	9.898509	-33.480369	0.030886	6.545743	1.935256
1.290	4.994840	-0.963635	511.054516	9.774943	-33.412300	0.041206	6.537913	1.912701
1.300	4.917126	-1.103617	510.441942	9.618785	-33.328470	0.058057	6.529336	1.884403
1.310	4.832532	-1.234504	509.732041	9.448349	-33.233490	0.080756	6.519796	1.853591
1.320	4.735772	-1.336795	509.024203	9.286877	-33.131802	0.106302	6.508885	1.824447
1.330	4.628446	-1.397735	508.418512	9.157343	-33.028837	0.129961	6.496388	1.801143
1.340	4.521570	-1.414376	507.998272	9.076770	-32.931560	0.146727	6.482613	1.786772
1.350	4.431995	-1.393977	507.814504	9.051916	-32.847984	0.153034	6.468501	1.782524
1.360	4.374537	-1.351689	507.880279	9.077888	-32.785949	0.147964	6.455448	1.787407
1.370	4.354817	-1.306026	508.177479	9.140196	-32.751779	0.133469	6.444949	1.798623
1.380	4.367272	-1.273331	508.671065	9.219325	-32.749318	0.113632	6.438211	1.812433
1.390	4.399209	-1.263088	509.321534	9.295994	-32.779551	0.093351	6.435925	1.825172
1.400	4.438091	-1.275871	510.088208	9.355364	-32.840674	0.076949	6.438234	1.834068
1.410	4.477773	-1.304622	510.922819	9.389237	-32.928231	0.067125	6.444854	1.837702
1.420	4.520439	-1.338358	511.759783	9.396289	-33.035099	0.064476	6.455196	1.836074
1.430	4.573538	-1.366384	512.512157	9.380830	-33.151488	0.067613	6.468430	1.830362
1.440	4.643698	-1.381300	513.078732	9.350699	-33.265437	0.073747	6.483496	1.822469
1.450	4.731179	-1.380156	513.360870	9.314856	-33.364188	0.079524	6.499169	1.814485
1.460	4.828102	-1.364333	513.283082	9.281212	-33.436308	0.081890	6.514204	1.808205
1.470	4.921446	-1.339085	512.810968	9.255137	-33.473845	0.078792	6.527521	1.804785
1.480	4.998877	-1.312986	511.961964	9.238850	-33.473799	0.069603	6.538337	1.804597
1.490	5.053799	-1.296674	510.806201	9.231564	-33.438499	0.055177	6.546220	1.807254
1.500	5.086872	-1.300339	509.457164	9.230276	-33.374962	0.037542	6.551083	1.811787
1.510	5.103799	-1.330408	508.054539	9.231058	-33.293507	0.019275	6.553136	1.816942
1.520	5.111440	-1.386751	506.743076	9.230582	-33.205919	0.002740	6.552812	1.821551
1.530	5.114806	-1.461695	505.651101	9.227371	-33.123419	-0.010605	6.550647	1.824849
1.540	5.116171	-1.541367	504.871946	9.222299	-33.054677	-0.020546	6.547141	1.826661
1.550	5.115552	-1.609001	504.451555	9.218200	-33.004106	-0.027957	6.542572	1.827371
1.560	5.110917	-1.649080	504.385202	9.218865	-32.970800	-0.034184	6.536829	1.827743
1.570	5.097401	-1.650937	504.624747	9.227915	-32.948592	-0.040271	6.529325	1.828669
1.580	5.066700	-1.610843	505.095337	9.248068	-32.927662	-0.046435	6.519098	1.830955
1.590	5.008700	-1.532353	505.717176	9.281012	-32.897614	-0.052040	6.505141	1.835218
1.600	4.916077	-1.425329	506.425310	9.327571	-32.851131	-0.056063	6.486866	1.841845
1.610	4.790017	-1.304293	507.180202	9.387593	-32.786711	-0.057714	6.464509	1.850938
1.620	4.643491	-1.186540	507.965390	9.459283	-32.709105	-0.056834	6.439239	1.862190
1.630	4.499059	-1.089922	508.774616	9.538390	-32.627184	-0.053905	6.412895	1.874777
1.640	4.381126	-1.030083	509.596162	9.618051	-32.550279	-0.049767	6.387465	1.887387
1.650	4.306105	-1.017346	510.403508	9.689848	-32.484757	-0.045264	6.364525	1.898468
1.660	4.275655	-1.053948	511.157175	9.745982	-32.432333	-0.041007	6.344885	1.906651
1.670	4.276706	-1.132535	511.815296	9.781854	-32.390591	-0.037317	6.328570	1.911208
1.680	4.288202	-1.236671	512.345335	9.797963	-32.355125	-0.034339	6.315101	1.912375
1.690	4.290904	-1.343693	512.730250	9.800186	-32.322023	-0.032184	6.303904	1.911373
1.700	4.275252	-1.429579	512.967386	9.798216	-32.289555	-0.030974	6.294661	1.910105
1.710	4.243923	-1.474657	513.063186	9.802901	-32.258701	-0.030697	6.287471	1.910662
1.720	4.208831	-1.468299	513.028655	9.823656	-32.232850	-0.030952	6.282856	1.914836
1.730	4.184973	-1.410962	512.878986	9.866923	-32.217211	-0.030790	6.281640	1.923831
1.740	4.184568	-1.312991	512.636652	9.935900	-32.218093	-0.028881	6.284781	1.938195
1.750	4.214201	-1.190978	512.333567	10.031106	-32.241865	-0.024059	6.293139	1.957925
1.760	4.275665	-1.063114	512.007640	10.151094	-32.293401	-0.016028	6.307211	1.982606
1.770	4.369026	-0.944950	511.692440	10.292784	-32.374186	-0.005819	6.326884	2.011518
1.780	4.495165	-0.846543	511.403035	10.451346	-32.480642	0.004323	6.351281	2.043661
1.790	4.655430	-0.771417	511.124202	10.619932	-32.603447	0.011654	6.378772	2.077760
1.800	4.848079	-0.717236	510.807710	10.789775	-32.728341	0.013951	6.407174	2.112297
1.810	5.063816	-0.677688	510.382856	10.951001	-32.838518	0.010392	6.434095	2.145644
1.820	5.283943	-0.644842	509.779376	11.094185	-32.918113	0.001983	6.457325	2.176272
1.830	5.483575	-0.611173	508.955871	11.212230	-32.955896	-0.008621	6.475197	2.202987
1.840	5.639324	-0.570725	507.923040	11.301971	-32.948009	-0.017848	6.486811	2.225135
1.850	5.737904	-0.519491	506.751939	11.364944	-32.898846	-0.022254	6.492101	2.242704
1.860	5.781049	-0.455540	505.563310	11.407068	-32.819670	-0.019542	6.491703	2.256308
1.870	5.784044	-0.379462	504.501903	11.437287	-32.725304	-0.009195	6.486656	2.267045
1.880	5.768658	-0.295212	503.704979	11.465412	-32.629823	0.007459	6.477963	2.276216
1.890	5.753891	-0.210763	503.274216	11.499735	-32.542520	0.027745	6.466161	2.284984
1.900	5.748186	-0.137588	503.256519	11.545234	-32.465341	0.048512	6.451052	2.294105
1.910	5.745122	-0.088361	503.635977	11.603121	-32.392571	0.067085	6.431743	2.303871
1.920	5.723305	-0.073252	504.338134	11.671838	-32.312922	0.081980	6.406996	2.314288
1.930	5.651021	-0.096054	505.247126	11.748821	-32.213381	0.093173	6.375767	2.325361
1.940	5.495965	-0.151585	506.233143	11.831997	-32.083558	0.101915	6.337704	2.337262
1.950	5.238329	-0.225346	507.183056	11.920493	-31.919154	0.110200	6.293419	2.350333
1.960	4.882527	-0.295725	508.024442	12.014793	-31.723590	0.120048	6.244501	2.365003
1.970	4.461567	-0.338453	508.735650	12.116771	-31.507478	0.132793	6.193291	2.381742
1.980	4.030574	-0.332394	509.340634	12.229601	-31.286210	0.148627	6.142492	2.401065
1.990	3.651144	-0.265069	509.892858	12.357192	-31.076387	0.166561	6.094690	2.423488
2.000	3.372823	-0.136210	510.454111	12.502983	-30.892058	0.184779	6.051878	2.449384
2.010	3.219080	0.041837	511.072597	12.668424	-30.741678	0.201169	6.015129	2.478791
2.020	3.182411	0.246889	511.764167	12.851776	-30.626455	0.213796	5.984486	2.511269
2.030	3.228985	0.451959	512.501788	13.047716	-30.540446	0.221249	5.959091	2.545887
2.040	3.309985	0.631135	513.217802	13.247915	-30.472454	0.222853	5.937529	2.581344
2.050	3.375689	0.765096	513.819162	13.442422	-30.409340	0.218746	5.918296	2.616178
2.060	3.388811	0.845393	514.210664	13.621532	-30.339888	0.209780	5.900284	2.649018
2.070	3.334386	0.876648	514.318792	13.777707	-30.258004	0.197274	5.883122	2.678826
2.080	3.223805	0.875717	514.109236	13.907189	-30.164090	0.182717	5.867253	2.705104
2.090	3.091163	0.867262	513.593434	14.010936	-30.064111	0.167488	5.853679	2.728021
2.100	2.981957	0.876329	512.823317	14.094500	-29.966890	0.152624	5.843512	2.748413
2.110	2.937341	0.920005	511.877774	14.166636	-29.880804	0.138672	5.837488	2.767582
2.120	2.979662	1.001145	510.846536	14.236832	-29.811154	0.125655	5.835638	2.786910
2.130	3.104958	1.106843	509.816116	14.312533	-29.758914	0.113161	5.837186	2.807391
2.140	3.285009	1.212649	508.859729	14.397169	-29.720962	0.100529	5.840698	2.829300
2.150	3.477452	1.291245	508.031593	14.489803	-29.691452	0.087135	5.844411	2.852146
2.160	3.639435	1.322468	507.365866	14.586559	-29.663863	0.072780	5.846641	2.874959
2.170	3.739799	1.300951	506.880334	14.683103	-29.633193	0.058037	5.846191	2.896759
2.180	3.766303	1.238454	506.583622	14.776946	-29.597640	0.044337	5.842597	2.916981
2.190	3.726681	1.160036	506.482592	14.868425	-29.559065	0.033648	5.836146	2.935624
2.200	3.644219	1.095920	506.585469	14.960094	-29.521973	0.027841	5.827639	2.953123
2.210	3.549721	1.072626	506.898202	15.055162	-29.491489	0.028037	5.818030	2.970056
2.220	3.472296	1.106644	507.416100	15.155929	-29.471361	0.034189	5.808125	2.986884
2.230	3.431591	1.201854	508.115914	15.262853	-29.462861	0.045031	5.798453	3.003813
2.240	3.433607	1.350037	508.952538	15.374258	-29.464853	0.058350	5.789313	3.020765
2.250	3.471090	1.533138	509.861426	15.486419	-29.474672	0.071539	5.780918	3.037378
2.260	3.528065	1.726497	510.765862	15.593868	-29.489157	0.082292	5.773518	3.053036
2.270	3.586607	1.902864	511.587258	15.689975	-29.505307	0.089243	5.767405	3.066921
2.280	3.633256	2.037163	512.255449	15.767945	-29.520417	0.092252	5.762831	3.078141
2.290	3.662748	2.111548	512.715933	15.822033	-29.532057	0.092230	5.759926	3.085926
2.300	3.678014	2.119530	512.933355	15.848615	-29.538338	0.090609	5.758709	3.089800
2.310	3.687072	2.067547	512.893719	15.846780	-29.538624	0.088758	5.759210	3.089681
2.320	3.698853	1.972941	512.608013	15.818307	-29.534359	0.087603	5.761588	3.085849
2.330	3.720478	1.858732	512.115952	15.767069	-29.529392	0.087577	5.766153	3.078808
2.340	3.757141	1.746887	511.484102	15.698011	-29.529233	0.088823	5.773246	3.069110
2.350	3.813405	1.652424	510.793513	15.616063	-29.539165	0.091452	5.782995	3.057216
2.360	3.893353	1.580512	510.118244	15.525538	-29.561729	0.095683	5.795074	3.043517
2.370	3.998004	1.527727	509.502627	15.430462	-29.594610	0.101752	5.808529	3.028534
2.380	4.120963	1.486857	508.947453	15.335645	-29.629910	0.109682	5.821801	3.013208
