Time[s]	Fx[N]	Fy[N]	Fz[N]	Mx[Nm]	My[Nm]	Mz[Nm]	COPx[cm]	COPy[cm]
0.010	-1.885068	4.120610	547.630335	-1.714988	13.393380	0.204483	-2.445697	-0.313165
0.020	-1.727257	4.049657	548.063685	-1.713494	13.437320	0.194289	-2.451781	-0.312645
0.030	-1.545174	4.012047	548.324426	-1.708929	13.463982	0.182321	-2.455477	-0.311664
0.040	-1.325385	4.030785	548.280706	-1.698775	13.459467	0.167932	-2.454850	-0.309837
0.050	-1.070184	4.112072	547.858326	-1.680891	13.415353	0.151821	-2.448690	-0.306811
0.060	-0.794783	4.244052	547.045868	-1.653665	13.328748	0.135690	-2.436496	-0.302290
0.070	-0.518212	4.401516	545.884024	-1.616274	13.200967	0.121337	-2.418273	-0.296084
0.080	-0.252673	4.554667	544.446163	-1.568975	13.036063	0.109680	-2.394371	-0.288178
0.090	0.003014	4.678590	542.818770	-1.513343	12.840077	0.100253	-2.365445	-0.278793
0.100	0.262244	4.760121	541.088254	-1.452388	12.621021	0.091373	-2.332525	-0.268420
0.110	0.541908	4.800165	539.336857	-1.390541	12.388977	0.080851	-2.297076	-0.257824
0.120	0.850246	4.811328	537.646222	-1.333390	12.155628	0.066895	-2.260897	-0.248005
0.130	1.177370	4.812314	536.103759	-1.287087	11.932952	0.048864	-2.225866	-0.240082
0.140	1.493684	4.821245	534.805953	-1.257446	11.731223	0.027595	-2.193548	-0.235122
0.150	1.757771	4.849927	533.854621	-1.248992	11.556751	0.005239	-2.164775	-0.233957
0.160	1.930749	4.900297	533.345023	-1.264319	11.409966	-0.015310	-2.139322	-0.237055
0.170	1.990974	4.963729	533.347588	-1.303907	11.284604	-0.031213	-2.115807	-0.244476
0.180	1.943151	5.023467	533.888163	-1.366126	11.168568	-0.040519	-2.091930	-0.255882
0.190	1.818787	5.059894	534.933886	-1.447090	11.046498	-0.042800	-2.065021	-0.270518
0.200	1.668456	5.057276	536.390511	-1.540333	10.903324	-0.039363	-2.032721	-0.287166
0.210	1.548842	5.009569	538.112208	-1.636690	10.727709	-0.032934	-1.993582	-0.304154
0.220	1.508884	4.922998	539.919939	-1.724958	10.514397	-0.026848	-1.947399	-0.319484
0.230	1.579404	4.814627	541.622753	-1.793564	10.264936	-0.024056	-1.895219	-0.331146
0.240	1.768952	4.707945	543.037884	-1.832956	9.986773	-0.026288	-1.839056	-0.337537
0.250	2.065725	4.627373	544.008053	-1.837933	9.691141	-0.033649	-1.781433	-0.337850
0.260	2.443105	4.593203	544.415651	-1.808982	9.390537	-0.044727	-1.724884	-0.332280
0.270	2.865872	4.617750	544.193479	-1.752048	9.096651	-0.057107	-1.671584	-0.321953
0.280	3.295553	4.703122	543.331722	-1.676829	8.819317	-0.068073	-1.623192	-0.308620
0.290	3.694969	4.841020	541.881026	-1.594367	8.566444	-0.075299	-1.580872	-0.294228
0.300	4.032606	5.014743	539.950645	-1.514845	8.344467	-0.077418	-1.545413	-0.280552
0.310	4.286612	5.203013	537.699341	-1.446154	8.158767	-0.074392	-1.517347	-0.268952
0.320	4.447179	5.384571	535.317544	-1.393117	8.013808	-0.067592	-1.497019	-0.260241
0.330	4.516050	5.542317	533.003225	-1.356990	7.913072	-0.059493	-1.484620	-0.254593
0.340	4.502972	5.666160	530.938287	-1.335242	7.859008	-0.053008	-1.480211	-0.251487
0.350	4.420286	5.754006	529.273159	-1.322077	7.852967	-0.050609	-1.483727	-0.249791
0.360	4.277628	5.810598	528.123053	-1.310101	7.894951	-0.053574	-1.494908	-0.248067
0.370	4.078748	5.844414	527.572705	-1.292789	7.983006	-0.061596	-1.513157	-0.245045
0.380	3.821817	5.863721	527.681856	-1.266735	8.112431	-0.072866	-1.537372	-0.240056
0.390	3.503534	5.873509	528.484423	-1.232702	8.275146	-0.084569	-1.565826	-0.233252
0.400	3.125815	5.874685	529.979337	-1.195200	8.459554	-0.093657	-1.596204	-0.225518
0.410	2.702213	5.865729	532.116519	-1.160984	8.651160	-0.097749	-1.625802	-0.218182
0.420	2.260655	5.845727	534.784365	-1.137129	8.834051	-0.095903	-1.651890	-0.212633
0.430	1.840277	5.816982	537.805111	-1.129235	8.993123	-0.088966	-1.672190	-0.209971
0.440	1.482826	5.785714	540.942844	-1.140163	9.116542	-0.079306	-1.685306	-0.210773
0.450	1.221669	5.760318	543.925933	-1.169638	9.197570	-0.070002	-1.690960	-0.215036
0.460	1.072718	5.747868	546.481665	-1.214830	9.234925	-0.063773	-1.689887	-0.222300
0.470	1.030754	5.750574	548.377241	-1.271663	9.231475	-0.062059	-1.683417	-0.231896
0.480	1.072411	5.764290	549.458548	-1.336444	9.191907	-0.064550	-1.672903	-0.243229
0.490	1.164339	5.780231	549.676666	-1.407330	9.120433	-0.069260	-1.659236	-0.256029
0.500	1.273395	5.789077	549.093650	-1.485200	9.019485	-0.073088	-1.642613	-0.270482
0.510	1.375421	5.785061	547.864872	-1.573542	8.889683	-0.072684	-1.622605	-0.287214
0.520	1.460257	5.767629	546.202889	-1.677269	8.730668	-0.065396	-1.598429	-0.307078
0.530	1.532144	5.739853	544.333415	-1.800792	8.542116	-0.050033	-1.569280	-0.330825
0.540	1.606056	5.704736	542.455471	-1.946078	8.324387	-0.027206	-1.534575	-0.358754
0.550	1.701394	5.661685	540.715523	-2.111451	8.078697	0.000850	-1.494075	-0.390492
0.560	1.835021	5.605195	539.200708	-2.291641	7.807024	0.030924	-1.447888	-0.425007
0.570	2.015672	5.526440	537.949695	-2.479249	7.511988	0.059689	-1.396411	-0.460870
0.580	2.241473	5.416800	536.972880	-2.667251	7.196824	0.084532	-1.340258	-0.496720
0.590	2.501216	5.271486	536.269924	-2.851695	6.865415	0.104106	-1.280216	-0.531765
0.600	2.778607	5.091791	535.835867	-3.033427	6.522344	0.118533	-1.217228	-0.566111
0.610	3.057475	4.885420	535.655851	-3.217919	6.172925	0.129232	-1.152405	-0.600744
0.620	3.325668	4.665182	535.696330	-3.413008	5.823101	0.138440	-1.087015	-0.637116
0.630	3.576147	4.446636	535.901789	-3.625429	5.479051	0.148472	-1.022398	-0.676510
0.640	3.805412	4.245228	536.200748	-3.857657	5.146512	0.160915	-0.959811	-0.719443
0.650	4.010923	4.073211	536.518355	-4.106436	4.830071	0.176073	-0.900262	-0.765386
0.660	4.189550	3.936709	536.789825	-4.363461	4.532803	0.192960	-0.844428	-0.812881
0.670	4.338185	3.833760	536.970008	-4.617654	4.256448	0.209855	-0.792679	-0.859946
0.680	4.455976	3.754656	537.037177	-4.857918	4.002024	0.225125	-0.745204	-0.904578
0.690	4.546267	3.685295	536.991757	-5.075328	3.770503	0.237847	-0.702153	-0.945141
0.700	4.616163	3.612545	536.852399	-5.264199	3.563092	0.247925	-0.663700	-0.980567
0.710	4.673056	3.529084	536.652459	-5.422112	3.380806	0.255721	-0.629981	-1.010358
0.720	4.719974	3.435335	536.438682	-5.549357	3.223368	0.261464	-0.600883	-1.034481
0.730	4.753226	3.337844	536.270896	-5.648299	3.087837	0.264857	-0.575798	-1.053255
0.740	4.764819	3.245344	536.219044	-5.722950	2.967667	0.265163	-0.553443	-1.067278
0.750	4.748885	3.164661	536.354490	-5.778795	2.852836	0.261738	-0.531894	-1.077421
0.760	4.708419	3.098179	536.735829	-5.822623	2.731276	0.254651	-0.508868	-1.084821
0.770	4.658244	3.043307	537.393194	-5.862067	2.591227	0.244945	-0.482185	-1.090834
0.780	4.622420	2.993358	538.316978	-5.904611	2.423585	0.234343	-0.450215	-1.096865
0.790	4.627335	2.939135	539.455616	-5.956229	2.223233	0.224533	-0.412125	-1.104118
0.800	4.693749	2.871139	540.723162	-6.020191	1.988914	0.216428	-0.367825	-1.113359
0.810	4.831359	2.782453	542.013438	-6.096688	1.721929	0.209817	-0.317691	-1.124822
0.820	5.038094	2.671826	543.215796	-6.183480	1.424483	0.203593	-0.262231	-1.138310
0.830	5.303862	2.545639	544.228571	-6.277154	1.098542	0.196412	-0.201853	-1.153404
0.840	5.616180	2.417396	544.968653	-6.374196	0.745624	0.187445	-0.136820	-1.169645
0.850	5.964456	2.304344	545.377762	-6.471273	0.367382	0.176843	-0.067363	-1.186567
0.860	6.341220	2.222222	545.426537	-6.564762	-0.033516	0.165726	0.006145	-1.203602
0.870	6.740869	2.180067	545.116376	-6.650195	-0.452735	0.155746	0.083053	-1.219959
0.880	7.157643	2.177044	544.477314	-6.722390	-0.884197	0.148409	0.162394	-1.234650
0.890	7.584248	2.202631	543.560384	-6.776544	-1.320601	0.144443	0.242954	-1.246696
0.900	8.011703	2.240285	542.425742	-6.809770	-1.754273	0.143422	0.323413	-1.255429
0.910	8.430258	2.273324	541.131455	-6.822233	-2.178006	0.143783	0.402491	-1.260735
0.920	8.830768	2.290693	539.728633	-6.817243	-2.585654	0.143286	0.479066	-1.263087
0.930	9.205807	2.290296	538.265215	-6.800342	-2.972491	0.139808	0.552235	-1.263381
0.940	9.550193	2.278682	536.795103	-6.777892	-3.335441	0.132187	0.621362	-1.262659
0.950	9.861045	2.267424	535.385449	-6.755718	-3.673143	0.120787	0.686075	-1.261842
0.960	10.137615	2.267876	534.115606	-6.738127	-3.985692	0.107473	0.746223	-1.261548
0.970	10.380758	2.286529	533.066055	-6.727323	-4.273959	0.094937	0.801769	-1.262006
0.980	10.591728	2.322705	532.301042	-6.723292	-4.538632	0.085629	0.852644	-1.263062
0.990	10.770577	2.369105	531.851531	-6.724171	-4.779264	0.080813	0.898609	-1.264295
1.000	10.915213	2.414568	531.704952	-6.727034	-4.993671	0.080211	0.939181	-1.265182
1.010	11.022210	2.447910	531.806021	-6.728814	-5.177909	0.082321	0.973646	-1.265276
1.020	11.089353	2.461763	532.069364	-6.727059	-5.326924	0.085131	1.001171	-1.264320
1.030	11.118404	2.455294	532.400064	-6.720365	-5.435639	0.086821	1.020969	-1.262277
1.040	11.116003	2.434819	532.714649	-6.708361	-5.500022	0.086187	1.032452	-1.259279
1.050	11.091601	2.411966	532.955125	-6.691240	-5.517716	0.082750	1.035306	-1.255498
1.060	11.053246	2.400246	533.092765	-6.669070	-5.488073	0.076628	1.029478	-1.251015
1.070	11.003261	2.411416	533.123634	-6.641374	-5.411747	0.068342	1.015102	-1.245747
1.080	10.935812	2.452508	533.061261	-6.607301	-5.290148	0.058621	0.992409	-1.239501
1.090	10.837410	2.523616	532.932229	-6.566182	-5.125099	0.048247	0.961679	-1.232086
1.100	10.690418	2.616636	532.777534	-6.517985	-4.918916	0.037905	0.923259	-1.223397
1.110	10.478750	2.715756	532.657319	-6.463334	-4.674890	0.028059	0.877654	-1.213413
1.120	10.194080	2.800424	532.652286	-6.403205	-4.397878	0.018881	0.825656	-1.202136
1.130	9.840253	2.850478	532.855303	-6.338615	-4.094572	0.010260	0.768421	-1.189557
1.140	9.433932	2.851967	533.351954	-6.270403	-3.773131	0.001893	0.707437	-1.175660
1.150	9.000926	2.801880	534.195559	-6.199023	-3.442185	-0.006538	0.644368	-1.160441
1.160	8.569556	2.710379	535.386681	-6.124311	-3.109643	-0.015183	0.580822	-1.143904
1.170	8.163806	2.599758	536.866889	-6.045374	-2.781921	-0.023929	0.518177	-1.126047
1.180	7.799119	2.500032	538.531016	-5.960808	-2.464060	-0.032461	0.457552	-1.106864
1.190	7.482393	2.441930	540.253553	-5.869306	-2.160602	-0.040431	0.399924	-1.086398
1.200	7.215666	2.449027	541.917586	-5.770317	-1.876574	-0.047607	0.346284	-1.064796
1.210	7.001066	2.531329	543.433530	-5.664330	-1.617788	-0.053902	0.297697	-1.042322
1.220	6.844033	2.682420	544.740503	-5.552542	-1.390114	-0.059244	0.255188	-1.019300
1.230	6.752991	2.881148	545.792385	-5.436177	-1.198049	-0.063359	0.219506	-0.996016
1.240	6.735851	3.097316	546.538310	-5.315928	-1.043254	-0.065625	0.190884	-0.972654
1.250	6.795510	3.299517	546.909953	-5.191839	-0.923619	-0.065120	0.168879	-0.949304
1.260	6.926780	3.462628	546.824306	-5.063513	-0.833065	-0.060843	0.152346	-0.925985
1.270	7.115822	3.572833	546.202443	-4.930229	-0.762007	-0.051995	0.139510	-0.902638
1.280	7.341506	3.629249	544.996251	-4.790614	-0.698243	-0.038246	0.128119	-0.879018
1.290	7.577356	3.642626	543.211192	-4.641891	-0.628108	-0.019955	0.115629	-0.854528
1.300	7.793357	3.632401	540.916224	-4.479220	-0.537722	0.001639	0.099409	-0.828080
1.310	7.957888	3.623293	538.239724	-4.295801	-0.414232	0.024365	0.076961	-0.798120
1.320	8.040519	3.641781	535.356612	-4.084142	-0.246966	0.045294	0.046131	-0.762883
1.330	8.016121	3.712175	532.472644	-3.838374	-0.028471	0.061149	0.005347	-0.720858
1.340	7.869945	3.852123	529.808502	-3.557047	0.244624	0.068921	-0.046172	-0.671383
1.350	7.602446	4.068382	527.583338	-3.245533	0.571122	0.066630	-0.108252	-0.615170
1.360	7.231855	4.354474	525.996831	-2.916952	0.945400	0.054073	-0.179735	-0.554557
1.370	6.792319	4.691529	525.209632	-2.590722	1.358325	0.033303	-0.258625	-0.493274
1.380	6.326632	5.052193	525.323423	-2.288623	1.798755	0.008496	-0.342409	-0.435660
1.390	5.875146	5.406150	526.363464	-2.029490	2.255177	-0.014900	-0.428445	-0.385568
1.400	5.464895	5.725365	528.267838	-1.824472	2.717032	-0.031534	-0.514328	-0.345369
1.410	5.103568	5.987737	530.887269	-1.674702	3.175532	-0.037549	-0.598156	-0.315453
1.420	4.780783	6.178651	533.997147	-1.572124	3.624050	-0.031487	-0.678665	-0.294407
1.430	4.475507	6.290787	537.320632	-1.502904	4.058232	-0.014420	-0.755272	-0.279703
1.440	4.165829	6.323213	540.559870	-1.451962	4.475958	0.010645	-0.828023	-0.268603
1.450	3.837012	6.281061	543.431176	-1.407032	4.877197	0.039812	-0.897482	-0.258916
1.460	3.485477	6.176295	545.698659	-1.361105	5.263725	0.069360	-0.964585	-0.249424
1.470	3.118449	6.028673	547.199858	-1.312719	5.638675	0.096515	-1.030460	-0.239898
1.480	2.750611	5.865110	547.858442	-1.264356	6.005873	0.119745	-1.096245	-0.230781
1.490	2.399846	5.716270	547.683279	-1.219842	6.368927	0.138573	-1.162885	-0.222728
1.500	2.083967	5.610867	546.757703	-1.181942	6.730122	0.153119	-1.230915	-0.216173
1.510	1.818962	5.569568	545.224614	-1.151068	7.089372	0.163644	-1.300266	-0.211118
1.520	1.617619	5.600679	543.271302	-1.125381	7.443685	0.170337	-1.370160	-0.207149
1.530	1.486908	5.699042	541.114379	-1.101736	7.787622	0.173389	-1.439182	-0.203605
1.540	1.423698	5.848178	538.983238	-1.076678	8.114776	0.173220	-1.505571	-0.199761
1.550	1.410636	6.024561	537.101047	-1.047058	8.419651	0.170671	-1.567610	-0.194946
1.560	1.415387	6.202548	535.664161	-1.010485	8.698956	0.166992	-1.623957	-0.188641
1.570	1.395950	6.359020	534.822253	-0.965888	8.951622	0.163585	-1.673756	-0.180600
1.580	1.312093	6.477280	534.661636	-0.914083	9.177702	0.161621	-1.716544	-0.170965
1.590	1.139325	6.549601	535.193658	-0.857861	9.376935	0.161715	-1.752064	-0.160290
1.600	0.879622	6.577547	536.350022	-0.801403	9.547867	0.163794	-1.780156	-0.149418
1.610	0.564132	6.569553	537.987642	-0.749271	9.687858	0.167198	-1.800758	-0.139273
1.620	0.246623	6.536423	539.905489	-0.705439	9.793734	0.170932	-1.813972	-0.130660
1.630	-0.009842	6.486670	541.872980	-0.672685	9.862588	0.173947	-1.820092	-0.124141
1.640	-0.148466	6.424106	543.664578	-0.652366	9.892416	0.175425	-1.819581	-0.119994
1.650	-0.132034	6.349009	545.091134	-0.644396	9.882670	0.175022	-1.813031	-0.118218
1.660	0.049165	6.262201	546.018799	-0.647238	9.834874	0.172991	-1.801197	-0.118538
1.670	0.376187	6.169432	546.372062	-0.657905	9.753300	0.170079	-1.785102	-0.120413
1.680	0.806601	6.083029	546.125422	-0.672187	9.645368	0.167163	-1.766145	-0.123083
1.690	1.283936	6.019077	545.292796	-0.685391	9.521395	0.164809	-1.746107	-0.125692
1.700	1.748704	5.991017	543.922145	-0.693529	9.393506	0.162963	-1.726995	-0.127505
1.710	2.148726	6.002880	542.096893	-0.694428	9.273900	0.160953	-1.710746	-0.128100
1.720	2.447362	6.045978	539.939645	-0.688135	9.172959	0.157797	-1.698886	-0.127447
1.730	2.628700	6.101236	537.611289	-0.676445	9.097795	0.152665	-1.692263	-0.125824
1.740	2.698770	6.146400	535.300794	-0.661962	9.051664	0.145229	-1.690949	-0.123662
1.750	2.682087	6.164778	533.205685	-0.647178	9.034360	0.135668	-1.694348	-0.121375
1.760	2.613763	6.151474	531.506768	-0.633821	9.043374	0.124306	-1.701460	-0.119250
1.770	2.528873	6.114304	530.342315	-0.622584	9.075385	0.111169	-1.711231	-0.117393
1.780	2.452119	6.069203	529.787616	-0.613324	9.127634	0.095815	-1.722885	-0.115768
1.790	2.391303	6.032467	529.845704	-0.605688	9.198751	0.077662	-1.736119	-0.114314
1.800	2.337053	6.013518	530.453185	-0.599811	9.288715	0.056629	-1.751090	-0.113075
1.810	2.268948	6.011422	531.500340	-0.596587	9.397943	0.033654	-1.768191	-0.112246
1.820	2.165632	6.016463	532.858546	-0.597275	9.525955	0.010681	-1.787708	-0.112089
1.830	2.014752	6.015660	534.404520	-0.602630	9.670287	-0.009945	-1.809544	-0.112767
1.840	1.818475	5.999321	536.033486	-0.612047	9.826169	-0.026389	-1.833126	-0.114181
1.850	1.592243	5.965430	537.660776	-0.623182	9.986978	-0.038066	-1.857487	-0.115906
1.860	1.357819	5.920000	539.217877	-0.632369	10.145113	-0.045837	-1.881450	-0.117275
1.870	1.134850	5.873715	540.649948	-0.635840	10.292782	-0.051531	-1.903779	-0.117607
1.880	0.935870	5.836964	541.917672	-0.631289	10.422454	-0.057029	-1.923254	-0.116492
1.890	0.767159	5.815795	543.000445	-0.618954	10.526996	-0.063403	-1.938672	-0.113988
1.900	0.633710	5.810325	543.894790	-0.601573	10.599797	-0.070598	-1.948869	-0.110605
1.910	0.543974	5.815755	544.604344	-0.583316	10.635163	-0.077780	-1.952824	-0.107108
1.920	0.510737	5.825024	545.124506	-0.568384	10.629032	-0.084065	-1.949836	-0.104267
1.930	0.547491	5.831682	545.430260	-0.560007	10.579785	-0.089160	-1.939714	-0.102673
1.940	0.662582	5.831781	545.475452	-0.560117	10.488783	-0.093593	-1.922870	-0.102684
1.950	0.854527	5.824264	545.205767	-0.569524	10.360326	-0.098450	-1.900260	-0.104460
1.960	1.110862	5.810242	544.579898	-0.588313	10.201052	-0.104775	-1.873197	-0.108031
1.970	1.410810	5.791944	543.589154	-0.616331	10.019015	-0.112964	-1.843123	-0.113382
1.980	1.730130	5.772059	542.267700	-0.653705	9.822728	-0.122514	-1.811417	-0.120550
1.990	2.045906	5.753542	540.691798	-0.701286	9.620377	-0.132240	-1.779272	-0.129702
2.000	2.339646	5.739404	538.971319	-0.760778	9.419341	-0.140776	-1.747652	-0.141154
2.010	2.598283	5.731972	537.237145	-0.834328	9.226042	-0.147061	-1.717313	-0.155300
2.020	2.813565	5.731626	535.626267	-0.923576	9.045921	-0.150648	-1.688849	-0.172429
2.030	2.980568	5.735673	534.265892	-1.028408	8.883230	-0.151800	-1.662698	-0.192490
2.040	3.096213	5.738182	533.258917	-1.145855	8.740594	-0.151346	-1.639090	-0.214878
2.050	3.158828	5.731251	532.673386	-1.269660	8.618573	-0.150338	-1.617985	-0.238356
2.060	3.169402	5.707559	532.536825	-1.390964	8.515621	-0.149636	-1.599067	-0.261196
2.070	3.133884	5.663415	532.834161	-1.500155	8.428678	-0.149621	-1.581858	-0.281543
2.080	3.064555	5.600946	533.507974	-1.589281	8.354305	-0.150171	-1.565919	-0.297893
2.090	2.978458	5.528198	534.462454	-1.654107	8.289894	-0.150854	-1.551071	-0.309490
2.100	2.892782	5.456795	535.574587	-1.695275	8.234329	-0.151179	-1.537476	-0.316534
2.110	2.819609	5.398056	536.714165	-1.718496	8.187675	-0.150739	-1.525519	-0.320188
2.120	2.763324	5.359297	537.768348	-1.733885	8.150010	-0.149189	-1.515524	-0.322422
2.130	2.722408	5.341794	538.661231	-1.754334	8.120111	-0.146066	-1.507461	-0.325684
2.140	2.694281	5.341041	539.359474	-1.792823	8.094902	-0.140607	-1.500836	-0.332398
2.150	2.679838	5.348956	539.862111	-1.859112	8.070174	-0.131769	-1.494858	-0.344368
2.160	2.684497	5.357080	540.181155	-1.956886	8.042246	-0.118563	-1.488805	-0.362265
2.170	2.714819	5.359512	540.323870	-2.082471	8.009651	-0.100566	-1.482380	-0.385412
2.180	2.772494	5.354469	540.285655	-2.225687	7.973894	-0.078344	-1.475866	-0.411946
2.190	2.849173	5.344029	540.056145	-2.372538	7.938867	-0.053516	-1.470008	-0.439313
2.200	2.925491	5.332452	539.634098	-2.508838	7.909258	-0.028377	-1.465670	-0.464915
2.210	2.975632	5.323842	539.043061	-2.623668	7.888733	-0.005235	-1.463470	-0.486727
2.220	2.975980	5.319995	538.340616	-2.711665	7.878675	0.014268	-1.463511	-0.503708
2.230	2.914238	5.319139	537.617252	-2.773646	7.877764	0.029550	-1.465311	-0.515915
2.240	2.795047	5.316057	536.984602	-2.815709	7.882302	0.041077	-1.467882	-0.524356
2.250	2.639832	5.303524	536.556045	-2.847547	7.886961	0.050052	-1.469923	-0.530708
2.260	2.481031	5.274484	536.424340	-2.880635	7.885678	0.058015	-1.470045	-0.537007
2.270	2.352946	5.224246	536.640633	-2.926549	7.872574	0.066489	-1.467010	-0.545346
2.280	2.282228	5.152048	537.198724	-2.995317	7.842869	0.076711	-1.459957	-0.557581
2.290	2.280781	5.061368	538.029250	-3.093812	7.793785	0.089383	-1.448580	-0.575027
2.300	2.342928	4.958596	539.008602	-3.224613	7.725239	0.104447	-1.433231	-0.598249
2.310	2.447603	4.850273	539.983998	-3.385815	7.639973	0.120999	-1.414852	-0.627021
2.320	2.565086	4.739876	540.809626	-3.571989	7.542798	0.137462	-1.394723	-0.660489
2.330	2.666240	4.625640	541.383042	-3.775916	7.439004	0.152073	-1.374074	-0.697457
2.340	2.731041	4.500747	541.669632	-3.990512	7.332474	0.163512	-1.353680	-0.736706
2.350	2.753273	4.356227	541.707146	-4.210428	7.224149	0.171367	-1.333589	-0.777252
2.360	2.739929	4.185432	541.590244	-4.432987	7.111282	0.176165	-1.313037	-0.818513
2.370	2.706327	3.987778	541.442413	-4.658357	6.987571	0.178939	-1.290547	-0.860361
2.380	2.669851	3.769746	541.385152	-4.888953	6.844037	0.180653	-1.264171	-0.903045
