Time[s]	Fx[N]	Fy[N]	Fz[N]	Mx[Nm]	My[Nm]	Mz[Nm]	COPx[cm]	COPy[cm]
0.010	3.608695	-2.640431	612.975499	-6.424132	7.400416	-0.130999	-1.207294	-1.048024
0.020	3.668112	-2.616341	613.493394	-6.285680	7.437833	-0.130414	-1.212374	-1.024572
0.030	3.712807	-2.583705	613.799249	-6.153351	7.482156	-0.129305	-1.218991	-1.002502
0.040	3.732881	-2.536769	613.726063	-6.031286	7.538624	-0.127262	-1.228337	-0.982733
0.050	3.723541	-2.473477	613.187234	-5.920095	7.610240	-0.123925	-1.241096	-0.965463
0.060	3.684311	-2.396185	612.186779	-5.816625	7.697970	-0.119036	-1.257454	-0.950139
0.070	3.616424	-2.311193	610.811121	-5.715036	7.801397	-0.112505	-1.277219	-0.935647
0.080	3.520061	-2.227105	609.209826	-5.608900	7.919171	-0.104492	-1.299909	-0.920684
0.090	3.393114	-2.152400	607.571383	-5.493535	8.048947	-0.095431	-1.324774	-0.904179
0.100	3.232165	-2.092942	606.096992	-5.367508	8.186972	-0.085959	-1.350769	-0.885586
0.110	3.035199	-2.050236	604.973841	-5.232594	8.327707	-0.076743	-1.376540	-0.864929
0.120	2.804866	-2.021046	604.349995	-5.092259	8.463903	-0.068285	-1.400497	-0.842601
0.130	2.551082	-1.998482	604.314018	-4.949619	8.587289	-0.060774	-1.420998	-0.819048
0.140	2.292110	-1.974187	604.882232	-4.806040	8.689791	-0.054003	-1.436609	-0.794541
0.150	2.053549	-1.940974	605.995298	-4.661020	8.764961	-0.047465	-1.446374	-0.769151
0.160	1.864903	-1.895221	607.524918	-4.513171	8.809133	-0.040662	-1.450004	-0.742878
0.170	1.753936	-1.838281	609.291144	-4.361579	8.821881	-0.033572	-1.447893	-0.715845
0.180	1.740030	-1.776171	611.089379	-4.206863	8.805591	-0.026960	-1.440966	-0.688420
0.190	1.828726	-1.717190	612.722780	-4.051547	8.764352	-0.022273	-1.430394	-0.661237
0.200	2.009766	-1.668149	614.032310	-3.899519	8.702619	-0.021094	-1.417290	-0.635067
0.210	2.259801	-1.631010	614.915940	-3.754619	8.624122	-0.024375	-1.402488	-0.610591
0.220	2.548935	-1.601844	615.332102	-3.618809	8.531388	-0.031866	-1.386469	-0.588107
0.230	2.848450	-1.572726	615.288898	-3.490846	8.426016	-0.042031	-1.369441	-0.567351
0.240	3.136680	-1.535389	614.826113	-3.366396	8.309606	-0.052507	-1.351538	-0.547536
0.250	3.401129	-1.484550	613.998211	-3.239770	8.185020	-0.060914	-1.333069	-0.527651
0.260	3.636903	-1.419334	612.863339	-3.106500	8.057442	-0.065601	-1.314721	-0.506883
0.270	3.843150	-1.342491	611.478822	-2.965404	7.934646	-0.065996	-1.297616	-0.484956
0.280	4.019660	-1.258263	609.901392	-2.819133	7.826171	-0.062456	-1.283186	-0.462228
0.290	4.165065	-1.170217	608.190936	-2.672955	7.741626	-0.055803	-1.272894	-0.439493
0.300	4.276734	-1.080030	606.417135	-2.532347	7.688862	-0.046873	-1.267916	-0.417592
0.310	4.351683	-0.987570	604.666727	-2.400402	7.672709	-0.036309	-1.268915	-0.396979
0.320	4.387746	-0.892123	603.046635	-2.276051	7.694589	-0.024631	-1.275953	-0.377425
0.330	4.384575	-0.794220	601.678064	-2.153771	7.752901	-0.012458	-1.288546	-0.357961
0.340	4.344040	-0.697168	600.680188	-2.024915	7.843914	-0.000699	-1.305839	-0.337104
0.350	4.269688	-0.607269	600.147222	-1.880228	7.962996	0.009382	-1.326840	-0.313294
0.360	4.165170	-0.532279	600.126632	-1.712550	8.105958	0.016268	-1.350708	-0.285365
0.370	4.032173	-0.478691	600.606937	-1.518681	8.270165	0.018407	-1.376968	-0.252858
0.380	3.868841	-0.449067	601.520268	-1.299750	8.454889	0.014485	-1.405587	-0.216077
0.390	3.669929	-0.440532	602.758743	-1.060249	8.660641	0.003653	-1.436834	-0.175899
0.400	3.429458	-0.444827	604.198101	-0.806422	8.887704	-0.014348	-1.470992	-0.133470
0.410	3.145510	-0.449670	605.720234	-0.544788	9.134604	-0.039146	-1.508057	-0.089941
0.420	2.825176	-0.440796	607.228406	-0.281317	9.397259	-0.069726	-1.547566	-0.046328
0.430	2.486834	-0.404192	608.652837	-0.021335	9.669166	-0.104440	-1.588618	-0.003505
0.440	2.157738	-0.328242	609.947698	0.230119	9.942445	-0.141084	-1.630049	0.037728
0.450	1.867396	-0.205686	611.082773	0.467939	10.209224	-0.177065	-1.670678	0.076575
0.460	1.639555	-0.035239	612.034156	0.687021	10.462928	-0.209675	-1.709533	0.112252
0.470	1.486181	0.177389	612.778100	0.882881	10.699141	-0.236487	-1.746006	0.144078
0.480	1.405178	0.419331	613.290336	1.052712	10.915906	-0.255797	-1.779892	0.171650
0.490	1.381602	0.671408	613.550766	1.196417	11.113358	-0.266978	-1.811318	0.194999
0.500	1.391378	0.910203	613.551766	1.317008	11.292765	-0.270574	-1.840556	0.214653
0.510	1.406813	1.111593	613.307483	1.420002	11.455270	-0.268104	-1.867786	0.231532
0.520	1.403310	1.255442	612.860523	1.511925	11.600796	-0.261654	-1.892893	0.246700
0.530	1.365939	1.330176	612.281648	1.598449	11.727602	-0.253439	-1.915393	0.261064
0.540	1.293795	1.335474	611.659420	1.682758	11.832657	-0.245478	-1.934517	0.275114
0.550	1.200179	1.281739	611.080920	1.764654	11.912732	-0.239400	-1.949452	0.288776
0.560	1.108053	1.186347	610.609375	1.840631	11.965864	-0.236325	-1.959659	0.301442
0.570	1.042209	1.068278	610.266875	1.904850	11.992768	-0.236737	-1.965168	0.312134
0.580	1.021025	0.943638	610.028849	1.950760	11.997742	-0.240384	-1.966750	0.319782
0.590	1.050666	0.823911	609.832665	1.973018	11.988643	-0.246321	-1.965891	0.323534
0.600	1.123465	0.716811	609.597797	1.969219	11.975801	-0.253176	-1.964541	0.323036
0.610	1.220734	0.628033	609.251191	1.940891	11.970112	-0.259588	-1.964725	0.318570
0.620	1.318892	0.562193	608.749611	1.893309	11.980895	-0.264657	-1.968115	0.311016
0.630	1.396515	0.522447	608.091914	1.834167	12.014151	-0.268180	-1.975713	0.301627
0.640	1.439569	0.509547	607.318582	1.771581	12.071835	-0.270591	-1.987727	0.291705
0.650	1.443009	0.521357	606.500971	1.712155	12.152398	-0.272629	-2.003690	0.282300
0.660	1.408799	0.553206	605.724886	1.659800	12.252399	-0.274960	-2.022766	0.274019
0.670	1.341902	0.598759	605.072337	1.615677	12.368531	-0.277957	-2.044141	0.267022
0.680	1.246194	0.650957	604.604784	1.579040	12.499205	-0.281670	-2.067335	0.261169
0.690	1.121730	0.702956	604.351927	1.548267	12.645136	-0.285923	-2.092346	0.256186
0.700	0.964007	0.749147	604.310312	1.521421	12.808902	-0.290390	-2.119590	0.251762
0.710	0.765393	0.785956	604.453668	1.496218	12.993777	-0.294648	-2.149673	0.247532
0.720	0.518574	0.811783	604.751928	1.469857	13.202156	-0.298235	-2.183070	0.243051
0.730	0.221274	0.825742	605.190787	1.439180	13.433811	-0.300754	-2.219765	0.237806
0.740	-0.119462	0.825900	605.782197	1.401365	13.684378	-0.301985	-2.258960	0.231332
0.750	-0.485678	0.808402	606.560533	1.354950	13.944629	-0.301931	-2.298967	0.223382
0.760	-0.851095	0.768450	607.566130	1.300688	14.201011	-0.300809	-2.337360	0.214082
0.770	-1.187448	0.702893	608.822707	1.241657	14.437552	-0.298998	-2.371389	0.203944
0.780	-1.472153	0.613123	610.316689	1.182337	14.638613	-0.296993	-2.398527	0.193725
0.790	-1.693908	0.506703	611.986161	1.126923	14.791470	-0.295367	-2.416961	0.184142
0.800	-1.853526	0.396630	613.724739	1.077584	14.887751	-0.294692	-2.425803	0.175581
0.810	-1.959400	0.298104	615.399696	1.033390	14.923298	-0.295395	-2.424977	0.167922
0.820	-2.019619	0.223726	616.876498	0.990232	14.896856	-0.297558	-2.414885	0.160524
0.830	-2.034366	0.178753	618.038908	0.941548	14.808529	-0.300712	-2.396051	0.152344
0.840	-1.992071	0.158115	618.797734	0.879449	14.658940	-0.303702	-2.368939	0.142122
0.850	-1.871318	0.146549	619.089150	0.795953	14.449615	-0.304723	-2.334012	0.128568
0.860	-1.648318	0.122302	618.869267	0.684252	14.184377	-0.301595	-2.291983	0.110565
0.870	-1.307687	0.063523	618.112025	0.539927	13.870948	-0.292289	-2.244083	0.087351
0.880	-0.852817	-0.044779	616.813704	0.361774	13.521797	-0.275584	-2.192201	0.058652
0.890	-0.311948	-0.205781	615.002757	0.151871	13.153614	-0.251647	-2.138789	0.024694
0.900	0.262816	-0.409669	612.750601	-0.085230	12.785360	-0.222291	-2.086552	-0.013909
0.910	0.804349	-0.636400	610.178468	-0.343826	12.435426	-0.190783	-2.037998	-0.056348
0.920	1.245518	-0.861068	607.456885	-0.618242	12.118642	-0.161195	-1.994980	-0.101775
0.930	1.536180	-1.060057	604.796465	-0.903404	11.843893	-0.137413	-1.958327	-0.149373
0.940	1.656482	-1.216440	602.429969	-1.194800	11.612872	-0.122032	-1.927672	-0.198330
0.950	1.621471	-1.323613	600.586250	-1.488224	11.420255	-0.115469	-1.901518	-0.247795
0.960	1.475249	-1.386599	599.458576	-1.779668	11.255309	-0.115639	-1.877579	-0.296879
0.970	1.277067	-1.420890	599.173178	-2.065432	11.104530	-0.118460	-1.853309	-0.344714
0.980	1.084823	-1.449171	599.766267	-2.342296	10.954579	-0.119131	-1.826475	-0.390535
0.990	0.941845	-1.496590	601.176785	-2.607680	10.794645	-0.113747	-1.795586	-0.433763
1.000	0.870621	-1.585484	603.257788	-2.859839	10.617557	-0.100611	-1.760036	-0.474066
1.010	0.874054	-1.730572	605.803388	-3.098122	10.419502	-0.080655	-1.719948	-0.511407
1.020	0.942197	-1.935676	608.583215	-3.323206	10.198735	-0.056821	-1.675816	-0.546056
1.030	1.061108	-2.192830	611.374338	-3.537098	9.954012	-0.032784	-1.628137	-0.578549
1.040	1.220324	-2.484074	613.982315	-3.742788	9.683486	-0.011666	-1.577160	-0.609592
1.050	1.416405	-2.785649	616.247974	-3.943577	9.384451	0.004664	-1.522837	-0.639934
1.060	1.651885	-3.073652	618.043746	-4.142282	9.053991	0.015637	-1.464943	-0.670225
1.070	1.930949	-3.329672	619.268879	-4.340539	8.690155	0.021660	-1.403293	-0.700913
1.080	2.254473	-3.544624	619.851997	-4.538442	8.293055	0.023835	-1.337909	-0.732181
1.090	2.617127	-3.719357	619.761901	-4.734641	7.865262	0.023822	-1.269078	-0.763945
1.100	3.007842	-3.861798	619.019511	-4.926887	7.411295	0.023696	-1.197264	-0.795918
1.110	3.413118	-3.981907	617.701214	-5.112704	6.936598	0.025590	-1.122970	-0.827699
1.120	3.821239	-4.086735	615.928160	-5.289841	6.446760	0.031181	-1.046674	-0.858841
1.130	4.225395	-4.177656	613.844169	-5.456389	5.947528	0.041246	-0.968899	-0.888888
1.140	4.624373	-4.250623	611.591409	-5.610705	5.445496	0.055508	-0.890381	-0.917394
1.150	5.020619	-4.298838	609.293436	-5.751342	4.948873	0.072806	-0.812232	-0.943936
1.160	5.416442	-4.316385	607.049542	-5.877118	4.467654	0.091483	-0.735962	-0.968145
1.170	5.809924	-4.301295	604.937348	-5.987340	4.012910	0.109767	-0.663360	-0.989746
1.180	6.192376	-4.257156	603.017700	-6.082114	3.595401	0.126045	-0.596235	-1.008613
1.190	6.548653	-4.193219	601.338536	-6.162564	3.223995	0.139030	-0.536136	-1.024808
1.200	6.860478	-4.123331	599.938477	-6.230787	2.904440	0.147901	-0.484123	-1.038571
1.210	7.111389	-4.063896	598.851721	-6.289368	2.638855	0.152470	-0.440652	-1.050238
1.220	7.291186	-4.030985	598.113387	-6.340452	2.425960	0.153247	-0.405602	-1.060075
1.230	7.398112	-4.036967	597.762630	-6.384622	2.261797	0.151289	-0.378377	-1.068086
1.240	7.438286	-4.087331	597.841466	-6.420055	2.140675	0.147795	-0.358067	-1.073873
1.250	7.423156	-4.178639	598.388283	-6.442439	2.056116	0.143632	-0.343609	-1.076632
1.260	7.366362	-4.298510	599.425415	-6.445884	2.001658	0.139025	-0.333929	-1.075344
1.270	7.281291	-4.428007	600.942248	-6.424692	1.971379	0.133541	-0.328048	-1.069103
1.280	7.180025	-4.545851	602.879445	-6.375388	1.960157	0.126343	-0.325132	-1.057490
1.290	7.073582	-4.632968	605.122128	-6.298229	1.963778	0.116576	-0.324526	-1.040819
1.300	6.972626	-4.675773	607.507050	-6.197559	1.978994	0.103711	-0.325757	-1.020162
1.310	6.887531	-4.667525	609.842521	-6.080984	2.003463	0.087769	-0.328521	-0.997140
1.320	6.827100	-4.608161	611.934790	-5.957848	2.035546	0.069406	-0.332641	-0.973608
1.330	6.796248	-4.503414	613.613516	-5.837633	2.074027	0.049880	-0.338002	-0.951353
1.340	6.793802	-4.363625	614.750943	-5.728547	2.117975	0.030887	-0.344526	-0.931848
1.350	6.811890	-4.202204	615.272225	-5.636239	2.166905	0.014245	-0.352186	-0.916056
1.360	6.837771	-4.033526	615.156992	-5.562645	2.221251	0.001475	-0.361087	-0.904264
1.370	6.857758	-3.870416	614.434527	-5.505320	2.282876	-0.006590	-0.371541	-0.895998
1.380	6.861603	-3.721838	613.175879	-5.457739	2.355227	-0.010028	-0.384103	-0.890077
1.390	6.845194	-3.591592	611.485089	-5.410693	2.442974	-0.009806	-0.399515	-0.884845
1.400	6.810320	-3.478423	609.489262	-5.354298	2.551377	-0.007487	-0.418609	-0.878489
1.410	6.761719	-3.377350	607.326049	-5.279827	2.685847	-0.004761	-0.442241	-0.869356
1.420	6.702911	-3.281488	605.128737	-5.180778	2.852059	-0.002935	-0.471314	-0.856145
1.430	6.632572	-3.183471	603.012367	-5.053051	3.056497	-0.002606	-0.506871	-0.837968
1.440	6.542659	-3.075683	601.065676	-4.894513	3.306939	-0.003666	-0.550179	-0.814306
1.450	6.418448	-2.949154	599.351761	-4.704351	3.612299	-0.005598	-0.602701	-0.784907
1.460	6.239840	-2.792042	597.917378	-4.482622	3.981586	-0.007937	-0.665909	-0.749706
1.470	5.983246	-2.589440	596.808482	-4.230195	4.422194	-0.010699	-0.740974	-0.708803
1.480	5.624099	-2.325916	596.087494	-3.949168	4.937954	-0.014624	-0.828394	-0.662515
1.490	5.140667	-1.990612	595.845327	-3.643614	5.527305	-0.021166	-0.927641	-0.611503
1.500	4.519500	-1.582960	596.200600	-3.320377	6.181830	-0.032252	-1.036871	-0.556923
1.510	3.761582	-1.116389	597.281877	-2.989297	6.885499	-0.049913	-1.152806	-0.500484
1.520	2.887055	-0.618363	599.195370	-2.662262	7.615046	-0.075826	-1.270879	-0.444306
1.530	1.936211	-0.126851	601.986820	-2.351018	8.341813	-0.110828	-1.385714	-0.390543
1.540	0.965764	0.315328	605.609165	-2.064638	9.034923	-0.154423	-1.491874	-0.340919
1.550	0.041326	0.666669	609.906336	-1.807943	9.665103	-0.204456	-1.584686	-0.296430
1.560	-0.771874	0.892608	614.618704	-1.581682	10.208217	-0.257157	-1.660902	-0.257344
1.570	-1.418032	0.970308	619.409260	-1.384142	10.647676	-0.307719	-1.719005	-0.223462
1.580	-1.858105	0.892564	623.903785	-1.213138	10.975269	-0.351338	-1.759128	-0.194443
1.590	-2.074340	0.670580	627.735630	-1.067310	11.190456	-0.384368	-1.782670	-0.170025
1.600	-2.071262	0.334865	630.586331	-0.946328	11.298646	-0.405159	-1.791768	-0.150071
1.610	-1.873068	-0.066893	632.216319	-0.850237	11.309231	-0.414266	-1.788823	-0.134485
1.620	-1.518320	-0.475795	632.484026	-0.778588	11.234055	-0.414022	-1.776180	-0.123100
1.630	-1.053659	-0.831276	631.354879	-0.729924	11.086595	-0.407671	-1.756001	-0.115612
1.640	-0.528274	-1.082365	628.902440	-0.701890	10.881594	-0.398389	-1.730251	-0.111606
1.650	0.010178	-1.197691	625.302442	-0.691807	10.634627	-0.388460	-1.700717	-0.110636
1.660	0.518898	-1.171187	620.818993	-0.697197	10.361167	-0.378808	-1.668951	-0.112303
1.670	0.963559	-1.021589	615.782647	-0.715777	10.075170	-0.368932	-1.636157	-0.116239
1.680	1.322254	-0.786022	610.562090	-0.744918	9.787777	-0.357230	-1.603076	-0.122005
1.690	1.588315	-0.510006	605.532569	-0.781078	9.506850	-0.341603	-1.569998	-0.128990
1.700	1.770322	-0.237141	601.043985	-0.819768	9.237634	-0.320212	-1.536931	-0.136391
1.710	1.888743	-0.001137	597.390865	-0.856140	8.984139	-0.292222	-1.503896	-0.143313
1.720	1.970277	0.178516	594.786639	-0.885908	8.750470	-0.258312	-1.471195	-0.148945
1.730	2.041545	0.297224	593.345597	-0.906147	8.541434	-0.220760	-1.439538	-0.152718
1.740	2.123437	0.362982	593.075870	-0.915706	8.362299	-0.183009	-1.409988	-0.154399
1.750	2.226994	0.392031	593.885264	-0.915104	8.217990	-0.148845	-1.383767	-0.154088
1.760	2.351678	0.403387	595.598999	-0.906026	8.112158	-0.121447	-1.362017	-0.152120
1.770	2.486663	0.413376	597.985704	-0.890590	8.046423	-0.102624	-1.345588	-0.148932
1.780	2.614771	0.431598	600.786183	-0.870595	8.019929	-0.092527	-1.334906	-0.144909
1.790	2.717340	0.459641	603.739989	-0.846833	8.029315	-0.089908	-1.329929	-0.140265
1.800	2.778132	0.492915	606.607533	-0.818715	8.069180	-0.092767	-1.330214	-0.134966
1.810	2.785294	0.524564	609.188223	-0.784513	8.132954	-0.099066	-1.335048	-0.128780
1.820	2.731724	0.549413	611.335282	-0.742338	8.213907	-0.107209	-1.343601	-0.121429
1.830	2.614961	0.566107	612.965679	-0.691587	8.305853	-0.116204	-1.355027	-0.112826
1.840	2.437557	0.576782	614.062278	-0.634294	8.403210	-0.125548	-1.368462	-0.103295
1.850	2.208122	0.584931	614.666781	-0.575780	8.500399	-0.134997	-1.382928	-0.093674
1.860	1.942324	0.592782	614.864682	-0.524248	8.590997	-0.144318	-1.397217	-0.085262
1.870	1.662942	0.599545	614.765340	-0.489377	8.667198	-0.153112	-1.409838	-0.079604
1.880	1.398446	0.601443	614.481028	-0.480378	8.719916	-0.160700	-1.419070	-0.078176
1.890	1.180129	0.593593	614.108733	-0.504055	8.739475	-0.166115	-1.423115	-0.082079
1.900	1.038236	0.572858	613.717465	-0.563315	8.716690	-0.168193	-1.420310	-0.091787
1.910	0.997831	0.540153	613.342513	-0.656551	8.644196	-0.165778	-1.409359	-0.107045
1.920	1.075236	0.500660	612.986967	-0.778185	8.517900	-0.158024	-1.389573	-0.126950
1.930	1.275567	0.461389	612.629577	-0.920318	8.338203	-0.144803	-1.361051	-0.150224
1.940	1.591606	0.426932	612.236925	-1.075045	8.110475	-0.127055	-1.324728	-0.175593
1.950	2.004290	0.395626	611.776919	-1.236643	7.844430	-0.106876	-1.282237	-0.202139
1.960	2.485113	0.358428	611.229661	-1.402972	7.552585	-0.087139	-1.235638	-0.229533
1.970	3.000376	0.301514	610.591276	-1.575762	7.248468	-0.070693	-1.187123	-0.258071
1.980	3.516321	0.211611	609.868659	-1.759863	6.945282	-0.059423	-1.138816	-0.288564
1.990	4.003519	0.081602	609.068446	-1.961689	6.655319	-0.053594	-1.092705	-0.322080
2.000	4.439138	-0.086161	608.187706	-2.187092	6.389895	-0.051844	-1.050645	-0.359608
2.010	4.806906	-0.280092	607.213004	-2.439107	6.159368	-0.051875	-1.014367	-0.401689
2.020	5.095940	-0.482632	606.129338	-2.716247	5.972942	-0.051476	-0.985424	-0.448130
2.030	5.300049	-0.674803	604.935256	-3.011936	5.838240	-0.049414	-0.965102	-0.497894
2.040	5.418106	-0.840322	603.658219	-3.315201	5.760802	-0.045822	-0.954315	-0.549185
2.050	5.454561	-0.968409	602.364453	-3.612304	5.743631	-0.042025	-0.953514	-0.599687
2.060	5.418525	-1.055034	601.158638	-3.889014	5.786993	-0.039962	-0.962640	-0.646920
2.070	5.320646	-1.102669	600.170737	-4.133254	5.888608	-0.041492	-0.981155	-0.688680
2.080	5.168734	-1.118717	599.531766	-4.337751	6.044329	-0.047822	-1.008175	-0.723523
2.090	4.964503	-1.113200	599.346214	-4.502019	6.249043	-0.059188	-1.042643	-0.751155
2.100	4.703831	-1.096380	599.671654	-4.632917	6.497363	-0.074765	-1.083487	-0.772576
2.110	4.381131	-1.076821	600.512281	-4.743360	6.783666	-0.092782	-1.129646	-0.789886
2.120	3.995980	-1.060237	601.825682	-4.849419	7.101342	-0.110815	-1.179967	-0.805785
2.130	3.558568	-1.049679	603.537162	-4.966718	7.441633	-0.126259	-1.233003	-0.822935
2.140	3.090999	-1.047713	605.555671	-5.107235	7.792753	-0.136936	-1.286876	-0.843396
2.150	2.623652	-1.060363	607.787654	-5.277365	8.140005	-0.141685	-1.339284	-0.868291
2.160	2.188339	-1.100937	610.146554	-5.477445	8.467049	-0.140676	-1.387707	-0.897726
2.170	1.811364	-1.190645	612.556417	-5.702592	8.757891	-0.135220	-1.429728	-0.930950
2.180	1.509127	-1.353739	614.949065	-5.944467	8.998807	-0.127105	-1.463342	-0.966660
2.190	1.287259	-1.607722	617.256192	-6.193405	9.179512	-0.117806	-1.487148	-1.003377
2.200	1.142626	-1.952420	619.399747	-6.440156	9.293380	-0.108032	-1.500385	-1.039742
2.210	1.066686	-2.363117	621.285447	-6.676758	9.336969	-0.097855	-1.502847	-1.074668
2.220	1.049063	-2.791799	622.803408	-6.896646	9.309331	-0.087323	-1.494746	-1.107355
2.230	1.080979	-3.177264	623.836875	-7.094586	9.211523	-0.077127	-1.476592	-1.137250
2.240	1.158425	-3.461007	624.277107	-7.266884	9.046470	-0.068811	-1.449111	-1.164048
2.250	1.284147	-3.603258	624.041397	-7.411916	8.819162	-0.064313	-1.413233	-1.187728
2.260	1.466852	-3.593385	623.090851	-7.530692	8.536936	-0.065025	-1.370095	-1.208603
2.270	1.716794	-3.451272	621.443544	-7.627062	8.209477	-0.070890	-1.321033	-1.227314
2.280	2.039177	-3.219988	619.178159	-7.707248	7.848264	-0.080039	-1.267529	-1.244754
2.290	2.428740	-2.953322	616.425446	-7.778606	7.465521	-0.089205	-1.211099	-1.261889
2.300	2.868690	-2.702914	613.349558	-7.848016	7.073055	-0.094769	-1.153185	-1.279534
2.310	3.334731	-2.508678	610.125255	-7.920551	6.681512	-0.093934	-1.095105	-1.298184
2.320	3.801920	-2.394015	606.917712	-7.998987	6.300344	-0.085539	-1.038089	-1.317969
2.330	4.250538	-2.365467	603.869544	-8.084231	5.938488	-0.070198	-0.983406	-1.338738
2.340	4.667979	-2.415467	601.096647	-8.176288	5.605330	-0.049824	-0.932517	-1.360229
2.350	5.046455	-2.526645	598.691448	-8.275212	5.311287	-0.026857	-0.887149	-1.382217
