Time[s]	Fx[N]	Fy[N]	Fz[N]	Mx[Nm]	My[Nm]	Mz[Nm]	COPx[cm]	COPy[cm]
0.010	4.485727	0.355176	513.224457	1.651086	1.223978	-0.345774	-0.238488	0.321708
0.020	4.386146	0.276267	513.292999	1.566142	1.216171	-0.334018	-0.236935	0.305117
0.030	4.308341	0.206226	513.352420	1.483033	1.213847	-0.324255	-0.236455	0.288892
0.040	4.265728	0.150882	513.397123	1.402662	1.221098	-0.317950	-0.237847	0.273212
0.050	4.259262	0.111713	513.423103	1.324001	1.239562	-0.315662	-0.241431	0.257877
0.060	4.277256	0.084978	513.428052	1.244580	1.268549	-0.316814	-0.247074	0.242406
0.070	4.299716	0.062195	513.411950	1.161693	1.305963	-0.319792	-0.254369	0.226269
0.080	4.305610	0.032228	513.377970	1.073578	1.349456	-0.322423	-0.262858	0.209120
0.090	4.280436	-0.015262	513.332884	0.979892	1.397211	-0.322745	-0.272184	0.190888
0.100	4.221175	-0.086155	513.286417	0.881315	1.448044	-0.319768	-0.282112	0.171700
0.110	4.136704	-0.179699	513.249343	0.778665	1.500881	-0.313868	-0.292427	0.151713
0.120	4.043716	-0.289161	513.230340	0.672062	1.553968	-0.306618	-0.302782	0.130947
0.130	3.960045	-0.405197	513.232403	0.560535	1.604430	-0.300162	-0.312613	0.109217
0.140	3.898197	-0.520308	513.251087	0.442242	1.648711	-0.296471	-0.321229	0.086165
0.150	3.861511	-0.632033	513.277105	0.315308	1.683894	-0.296722	-0.328067	0.061430
0.160	3.844149	-0.743321	513.303303	0.178982	1.709226	-0.300977	-0.332986	0.034869
0.170	3.834453	-0.860128	513.331937	0.034542	1.726852	-0.308207	-0.336401	0.006729
0.180	3.820008	-0.987698	513.376432	-0.114550	1.741115	-0.316652	-0.339150	-0.022313
0.190	3.792322	-1.127468	513.454561	-0.263324	1.756589	-0.324389	-0.342112	-0.051285
0.200	3.749404	-1.276031	513.575373	-0.406437	1.775720	-0.329901	-0.345757	-0.079139
0.210	3.695640	-1.426254	513.726538	-0.539268	1.797190	-0.332454	-0.349834	-0.104972
0.220	3.639650	-1.569496	513.869888	-0.658625	1.815896	-0.332217	-0.353377	-0.128170
0.230	3.591541	-1.697538	513.949812	-0.762879	1.824740	-0.330124	-0.355042	-0.148434
0.240	3.560586	-1.803539	513.912663	-0.851532	1.817529	-0.327580	-0.353665	-0.165696
0.250	3.553563	-1.882162	513.729026	-0.924527	1.791621	-0.326101	-0.348748	-0.179964
0.260	3.573497	-1.929558	513.408972	-0.981741	1.749003	-0.326940	-0.340665	-0.191220
0.270	3.618760	-1.943868	513.003509	-1.022954	1.695342	-0.330731	-0.330474	-0.199405
0.280	3.682915	-1.926307	512.590947	-1.048184	1.637682	-0.337211	-0.319491	-0.204488
0.290	3.755783	-1.882125	512.252684	-1.058050	1.582098	-0.345156	-0.308851	-0.206549
0.300	3.825786	-1.820366	512.047764	-1.053917	1.532471	-0.352633	-0.299283	-0.205824
0.310	3.882991	-1.751900	511.996796	-1.037849	1.490623	-0.357554	-0.291139	-0.202706
0.320	3.921818	-1.686439	512.081638	-1.012389	1.457260	-0.358306	-0.284576	-0.197701
0.330	3.942302	-1.630040	512.259207	-0.980140	1.432892	-0.354203	-0.279720	-0.191337
0.340	3.949313	-1.584237	512.480646	-0.943301	1.418201	-0.345572	-0.276733	-0.184066
0.350	3.949975	-1.546932	512.705895	-0.903517	1.413832	-0.333493	-0.275759	-0.176225
0.360	3.950355	-1.514246	512.908814	-0.862210	1.419876	-0.319374	-0.276828	-0.168102
0.370	3.952933	-1.482384	513.074803	-0.821001	1.435353	-0.304606	-0.279755	-0.160016
0.380	3.956045	-1.448813	513.196292	-0.781653	1.457879	-0.290428	-0.284078	-0.152311
0.390	3.955604	-1.412595	513.270512	-0.745349	1.483576	-0.277952	-0.289044	-0.145216
0.400	3.948155	-1.374072	513.300512	-0.711862	1.507291	-0.268178	-0.293647	-0.138683
0.410	3.933666	-1.334291	513.296872	-0.679435	1.523164	-0.261830	-0.296741	-0.132367
0.420	3.916627	-1.294432	513.276136	-0.645693	1.525593	-0.259068	-0.297227	-0.125798
0.430	3.905017	-1.255269	513.254238	-0.609085	1.510449	-0.259306	-0.294289	-0.118671
0.440	3.907582	-1.216809	513.237617	-0.569930	1.476195	-0.261321	-0.287624	-0.111046
0.450	3.930314	-1.178495	513.217723	-0.530379	1.424493	-0.263645	-0.277561	-0.103344
0.460	3.973379	-1.140129	513.173474	-0.493398	1.360070	-0.265023	-0.265031	-0.096146
0.470	4.029841	-1.102925	513.081634	-0.461500	1.289979	-0.264698	-0.251418	-0.089947
0.480	4.087084	-1.069795	512.930407	-0.436011	1.222574	-0.262395	-0.238351	-0.085004
0.490	4.130698	-1.044427	512.729623	-0.417156	1.166348	-0.258097	-0.227478	-0.081360
0.500	4.149453	-1.029668	512.512057	-0.404569	1.128606	-0.251855	-0.220211	-0.078938
0.510	4.139487	-1.026150	512.324155	-0.397612	1.113882	-0.243830	-0.217417	-0.077609
0.520	4.106138	-1.031829	512.209570	-0.395249	1.122383	-0.234570	-0.219126	-0.077165
0.530	4.062687	-1.042526	512.193176	-0.395686	1.149152	-0.225319	-0.224359	-0.077253
0.540	4.026304	-1.053090	512.273325	-0.396188	1.184702	-0.218049	-0.231264	-0.077339
0.550	4.012453	-1.058753	512.425458	-0.393345	1.217416	-0.215011	-0.237579	-0.076761
0.560	4.029585	-1.056247	512.613656	-0.383843	1.237152	-0.217866	-0.241342	-0.074880
0.570	4.076047	-1.044374	512.803286	-0.365545	1.238686	-0.226794	-0.241552	-0.071284
0.580	4.140360	-1.023867	512.969614	-0.338476	1.223505	-0.240059	-0.238514	-0.065984
0.590	4.204855	-0.996710	513.101621	-0.305170	1.199185	-0.254335	-0.233713	-0.059476
0.600	4.251461	-0.965327	513.202290	-0.270094	1.176649	-0.265709	-0.229276	-0.052629
0.610	4.267586	-0.932131	513.285346	-0.238298	1.166509	-0.270988	-0.227263	-0.046426
0.620	4.249891	-0.899671	513.367406	-0.213924	1.175818	-0.268797	-0.229040	-0.041671
0.630	4.204633	-0.871181	513.456903	-0.199210	1.206213	-0.260086	-0.234920	-0.038798
0.640	4.144667	-0.850935	513.545235	-0.194251	1.253815	-0.247824	-0.244149	-0.037826
0.650	4.084565	-0.843772	513.607026	-0.197287	1.310811	-0.235938	-0.255217	-0.038412
0.660	4.035901	-0.853597	513.612524	-0.205194	1.368263	-0.227848	-0.266400	-0.039951
0.670	4.004327	-0.881369	513.547476	-0.214097	1.419289	-0.225212	-0.276370	-0.041690
0.680	3.988929	-0.923635	513.429259	-0.220185	1.461502	-0.227483	-0.284655	-0.042885
0.690	3.983401	-0.972755	513.307832	-0.220590	1.497667	-0.232429	-0.291768	-0.042974
0.700	3.978288	-1.019232	513.247300	-0.213884	1.534200	-0.237330	-0.298920	-0.041673
0.710	3.963921	-1.055210	513.294773	-0.199942	1.578069	-0.240226	-0.307439	-0.038953
0.720	3.933665	-1.077222	513.451815	-0.179397	1.633417	-0.240710	-0.318125	-0.034939
0.730	3.886639	-1.086624	513.664689	-0.153127	1.699422	-0.239996	-0.330843	-0.029811
0.740	3.828586	-1.087567	513.840838	-0.122061	1.770396	-0.240320	-0.344542	-0.023755
0.750	3.770060	-1.083715	513.885070	-0.087233	1.838017	-0.243998	-0.357671	-0.016975
0.760	3.722365	-1.075535	513.738560	-0.049890	1.894665	-0.252483	-0.368799	-0.009711
0.770	3.692889	-1.059833	513.403206	-0.011453	1.936381	-0.265755	-0.377166	-0.002231
0.780	3.681920	-1.031970	512.942148	0.026787	1.964258	-0.282208	-0.382939	0.005222
0.790	3.682369	-0.989449	512.458264	0.064163	1.983804	-0.299092	-0.387115	0.012521
0.800	3.682443	-0.934580	512.061008	0.101076	2.002666	-0.313417	-0.391099	0.019739
0.810	3.670012	-0.874630	511.834838	0.139119	2.027831	-0.323010	-0.396188	0.027180
0.820	3.636826	-0.819509	511.819468	0.180709	2.063517	-0.327281	-0.403173	0.035307
0.830	3.581101	-0.778384	512.005439	0.228282	2.110496	-0.327338	-0.412202	0.044586
0.840	3.507877	-0.756855	512.342090	0.283344	2.166643	-0.325432	-0.422890	0.055304
0.850	3.427422	-0.755588	512.752263	0.345794	2.228069	-0.324054	-0.434531	0.067439
0.860	3.352409	-0.770408	513.149417	0.413901	2.290253	-0.325106	-0.446313	0.080659
0.870	3.294730	-0.793427	513.455502	0.485044	2.349014	-0.329400	-0.457491	0.094467
0.880	3.262559	-0.814786	513.618165	0.556801	2.401325	-0.336535	-0.467531	0.108408
0.890	3.258182	-0.824731	513.623506	0.627738	2.445909	-0.345150	-0.476207	0.122218
0.900	3.277252	-0.815832	513.499036	0.697444	2.483431	-0.353432	-0.483629	0.135822
0.910	3.310093	-0.784882	513.303743	0.765996	2.516174	-0.359709	-0.490192	0.149229
0.920	3.344882	-0.733671	513.107739	0.833401	2.547305	-0.362912	-0.496446	0.162422
0.930	3.371453	-0.667996	512.969223	0.899437	2.579975	-0.362791	-0.502949	0.175339
0.940	3.384148	-0.595313	512.917478	0.963875	2.616492	-0.359911	-0.510119	0.187920
0.950	3.382671	-0.522401	512.947443	1.026775	2.657690	-0.355504	-0.518121	0.200172
0.960	3.370942	-0.454198	513.026503	1.088565	2.702679	-0.351190	-0.526811	0.212185
0.970	3.354681	-0.393825	513.109655	1.149772	2.749074	-0.348545	-0.535767	0.224079
0.980	3.338713	-0.342954	513.156351	1.210530	2.793671	-0.348599	-0.544409	0.235899
0.990	3.325001	-0.301774	513.142996	1.270145	2.833362	-0.351412	-0.552158	0.247523
1.000	3.312166	-0.268556	513.068337	1.327076	2.866029	-0.355940	-0.558606	0.258655
1.010	3.296769	-0.239382	512.951548	1.379421	2.891168	-0.360298	-0.563634	0.268918
1.020	3.275795	-0.208792	512.823903	1.425670	2.909972	-0.362392	-0.567441	0.278004
1.030	3.248942	-0.171662	512.716516	1.465305	2.924751	-0.360712	-0.570442	0.285793
1.040	3.219339	-0.125711	512.649015	1.498946	2.937789	-0.354954	-0.573060	0.292392
1.050	3.192282	-0.073225	512.624496	1.528019	2.950175	-0.346197	-0.575504	0.298078
1.060	3.172856	-0.020642	512.632976	1.554081	2.961218	-0.336540	-0.577649	0.303157
1.070	3.163811	0.024158	512.660671	1.578034	2.968782	-0.328301	-0.579093	0.307812
1.080	3.164631	0.055486	512.699527	1.599505	2.970339	-0.323115	-0.579353	0.311977
1.090	3.171912	0.072340	512.752128	1.616656	2.964158	-0.321303	-0.578088	0.315290
1.100	3.180654	0.078438	512.830006	1.626564	2.950026	-0.321785	-0.575244	0.317174
1.110	3.185982	0.079965	512.946554	1.626084	2.929237	-0.322571	-0.571061	0.317008
1.120	3.184852	0.082402	513.108202	1.612847	2.903968	-0.321545	-0.565956	0.314329
1.130	3.177127	0.087995	513.308319	1.586034	2.876423	-0.317177	-0.560369	0.308983
1.140	3.165489	0.094825	513.526491	1.546755	2.848216	-0.308888	-0.554639	0.301202
1.150	3.154270	0.097636	513.732456	1.498009	2.820176	-0.297059	-0.548958	0.291593
1.160	3.148058	0.089989	513.892221	1.444237	2.792398	-0.282854	-0.543382	0.281039
1.170	3.150962	0.067007	513.975022	1.390435	2.764217	-0.268003	-0.537811	0.270526
1.180	3.166563	0.027819	513.961364	1.340965	2.734043	-0.254549	-0.531955	0.260908
1.190	3.197835	-0.023257	513.851290	1.298355	2.699270	-0.244493	-0.525302	0.252671
1.200	3.246474	-0.077787	513.669076	1.262580	2.656560	-0.239330	-0.517173	0.245796
1.210	3.311877	-0.126609	513.459153	1.231131	2.602556	-0.239609	-0.506867	0.239772
1.220	3.390607	-0.164119	513.271032	1.199818	2.534744	-0.244743	-0.493841	0.233759
1.230	3.477103	-0.190984	513.138062	1.163877	2.452005	-0.253184	-0.477845	0.226816
1.240	3.565644	-0.213536	513.061229	1.118936	2.354611	-0.262950	-0.458934	0.218090
1.250	3.652726	-0.240097	513.008639	1.061718	2.243789	-0.272242	-0.437378	0.206959
1.260	3.738527	-0.276371	512.932402	0.990740	2.121309	-0.279892	-0.413565	0.193152
1.270	3.826530	-0.322574	512.793924	0.907081	1.989496	-0.285489	-0.387972	0.176890
1.280	3.921474	-0.373766	512.584434	0.814771	1.851601	-0.289215	-0.361229	0.158954
1.290	4.026669	-0.422959	512.331598	0.720213	1.712052	-0.291518	-0.334169	0.140576
1.300	4.141884	-0.465121	512.090784	0.630611	1.576083	-0.292778	-0.307774	0.123144
1.310	4.262646	-0.500087	511.925778	0.552105	1.448698	-0.293112	-0.282990	0.107849
1.320	4.381186	-0.533116	511.886488	0.488409	1.333350	-0.292401	-0.260478	0.095414
1.330	4.488671	-0.572948	511.991119	0.440304	1.231002	-0.290505	-0.240434	0.085998
1.340	4.577881	-0.628161	512.218603	0.405857	1.140103	-0.287522	-0.222581	0.079235
1.350	4.645211	-0.703284	512.514007	0.381120	1.057640	-0.283870	-0.206363	0.074363
1.360	4.691135	-0.796393	512.805335	0.361084	0.980854	-0.280088	-0.191272	0.070414
1.370	4.719084	-0.899344	513.026130	0.340817	0.908802	-0.276487	-0.177145	0.066433
1.380	4.733591	-1.000512	513.136266	0.316613	0.842955	-0.272903	-0.164275	0.061701
1.390	4.738874	-1.088700	513.133686	0.286914	0.786505	-0.268759	-0.153275	0.055914
1.400	4.738492	-1.156527	513.052536	0.252629	0.742732	-0.263465	-0.144767	0.049240
1.410	4.735873	-1.202103	512.948023	0.216536	0.713267	-0.256932	-0.139052	0.042214
1.420	4.734959	-1.228697	512.874103	0.181896	0.697035	-0.249915	-0.135908	0.035466
1.430	4.740244	-1.242948	512.863353	0.150918	0.690240	-0.243902	-0.134586	0.029427
1.440	4.756000	-1.252556	512.916960	0.123954	0.687289	-0.240587	-0.133996	0.024167
1.450	4.785055	-1.264222	513.007861	0.099908	0.682303	-0.241190	-0.133001	0.019475
1.460	4.827666	-1.282154	513.094606	0.077660	0.670838	-0.245991	-0.130744	0.015136
1.470	4.880874	-1.307156	513.139381	0.057687	0.651338	-0.254249	-0.126932	0.011242
1.480	4.938570	-1.336405	513.122222	0.042920	0.625937	-0.264475	-0.121986	0.008364
1.490	4.992522	-1.364043	513.046158	0.038328	0.600296	-0.274860	-0.117006	0.007471
1.500	5.034312	-1.382603	512.933299	0.049379	0.582480	-0.283753	-0.113559	0.009627
1.510	5.057624	-1.384924	512.815791	0.080162	0.581150	-0.290073	-0.113325	0.015632
1.520	5.059928	-1.366029	512.725802	0.132118	0.603548	-0.293588	-0.117714	0.025768
1.530	5.042786	-1.324413	512.686922	0.203916	0.653876	-0.294957	-0.127539	0.039774
1.540	5.010626	-1.262286	512.708034	0.292312	0.732548	-0.295493	-0.142878	0.057013
1.550	4.968419	-1.184629	512.780726	0.393239	0.836508	-0.296681	-0.163132	0.076687
1.560	4.919157	-1.097353	512.881376	0.502460	0.960463	-0.299606	-0.187268	0.097968
1.570	4.862205	-1.005314	512.977995	0.615705	1.098570	-0.304491	-0.214155	0.120026
1.580	4.793470	-0.910951	513.039823	0.728780	1.245960	-0.310544	-0.242858	0.142051
1.590	4.707611	-0.813974	513.046306	0.838176	1.399497	-0.316201	-0.272782	0.163372
1.600	4.601453	-0.712194	512.992818	0.942125	1.557543	-0.319668	-0.303619	0.183653
1.610	4.476943	-0.603298	512.892382	1.041460	1.719047	-0.319497	-0.335167	0.203056
1.620	4.342064	-0.486993	512.773454	1.139471	1.882672	-0.314919	-0.367155	0.222217
1.630	4.209019	-0.366572	512.673283	1.240503	2.046541	-0.305883	-0.399190	0.241968
1.640	4.090319	-0.249071	512.626975	1.347845	2.208628	-0.292871	-0.430845	0.262929
1.650	3.994579	-0.143755	512.655311	1.461975	2.367367	-0.276654	-0.461785	0.285177
1.660	3.924057	-0.059381	512.756778	1.579989	2.521974	-0.258097	-0.491846	0.308136
1.670	3.874970	-0.001039	512.908047	1.696411	2.672315	-0.238114	-0.521012	0.330744
1.680	3.839838	0.032265	513.072798	1.804781	2.818492	-0.217764	-0.549336	0.351759
1.690	3.810174	0.047974	513.215196	1.899089	2.960508	-0.198376	-0.576855	0.370038
1.700	3.778159	0.057446	513.313225	1.974471	3.098312	-0.181507	-0.603591	0.384652
1.710	3.737128	0.071190	513.367263	2.027295	3.232223	-0.168628	-0.629612	0.394901
1.720	3.681663	0.094055	513.399822	2.055169	3.363377	-0.160651	-0.655118	0.400306
1.730	3.608126	0.122922	513.444693	2.057191	3.493673	-0.157577	-0.680438	0.400665
1.740	3.515663	0.148221	513.528430	2.034312	3.624992	-0.158507	-0.705899	0.396144
1.750	3.406935	0.158625	513.652039	1.989558	3.757977	-0.162066	-0.731619	0.387336
1.760	3.287770	0.146750	513.782649	1.927893	3.891024	-0.167009	-0.757329	0.375235
1.770	3.165709	0.113247	513.861365	1.855670	4.020036	-0.172741	-0.782319	0.361123
1.780	3.048085	0.067434	513.825439	1.779759	4.139149	-0.179483	-0.805555	0.346374
1.790	2.940388	0.024055	513.635321	1.706572	4.242245	-0.188045	-0.825926	0.332254
1.800	2.845270	-0.002419	513.294833	1.641232	4.324805	-0.199354	-0.842558	0.319744
1.810	2.762446	-0.003264	512.855857	1.587009	4.385495	-0.213955	-0.855113	0.309446
1.820	2.689663	0.021760	512.405099	1.545007	4.426843	-0.231696	-0.863934	0.301521
1.830	2.624553	0.065296	512.037705	1.514036	4.454594	-0.251674	-0.869974	0.295688
1.840	2.566464	0.115786	511.828341	1.490717	4.475895	-0.272398	-0.874491	0.291253
1.850	2.517045	0.161258	511.811358	1.469990	4.497085	-0.292111	-0.878661	0.287213
1.860	2.479183	0.191912	511.976554	1.446157	4.522055	-0.309144	-0.883254	0.282465
1.870	2.455119	0.201225	512.279080	1.414315	4.551734	-0.322179	-0.888526	0.276083
1.880	2.445087	0.186175	512.656246	1.371697	4.584598	-0.330342	-0.894283	0.267567
1.890	2.447265	0.147389	513.043427	1.318346	4.617668	-0.333140	-0.900054	0.256966
1.900	2.458825	0.089402	513.384958	1.256845	4.647525	-0.330397	-0.905271	0.244815
1.910	2.477240	0.020500	513.640308	1.191285	4.671038	-0.322266	-0.909399	0.231930
1.920	2.501066	-0.048637	513.787403	1.125930	4.685793	-0.309328	-0.912010	0.219143
1.930	2.529910	-0.107541	513.823870	1.064034	4.690295	-0.292652	-0.912822	0.207081
1.940	2.563723	-0.148944	513.765569	1.007090	4.684072	-0.273726	-0.911714	0.196021
1.950	2.601882	-0.170849	513.642066	0.954702	4.667688	-0.254257	-0.908743	0.185869
1.960	2.642603	-0.176890	513.490019	0.905022	4.642602	-0.235909	-0.904127	0.176249
1.970	2.683095	-0.174967	513.346195	0.855588	4.610745	-0.220064	-0.898174	0.166669
1.980	2.720457	-0.174819	513.241135	0.804210	4.573775	-0.207611	-0.891155	0.156692
1.990	2.753036	-0.185377	513.193621	0.749648	4.532143	-0.198791	-0.883125	0.146075
2.000	2.781848	-0.212664	513.206324	0.691879	4.484287	-0.193129	-0.873779	0.134815
2.010	2.811438	-0.258758	513.264178	0.631937	4.426453	-0.189542	-0.862412	0.123121
2.020	2.849415	-0.321970	513.337407	0.571419	4.353567	-0.186613	-0.848091	0.111315
2.030	2.904277	-0.398006	513.390045	0.511826	4.261237	-0.182933	-0.830019	0.099695
2.040	2.982186	-0.481623	513.392193	0.453884	4.148283	-0.177399	-0.808014	0.088409
2.050	3.084217	-0.568293	513.331679	0.397086	4.018584	-0.169433	-0.782844	0.077355
2.060	3.205595	-0.655303	513.219992	0.339716	3.881115	-0.159112	-0.756228	0.066193
2.070	3.337313	-0.741735	513.089260	0.279482	3.747824	-0.147200	-0.730443	0.054470
2.080	3.469054	-0.827248	512.980762	0.214545	3.630195	-0.135063	-0.707667	0.041823
2.090	3.591661	-0.910431	512.929305	0.144449	3.536024	-0.124498	-0.689378	0.028162
2.100	3.698077	-0.987901	512.950009	0.070447	3.467804	-0.117438	-0.676051	0.013734
2.110	3.783120	-1.054760	513.033047	-0.004929	3.423161	-0.115495	-0.667240	-0.000961
2.120	3.843344	-1.106183	513.148186	-0.078707	3.396803	-0.119421	-0.661954	-0.015338
2.130	3.877773	-1.139419	513.256826	-0.148258	3.382900	-0.128742	-0.659105	-0.028886
2.140	3.888969	-1.155413	513.326630	-0.211684	3.376948	-0.141797	-0.657856	-0.041238
2.150	3.883060	-1.159433	513.343326	-0.267849	3.376654	-0.156233	-0.657777	-0.052177
2.160	3.867908	-1.160305	513.315223	-0.316247	3.381908	-0.169748	-0.658836	-0.061609
2.170	3.850219	-1.168314	513.268553	-0.356887	3.394101	-0.180773	-0.661272	-0.069532
2.180	3.833426	-1.192348	513.235715	-0.390249	3.415051	-0.188836	-0.665396	-0.076037
2.190	3.817649	-1.237153	513.242126	-0.417251	3.445797	-0.194509	-0.671379	-0.081297
2.200	3.801288	-1.301549	513.297673	-0.439115	3.485680	-0.199029	-0.679076	-0.085548
2.210	3.782576	-1.378154	513.395429	-0.457064	3.532207	-0.203795	-0.688009	-0.089028
2.220	3.759808	-1.454852	513.516366	-0.471936	3.581946	-0.209927	-0.697533	-0.091903
2.230	3.730565	-1.517790	513.637005	-0.483876	3.632095	-0.217988	-0.707133	-0.094206
2.240	3.691353	-1.555140	513.737041	-0.492286	3.681921	-0.227859	-0.716694	-0.095824
2.250	3.638800	-1.560353	513.804586	-0.496136	3.733121	-0.238749	-0.726564	-0.096561
2.260	3.572227	-1.533739	513.837378	-0.494518	3.788704	-0.249407	-0.737335	-0.096240
2.270	3.496108	-1.481757	513.839365	-0.487189	3.850756	-0.258579	-0.749408	-0.094813
2.280	3.420500	-1.414403	513.813829	-0.474830	3.918128	-0.265569	-0.762558	-0.092413
2.290	3.358384	-1.341910	513.756368	-0.458975	3.985365	-0.270601	-0.775731	-0.089337
2.300	3.320618	-1.272077	513.652364	-0.441747	4.043712	-0.274742	-0.787247	-0.086001
2.310	3.310924	-1.209074	513.482188	-0.425608	4.084110	-0.279404	-0.795375	-0.082887
2.320	3.323693	-1.153838	513.233211	-0.413079	4.100938	-0.285711	-0.799040	-0.080486
2.330	3.346036	-1.105616	512.912946	-0.406222	4.094675	-0.294031	-0.798318	-0.079199
2.340	3.363090	-1.063858	512.555927	-0.405761	4.072164	-0.303809	-0.794482	-0.079164
2.350	3.363739	-1.029560	512.219443	-0.410245	4.044323	-0.313713	-0.789568	-0.080092
2.360	3.343828	-1.005226	511.968427	-0.415939	4.022398	-0.321979	-0.785673	-0.081243
2.370	3.305756	-0.993340	511.855052	-0.417877	4.014291	-0.326855	-0.784263	-0.081640
2.380	3.255495	-0.994175	511.901513	-0.411709	4.022301	-0.327026	-0.785757	-0.080427
