Time[s]	Fx[N]	Fy[N]	Fz[N]	Mx[Nm]	My[Nm]	Mz[Nm]	COPx[cm]	COPy[cm]
0.010	6.984425	-5.046840	562.962432	-5.938002	-36.293342	-0.373331	6.446850	-1.054778
0.020	7.118765	-5.029155	562.978393	-6.006810	-36.367680	-0.399165	6.459871	-1.066970
0.030	7.180050	-5.038584	563.010809	-6.077291	-36.420560	-0.421528	6.468892	-1.079427
0.040	7.117345	-5.093177	563.082869	-6.151470	-36.435791	-0.437744	6.470769	-1.092463
0.050	6.916601	-5.197864	563.230523	-6.231240	-36.406339	-0.446739	6.463843	-1.106339
0.060	6.602497	-5.343621	563.500144	-6.317354	-36.335119	-0.449155	6.448112	-1.121092
0.070	6.227507	-5.510637	563.938509	-6.408054	-36.232780	-0.446991	6.424952	-1.136304
0.080	5.853084	-5.674257	564.577636	-6.498096	-36.113522	-0.442956	6.396555	-1.150966
0.090	5.530398	-5.811924	565.420751	-6.578867	-35.990592	-0.439709	6.365276	-1.163535
0.100	5.287327	-5.909050	566.436572	-6.639759	-35.872997	-0.439150	6.333100	-1.172198
0.110	5.125133	-5.961923	567.565399	-6.670338	-35.764316	-0.441928	6.301356	-1.175254
0.120	5.024167	-5.976522	568.733932	-6.662464	-35.663689	-0.447351	6.270716	-1.171455
0.130	4.954862	-5.963590	569.871239	-6.611625	-35.568175	-0.453780	6.241441	-1.160196
0.140	4.889143	-5.932250	570.918965	-6.517189	-35.475190	-0.459346	6.213700	-1.141526
0.150	4.808239	-5.885453	571.833876	-6.381847	-35.383838	-0.462642	6.187783	-1.116032
0.160	4.705004	-5.819775	572.586000	-6.210736	-35.294786	-0.463074	6.164102	-1.084682
0.170	4.581315	-5.729601	573.157243	-6.010530	-35.209311	-0.460856	6.143046	-1.048670
0.180	4.443254	-5.613055	573.543160	-5.788394	-35.128647	-0.456861	6.124848	-1.009234
0.190	4.297525	-5.475860	573.756799	-5.550685	-35.054348	-0.452478	6.109618	-0.967428
0.200	4.151147	-5.330474	573.830583	-5.301580	-34.989439	-0.449412	6.097521	-0.923893
0.210	4.013895	-5.190832	573.811611	-5.042182	-34.939383	-0.449305	6.088999	-0.878717
0.220	3.900856	-5.065855	573.748884	-4.770593	-34.911802	-0.453172	6.084858	-0.831478
0.230	3.832079	-4.955618	573.676856	-4.482962	-34.914575	-0.460900	6.086105	-0.781444
0.240	3.827861	-4.852165	573.603600	-4.175027	-34.953031	-0.471129	6.093586	-0.727859
0.250	3.900997	-4.743929	573.510080	-3.843552	-35.027648	-0.481650	6.107591	-0.670180
0.260	4.049869	-4.620740	573.360646	-3.487246	-35.133417	-0.490228	6.127630	-0.608212
0.270	4.256425	-4.476748	573.118684	-3.107058	-35.261059	-0.495446	6.152488	-0.542132
0.280	4.490623	-4.310448	572.758603	-2.705871	-35.399214	-0.497185	6.180477	-0.472428
0.290	4.719235	-4.122930	572.267875	-2.287715	-35.536396	-0.496501	6.209749	-0.399763
0.300	4.914697	-3.916032	571.639729	-1.856812	-35.661938	-0.494953	6.238534	-0.324822
0.310	5.060295	-3.691424	570.863947	-1.416794	-35.766045	-0.493728	6.265249	-0.248184
0.320	5.150602	-3.450559	569.924883	-0.970303	-35.839726	-0.492996	6.288500	-0.170251
0.330	5.188503	-3.194959	568.811256	-0.518868	-35.875318	-0.491901	6.307069	-0.091220
0.340	5.181047	-2.926342	567.534260	-0.062874	-35.867721	-0.489169	6.319922	-0.011078
0.350	5.135864	-2.646381	566.144146	0.398407	-35.815872	-0.483982	6.326282	0.070372
0.360	5.059097	-2.356198	564.734859	0.866455	-35.723713	-0.476582	6.325750	0.153427
0.370	4.955132	-2.056019	563.432697	1.342615	-35.599994	-0.468267	6.318411	0.238292
0.380	4.827730	-1.745466	562.373572	1.826799	-35.456665	-0.460806	6.304824	0.324837
0.390	4.681354	-1.424692	561.677945	2.316278	-35.306172	-0.455552	6.285839	0.412385
0.400	4.521084	-1.096068	561.430629	2.805144	-35.158629	-0.452644	6.262328	0.499642
0.410	4.350404	-0.765683	561.668406	3.284751	-35.019978	-0.450639	6.234992	0.584820
0.420	4.168161	-0.443647	562.376020	3.745148	-34.891908	-0.446771	6.204373	0.665951
0.430	3.967604	-0.142435	563.490736	4.177148	-34.773372	-0.437820	6.171064	0.741298
0.440	3.739686	0.126620	564.914639	4.574425	-34.662796	-0.421255	6.135935	0.809755
0.450	3.479827	0.357420	566.531537	4.935031	-34.559814	-0.396204	6.100245	0.871096
0.460	3.194369	0.551971	568.223903	5.261976	-34.465903	-0.363786	6.065550	0.926039
0.470	2.902459	0.720653	569.887074	5.562942	-34.384004	-0.326705	6.033477	0.976148
0.480	2.631545	0.879659	571.441111	5.849454	-34.317707	-0.288279	6.005467	1.023632
0.490	2.408297	1.046557	572.840968	6.135749	-34.270762	-0.251339	5.982596	1.071109
0.500	2.249486	1.235685	574.082114	6.437270	-34.247336	-0.217404	5.965582	1.121315
0.510	2.157536	1.455185	575.196068	6.768520	-34.252825	-0.186434	5.954983	1.176733
0.520	2.123108	1.706509	576.232797	7.140346	-34.294375	-0.157228	5.951479	1.239143
0.530	2.133500	1.985798	577.233434	7.557217	-34.380181	-0.128297	5.956027	1.309213
0.540	2.182543	2.285838	578.202865	8.015421	-34.517338	-0.098826	5.969763	1.386264
0.550	2.276753	2.597740	579.093656	8.503023	-34.709010	-0.069360	5.993678	1.468333
0.560	2.434232	2.912288	579.808934	9.002014	-34.952168	-0.041914	6.028222	1.552583
0.570	2.676625	3.221262	580.223750	9.492284	-35.236914	-0.019464	6.072987	1.635970
0.580	3.018002	3.518695	580.216474	9.956157	-35.547645	-0.004987	6.126618	1.715938
0.590	3.455867	3.801514	579.698145	10.381755	-35.865610	-0.000388	6.186946	1.790890
0.600	3.968096	4.069034	578.630282	10.763866	-36.171953	-0.005713	6.251307	1.860232
0.610	4.516671	4.321405	577.028387	11.102381	-36.450406	-0.018988	6.316917	1.924062
0.620	5.056187	4.557829	574.955307	11.399711	-36.689206	-0.036778	6.381228	1.982713
0.630	5.543550	4.775519	572.512023	11.658983	-36.882202	-0.055271	6.442171	2.036461
0.640	5.945654	4.969921	569.831721	11.883888	-37.029297	-0.071414	6.498286	2.085508
0.650	6.243640	5.135922	567.077167	12.079625	-37.136335	-0.083600	6.548727	2.130155
0.660	6.434138	5.269142	564.435480	12.253507	-37.214360	-0.091714	6.593200	2.170931
0.670	6.528452	5.366452	562.103176	12.414184	-37.278037	-0.096701	6.631885	2.208524
0.680	6.549999	5.425598	560.259412	12.569528	-37.343136	-0.099906	6.665330	2.243519
0.690	6.529606	5.444666	559.033400	12.724224	-37.423349	-0.102421	6.694296	2.276112
0.700	6.498626	5.422278	558.477717	12.878388	-37.527165	-0.104580	6.719546	2.305981
0.710	6.481186	5.358845	558.558891	13.028053	-37.655820	-0.105785	6.741602	2.332440
0.720	6.488015	5.258344	559.170416	13.167443	-37.803107	-0.104708	6.760570	2.354818
0.730	6.514305	5.129519	560.164402	13.291950	-37.957239	-0.099826	6.776089	2.372866
0.740	6.542695	4.985484	561.390372	13.400307	-38.104270	-0.090083	6.787482	2.386986
0.750	6.550336	4.841419	562.726734	13.494746	-38.232048	-0.075472	6.794070	2.398099
0.760	6.517389	4.710946	564.094083	13.579042	-38.333312	-0.057350	6.795553	2.407230
0.770	6.433980	4.602294	565.448828	13.655523	-38.406790	-0.038362	6.792266	2.414988
0.780	6.303582	4.515622	566.765749	13.722689	-38.456016	-0.021917	6.785169	2.421228
0.790	6.142265	4.442705	568.022242	13.774797	-38.486768	-0.011346	6.775574	2.425045
0.800	5.974656	4.369588	569.192553	13.803689	-38.504668	-0.008989	6.764788	2.425135
0.810	5.828370	4.281670	570.251353	13.802003	-38.514129	-0.015568	6.753886	2.420337
0.820	5.728542	4.169629	571.179824	13.766303	-38.518696	-0.030130	6.743707	2.410152
0.830	5.693242	4.034259	571.967651	13.698822	-38.521884	-0.050524	6.734976	2.395034
0.840	5.729769	3.888742	572.609210	13.607376	-38.527460	-0.074094	6.728404	2.376381
0.850	5.832165	3.757584	573.097882	13.503852	-38.538820	-0.098237	6.724649	2.356291
0.860	5.981152	3.671899	573.424682	13.402146	-38.558036	-0.120701	6.724167	2.337211
0.870	6.147723	3.661398	573.584300	13.316157	-38.585479	-0.139722	6.727081	2.321569
0.880	6.300206	3.744813	573.585394	13.257911	-38.620480	-0.154102	6.733170	2.311410
0.890	6.412913	3.921970	573.458038	13.235624	-38.662643	-0.163252	6.742018	2.308037
0.900	6.473716	4.171050	573.252502	13.251818	-38.712999	-0.167219	6.753219	2.311689
0.910	6.488084	4.452898	573.027941	13.302096	-38.774260	-0.166718	6.766557	2.321370
0.920	6.477831	4.721110	572.833990	13.375318	-38.850030	-0.163123	6.782075	2.334938
0.930	6.474239	4.933897	572.691800	13.455424	-38.943323	-0.158275	6.800049	2.349505
0.940	6.507423	5.063309	572.582719	13.524470	-39.055055	-0.154003	6.820858	2.362012
0.950	6.595690	5.099350	572.450835	13.565910	-39.183054	-0.151465	6.844789	2.369795
0.960	6.739165	5.049078	572.219913	13.567252	-39.321885	-0.150664	6.871813	2.370986
0.970	6.920338	4.932284	571.818599	13.521588	-39.463510	-0.150470	6.901404	2.364664
0.980	7.111282	4.775674	571.203848	13.428020	-39.598612	-0.149200	6.932483	2.350828
0.990	7.284341	4.607045	570.373570	13.291218	-39.718293	-0.145519	6.963558	2.330265
1.000	7.421650	4.450257	569.365154	13.120252	-39.815707	-0.139237	6.993000	2.304365
1.010	7.519696	4.321123	568.243283	12.926667	-39.887110	-0.131586	7.019372	2.274847
1.020	7.587660	4.224409	567.084202	12.721863	-39.931999	-0.124831	7.041635	2.243382
1.030	7.641165	4.152664	565.962672	12.514186	-39.952428	-0.121417	7.059198	2.211133
1.040	7.694653	4.087833	564.944426	12.306590	-39.951957	-0.123139	7.071838	2.178372
1.050	7.755475	4.005885	564.083663	12.095788	-39.934702	-0.130705	7.079571	2.144325
1.060	7.821432	3.883436	563.423312	11.873305	-39.904747	-0.143730	7.082552	2.107351
1.070	7.882165	3.704411	562.995557	11.628052	-39.865802	-0.160977	7.081015	2.065390
1.080	7.923682	3.464679	562.821062	11.349542	-39.820903	-0.180642	7.075233	2.016545
1.090	7.934323	3.173264	562.906709	11.030785	-39.771907	-0.200616	7.065453	1.959612
1.100	7.909702	2.849800	563.242418	10.670205	-39.718811	-0.218797	7.051815	1.894425
1.110	7.854329	2.519010	563.797929	10.272174	-39.659155	-0.233432	7.034285	1.821960
1.120	7.779055	2.203906	564.521194	9.846071	-39.587865	-0.243444	7.012645	1.744145
1.130	7.695653	1.919836	565.340925	9.404112	-39.497763	-0.248639	6.986539	1.663441
1.140	7.611447	1.671231	566.175505	8.958594	-39.380710	-0.249680	6.955566	1.582300
1.150	7.526770	1.451981	566.947827	8.519559	-39.229154	-0.247804	6.919359	1.502706
1.160	7.436188	1.249257	567.602140	8.093875	-39.037730	-0.244394	6.877657	1.425977
1.170	7.332087	1.049558	568.117300	7.686240	-38.804611	-0.240609	6.830387	1.352932
1.180	7.208010	0.844919	568.512239	7.301615	-38.532432	-0.237240	6.777767	1.284337
1.190	7.060105	0.637078	568.842116	6.947678	-38.228756	-0.234823	6.720451	1.221372
1.200	6.887007	0.438170	569.185491	6.635652	-37.905830	-0.233889	6.659662	1.165815
1.210	6.689588	0.267890	569.623954	6.378672	-37.579241	-0.235134	6.597202	1.119804
1.220	6.471222	0.148065	570.217855	6.188121	-37.265248	-0.239292	6.535265	1.085221
1.230	6.237790	0.096264	570.985216	6.069474	-36.977370	-0.246654	6.476064	1.062983
1.240	5.996498	0.120370	571.892364	6.019563	-36.723457	-0.256471	6.421393	1.052569
1.250	5.754135	0.215867	572.861085	6.026553	-36.504466	-0.266679	6.372307	1.052009
1.260	5.516523	0.366612	573.789925	6.072664	-36.315423	-0.274263	6.329045	1.058343
1.270	5.290001	0.548655	574.581683	6.138366	-36.148074	-0.276209	6.291199	1.068319
1.280	5.083628	0.735708	575.167598	6.206286	-35.994146	-0.270597	6.258027	1.079040
1.290	4.909763	0.904362	575.520478	6.263566	-35.848096	-0.257388	6.228813	1.088331
1.300	4.781909	1.037340	575.652942	6.302402	-35.708640	-0.238584	6.203154	1.094827
1.310	4.710962	1.124144	575.602561	6.319285	-35.578857	-0.217702	6.181150	1.097856
1.320	4.702185	1.160083	575.411277	6.313711	-35.465052	-0.198764	6.163427	1.097252
1.330	4.754456	1.145478	575.108525	6.286954	-35.374714	-0.185189	6.150963	1.093177
1.340	4.861546	1.085961	574.704261	6.241123	-35.313902	-0.179042	6.144709	1.085971
1.350	5.013900	0.993009	574.191983	6.178440	-35.284614	-0.180895	6.145090	1.076023
1.360	5.199411	0.883006	573.557580	6.100618	-35.282986	-0.190190	6.151603	1.063645
1.370	5.402930	0.774030	572.789550	6.008400	-35.299242	-0.205750	6.162690	1.048972
1.380	5.605845	0.681277	571.887931	5.901476	-35.319767	-0.226088	6.175995	1.031929
1.390	5.787797	0.613283	570.870692	5.778958	-35.330759	-0.249446	6.188925	1.012306
1.400	5.931478	0.570684	569.776560	5.640315	-35.322103	-0.273791	6.199290	0.989917
1.410	6.028983	0.547730	568.663460	5.486360	-35.289998	-0.297032	6.205779	0.964781
1.420	6.086463	0.535147	567.602577	5.319658	-35.237368	-0.317524	6.208106	0.937215
1.430	6.124055	0.522721	566.668472	5.143868	-35.171879	-0.334623	6.206782	0.907739
1.440	6.170036	0.500975	565.924929	4.962006	-35.102192	-0.348910	6.202623	0.876796
1.450	6.250611	0.462474	565.405949	4.774210	-35.033504	-0.361826	6.196168	0.844386
1.460	6.378414	0.403428	565.094366	4.575874	-34.963540	-0.374786	6.187204	0.809754
1.470	6.543268	0.325191	564.906064	4.356968	-34.879912	-0.388088	6.174462	0.771273
1.480	6.708248	0.234135	564.691602	4.103085	-34.759710	-0.400140	6.155521	0.726606
1.490	6.813311	0.138536	564.265018	3.798370	-34.572135	-0.407397	6.126932	0.673154
1.500	6.787534	0.042881	563.460856	3.429947	-34.284693	-0.405292	6.084663	0.608729
1.510	6.568758	-0.057822	562.207025	2.992984	-33.872369	-0.390051	6.024892	0.532363
1.520	6.126054	-0.180194	560.588150	2.494996	-33.327500	-0.360852	5.945095	0.445068
1.530	5.477356	-0.348841	558.869097	1.957589	-32.666750	-0.321476	5.845152	0.350277
1.540	4.693573	-0.587558	557.456997	1.413994	-31.931542	-0.280501	5.728073	0.253651
1.550	3.883580	-0.908932	556.802531	0.901990	-31.180195	-0.249507	5.599866	0.161995
1.560	3.161606	-1.306863	557.269338	0.453942	-30.473321	-0.239525	5.468329	0.081458
1.570	2.607607	-1.754919	559.019827	0.087679	-29.857532	-0.256892	5.341051	0.015684
1.580	2.237492	-2.210567	561.963076	-0.197770	-29.353939	-0.300315	5.223464	-0.035193
1.590	1.998484	-2.623329	565.784257	-0.419659	-28.956062	-0.360663	5.117863	-0.074173
1.600	1.794060	-2.944631	570.038992	-0.603666	-28.637458	-0.423821	5.023772	-0.105899
1.610	1.527728	-3.137823	574.270497	-0.774693	-28.364981	-0.475355	4.939307	-0.134900
1.620	1.144903	-3.186992	578.104703	-0.950341	-28.111656	-0.504952	4.862727	-0.164389
1.630	0.653632	-3.102542	581.296398	-1.138965	-27.864243	-0.508975	4.793466	-0.195935
1.640	0.116941	-2.921169	583.725315	-1.341613	-27.623676	-0.490593	4.732307	-0.229836
1.650	-0.375984	-2.698924	585.361191	-1.555652	-27.399926	-0.457934	4.680858	-0.265759
1.660	-0.743915	-2.498380	586.223133	-1.777911	-27.204822	-0.421129	4.640694	-0.303282
1.670	-0.937949	-2.373442	586.351486	-2.006202	-27.046372	-0.389250	4.612655	-0.342150
1.680	-0.948720	-2.356473	585.796850	-2.239181	-26.926539	-0.368019	4.596566	-0.382245
1.690	-0.798467	-2.451761	584.620466	-2.475319	-26.842339	-0.358872	4.591413	-0.423406
1.700	-0.526073	-2.637192	582.898072	-2.711984	-26.788606	-0.359444	4.595762	-0.465259
1.710	-0.173816	-2.873205	580.723194	-2.945411	-26.760481	-0.365054	4.608130	-0.507197
1.720	0.219601	-3.115804	578.209548	-3.171670	-26.754567	-0.370499	4.627140	-0.548533
1.730	0.620422	-3.329327	575.492546	-3.387986	-26.769079	-0.371557	4.651507	-0.588711
1.740	0.999510	-3.495165	572.728047	-3.593509	-26.803870	-0.365869	4.680035	-0.627437
1.750	1.333980	-3.614116	570.085665	-3.789015	-26.860830	-0.353164	4.711718	-0.664640
1.760	1.611658	-3.702164	567.735439	-3.975640	-26.944198	-0.334966	4.745907	-0.700263
1.770	1.835755	-3.781592	565.829070	-4.153324	-27.059968	-0.313959	4.782357	-0.734025
1.780	2.025430	-3.870864	564.478639	-4.319831	-27.213920	-0.293173	4.821072	-0.765278
1.790	2.209517	-3.977038	563.736862	-4.471023	-27.408715	-0.275070	4.861970	-0.793105
1.800	2.414832	-4.093330	563.584748	-4.602351	-27.641226	-0.260747	4.904538	-0.816621
1.810	2.654291	-4.202286	563.933078	-4.710747	-27.901431	-0.249587	4.947649	-0.835338
1.820	2.920788	-4.282756	564.640658	-4.795831	-28.173678	-0.239657	4.989665	-0.849360
1.830	3.189971	-4.317634	565.544787	-4.859832	-28.439966	-0.228756	5.028773	-0.859319
1.840	3.430340	-4.299742	566.493212	-4.906444	-28.683890	-0.215597	5.063413	-0.866108
1.850	3.615389	-4.234621	567.366873	-4.939363	-28.893580	-0.200475	5.092574	-0.870577
1.860	3.731864	-4.140087	568.088918	-4.961293	-29.062719	-0.185084	5.115875	-0.873330
1.870	3.781063	-4.042643	568.622987	-4.973811	-29.189834	-0.171673	5.133425	-0.874712
1.880	3.774424	-3.971064	568.967402	-4.977962	-29.276864	-0.162102	5.145614	-0.874912
1.890	3.727532	-3.948311	569.150041	-4.975021	-29.328042	-0.157302	5.152954	-0.874114
1.900	3.656540	-3.984095	569.223587	-4.966918	-29.349580	-0.157320	5.156072	-0.872578
1.910	3.578253	-4.070823	569.257457	-4.956109	-29.349871	-0.161739	5.155817	-0.870627
1.920	3.511746	-4.184880	569.323818	-4.945127	-29.339459	-0.170113	5.153387	-0.868597
1.930	3.477810	-4.293537	569.479597	-4.936272	-29.330025	-0.182101	5.150321	-0.866804
1.940	3.493982	-4.365678	569.750239	-4.931678	-29.332208	-0.197239	5.148257	-0.865586
1.950	3.566774	-4.382644	570.121569	-4.933682	-29.352836	-0.214565	5.148522	-0.865374
1.960	3.685941	-4.344832	570.543300	-4.945107	-29.392770	-0.232466	5.151716	-0.866737
1.970	3.825399	-4.271303	570.943335	-4.969272	-29.446549	-0.248951	5.157526	-0.870362
1.980	3.951538	-4.192890	571.248141	-5.009729	-29.504428	-0.262279	5.164906	-0.876979
1.990	4.035169	-4.142196	571.402558	-5.069935	-29.556252	-0.271580	5.172580	-0.887279
2.000	4.061592	-4.144617	571.383040	-5.153048	-29.595629	-0.277131	5.179648	-0.901855
2.010	4.034851	-4.213204	571.201142	-5.261815	-29.622538	-0.280146	5.186008	-0.921184
2.020	3.975410	-4.347913	570.898019	-5.398366	-29.643148	-0.282250	5.192372	-0.945592
2.030	3.913022	-4.538092	570.533426	-5.563598	-29.666960	-0.284941	5.199864	-0.975157
2.040	3.877615	-4.766402	570.173138	-5.756082	-29.702692	-0.289259	5.209416	-1.009532
2.050	3.891204	-5.012697	569.877500	-5.970931	-29.754939	-0.295720	5.221287	-1.047757
2.060	3.963385	-5.257180	569.692427	-6.199315	-29.823096	-0.304440	5.234947	-1.088186
2.070	4.091719	-5.482933	569.643222	-6.429128	-29.902834	-0.315325	5.249397	-1.128624
2.080	4.266144	-5.678176	569.731081	-6.646766	-29.989064	-0.328197	5.263723	-1.166650
2.090	4.474596	-5.838058	569.931737	-6.839570	-30.078621	-0.342765	5.277583	-1.200068
2.100	4.706606	-5.965004	570.195982	-6.998258	-30.171145	-0.358438	5.291364	-1.227343
2.110	4.953346	-6.066823	570.453240	-7.118581	-30.267727	-0.374150	5.305908	-1.247882
2.120	5.205200	-6.153116	570.620707	-7.201675	-30.368225	-0.388330	5.321963	-1.262077
2.130	5.449590	-6.231856	570.619651	-7.253004	-30.468931	-0.399084	5.339622	-1.271075
2.140	5.671456	-6.307984	570.396500	-7.280311	-30.562094	-0.404560	5.358044	-1.276360
2.150	5.856839	-6.384339	569.941678	-7.291341	-30.637767	-0.403397	5.375597	-1.279314
2.160	5.997885	-6.463444	569.297720	-7.291996	-30.687160	-0.395153	5.390354	-1.280876
2.170	6.096615	-6.548014	568.551750	-7.285289	-30.705819	-0.380517	5.400708	-1.281377
2.180	6.165239	-6.639347	567.813716	-7.271074	-30.695085	-0.361187	5.405837	-1.280539
2.190	6.222210	-6.734764	567.187677	-7.246362	-30.661208	-0.339442	5.405831	-1.277595
2.200	6.284939	-6.826445	566.746692	-7.206036	-30.612688	-0.317578	5.401476	-1.271474
2.210	6.361864	-6.903015	566.520891	-7.143688	-30.557147	-0.297381	5.393825	-1.260975
2.220	6.447625	-6.953117	566.502643	-7.052267	-30.499169	-0.279808	5.383765	-1.244878
2.230	6.524399	-6.968492	566.664401	-6.924307	-30.439907	-0.264962	5.371770	-1.221941
2.240	6.569406	-6.944364	566.978351	-6.751823	-30.378202	-0.252332	5.357912	-1.190843
2.250	6.565049	-6.876978	567.426461	-6.526279	-30.312150	-0.241136	5.342040	-1.150154
2.260	6.506447	-6.760382	567.995886	-6.238996	-30.240045	-0.230557	5.323990	-1.098423
2.270	6.402578	-6.585340	568.664451	-5.881997	-30.160248	-0.219833	5.303699	-1.034353
2.280	6.270727	-6.341797	569.387321	-5.448903	-30.070389	-0.208308	5.281183	-0.956976
2.290	6.127330	-6.023675	570.094882	-4.935504	-29.966729	-0.195596	5.256446	-0.865734
2.300	5.979838	-5.632845	570.704683	-4.340019	-29.844330	-0.181879	5.229382	-0.760467
2.310	5.823580	-5.179524	571.142351	-3.663414	-29.698111	-0.168174	5.199774	-0.641419
2.320	5.645194	-4.678667	571.361824	-2.910125	-29.524346	-0.156261	5.167364	-0.509331
2.330	5.431078	-4.144460	571.355456	-2.089122	-29.321976	-0.148161	5.132002	-0.365643
2.340	5.176686	-3.586024	571.149615	-1.214773	-29.093253	-0.145276	5.093806	-0.212689
2.350	4.891878	-3.006582	570.788908	-0.306772	-28.843444	-0.147605	5.053259	-0.053745
