Time[s]	Fx[N]	Fy[N]	Fz[N]	Mx[Nm]	My[Nm]	Mz[Nm]	COPx[cm]	COPy[cm]
0.010	3.461971	-1.304390	631.625054	0.754848	2.411984	-0.467365	-0.381870	0.119509
0.020	3.451295	-1.233834	631.523916	0.809907	2.339882	-0.473398	-0.370514	0.128246
0.030	3.461122	-1.162734	631.457902	0.867103	2.271849	-0.478104	-0.359778	0.137318
0.040	3.504670	-1.089410	631.457069	0.927990	2.210983	-0.480561	-0.350140	0.146960
0.050	3.583145	-1.010473	631.539341	0.993167	2.158884	-0.480656	-0.341845	0.157261
0.060	3.686493	-0.922048	631.703990	1.062185	2.115686	-0.479221	-0.334917	0.168146
0.070	3.798093	-0.821960	631.927127	1.133748	2.080697	-0.477765	-0.329262	0.179411
0.080	3.900796	-0.711634	632.162704	1.206033	2.053311	-0.477832	-0.324807	0.190779
0.090	3.981736	-0.596606	632.351766	1.276948	2.033575	-0.480295	-0.321589	0.201936
0.100	4.034485	-0.485249	632.438915	1.344251	2.021974	-0.484967	-0.319711	0.212550
0.110	4.058755	-0.386244	632.390344	1.405616	2.018516	-0.490745	-0.319188	0.222270
0.120	4.058817	-0.305962	632.205968	1.458770	2.021803	-0.496169	-0.319801	0.230743
0.130	4.041699	-0.246932	631.920451	1.501699	2.028838	-0.500086	-0.321059	0.237641
0.140	4.015541	-0.208016	631.592789	1.532786	2.035833	-0.502048	-0.322333	0.242686
0.150	3.988103	-0.185994	631.288627	1.550806	2.039535	-0.502360	-0.323075	0.245657
0.160	3.965392	-0.177661	631.061651	1.554983	2.038272	-0.501865	-0.322991	0.246407
0.170	3.950494	-0.181355	630.939938	1.545393	2.032166	-0.501647	-0.322085	0.244935
0.180	3.942869	-0.197175	630.920944	1.523615	2.022595	-0.502760	-0.320578	0.241491
0.190	3.938644	-0.225808	630.975830	1.493143	2.011354	-0.506041	-0.318769	0.236640
0.200	3.932390	-0.266743	631.061068	1.459116	1.999888	-0.511998	-0.316909	0.231216
0.210	3.919999	-0.317028	631.133577	1.427294	1.988766	-0.520751	-0.315110	0.226148
0.220	3.901121	-0.371336	631.164814	1.402631	1.977464	-0.531999	-0.313304	0.222229
0.230	3.879493	-0.423094	631.149087	1.387973	1.964607	-0.545015	-0.311275	0.219912
0.240	3.860840	-0.465846	631.103171	1.383379	1.948630	-0.558695	-0.308766	0.219200
0.250	3.849738	-0.494292	631.058224	1.386407	1.928614	-0.571696	-0.305616	0.219696
0.260	3.847440	-0.505072	631.048297	1.393267	1.904859	-0.582657	-0.301856	0.220786
0.270	3.851741	-0.497406	631.099716	1.400350	1.878926	-0.590495	-0.297723	0.221890
0.280	3.858631	-0.473381	631.223407	1.405449	1.853161	-0.594696	-0.293582	0.222655
0.290	3.864581	-0.437457	631.410983	1.408182	1.829916	-0.595512	-0.289814	0.223021
0.300	3.868295	-0.395208	631.635443	1.409553	1.810821	-0.593914	-0.286688	0.223159
0.310	3.871097	-0.351942	631.857010	1.411041	1.796391	-0.591257	-0.284303	0.223316
0.320	3.875854	-0.311938	632.033246	1.413681	1.786114	-0.588759	-0.282598	0.223672
0.330	3.885097	-0.278550	632.131282	1.417472	1.778968	-0.586993	-0.281424	0.224237
0.340	3.899459	-0.254773	632.138934	1.421234	1.774115	-0.585624	-0.280653	0.224829
0.350	3.917217	-0.243566	632.070865	1.422915	1.771473	-0.583534	-0.280265	0.225120
0.360	3.935026	-0.247524	631.966172	1.420176	1.771866	-0.579368	-0.280374	0.224723
0.370	3.949375	-0.267974	631.876180	1.410966	1.776644	-0.572273	-0.281170	0.223298
0.380	3.958105	-0.303956	631.845847	1.393833	1.786926	-0.562472	-0.282810	0.220597
0.390	3.961459	-0.351583	631.896423	1.367851	1.802852	-0.551340	-0.285308	0.216468
0.400	3.962417	-0.404124	632.017096	1.332358	1.823271	-0.540927	-0.288484	0.210810
0.410	3.966117	-0.453007	632.168664	1.286918	1.846021	-0.533211	-0.292014	0.203572
0.420	3.978127	-0.489804	632.296335	1.231766	1.868641	-0.529454	-0.295532	0.194808
0.430	4.001827	-0.508847	632.345939	1.168495	1.889191	-0.529897	-0.298759	0.184787
0.440	4.036079	-0.509578	632.278744	1.100344	1.906970	-0.533827	-0.301603	0.174028
0.450	4.074783	-0.497451	632.082297	1.031639	1.922991	-0.539874	-0.304231	0.163213
0.460	4.109058	-0.482407	631.775689	0.966538	1.940017	-0.546404	-0.307074	0.152988
0.470	4.130944	-0.475013	631.407463	0.907771	1.961933	-0.551893	-0.310724	0.143769
0.480	4.136334	-0.481938	631.044913	0.856042	1.992481	-0.555210	-0.315743	0.135655
0.490	4.125394	-0.503268	630.756437	0.810295	2.033795	-0.555721	-0.322437	0.128464
0.500	4.100592	-0.533290	630.592482	0.768544	2.085377	-0.553219	-0.330701	0.121876
0.510	4.064101	-0.564179	630.572129	0.728845	2.144035	-0.547781	-0.340014	0.115585
0.520	4.016556	-0.590291	630.680059	0.690036	2.204817	-0.539720	-0.349594	0.109411
0.530	3.957870	-0.610708	630.874263	0.651995	2.262535	-0.529620	-0.358635	0.103348
0.540	3.889194	-0.628978	631.100871	0.615303	2.313254	-0.518331	-0.366543	0.097497
0.550	3.814374	-0.650573	631.310405	0.580435	2.355217	-0.506793	-0.373068	0.091941
0.560	3.739819	-0.679589	631.470357	0.546869	2.388952	-0.495732	-0.378316	0.086602
0.570	3.672874	-0.716362	631.571287	0.512713	2.416619	-0.485493	-0.382636	0.081180
0.580	3.619536	-0.757070	631.625706	0.475294	2.440906	-0.476139	-0.386448	0.075249
0.590	3.582426	-0.795386	631.660227	0.432539	2.463911	-0.467754	-0.390069	0.068476
0.600	3.559727	-0.825180	631.703506	0.384285	2.486349	-0.460666	-0.393594	0.060833
0.610	3.545677	-0.842901	631.775080	0.332646	2.507329	-0.455425	-0.396871	0.052653
0.620	3.532823	-0.848647	631.880108	0.281200	2.524757	-0.452522	-0.399563	0.044502
0.630	3.515396	-0.845832	632.010848	0.233518	2.536184	-0.452010	-0.401288	0.036948
0.640	3.492373	-0.839881	632.151450	0.191750	2.539754	-0.453256	-0.401764	0.030333
0.650	3.468804	-0.836549	632.282233	0.155835	2.534832	-0.455051	-0.400902	0.024646
0.660	3.454749	-0.840455	632.382393	0.123509	2.522076	-0.456109	-0.398821	0.019531
0.670	3.462051	-0.854281	632.432537	0.091000	2.503082	-0.455783	-0.395786	0.014389
0.680	3.499907	-0.878719	632.418532	0.054072	2.479932	-0.454541	-0.392135	0.008550
0.690	3.570837	-0.912814	632.336301	0.009024	2.454907	-0.453893	-0.388228	0.001427
0.700	3.668943	-0.954320	632.195483	-0.046590	2.430302	-0.455741	-0.384422	-0.007370
0.710	3.781477	-0.999962	632.019774	-0.113523	2.408133	-0.461494	-0.381022	-0.017962
0.720	3.893035	-1.045800	631.843194	-0.190606	2.389712	-0.471382	-0.378213	-0.030167
0.730	3.990232	-1.087883	631.702890	-0.274739	2.375355	-0.484259	-0.376024	-0.043492
0.740	4.064839	-1.123201	631.629872	-0.361145	2.364538	-0.497938	-0.374355	-0.057177
0.750	4.114602	-1.150690	631.639678	-0.443976	2.356491	-0.509958	-0.373075	-0.070289
0.760	4.142192	-1.171814	631.726050	-0.517292	2.350857	-0.518503	-0.372132	-0.081886
0.770	4.153170	-1.190139	631.861122	-0.576284	2.347937	-0.523093	-0.371591	-0.091204
0.780	4.153828	-1.209555	632.003330	-0.618369	2.348329	-0.524763	-0.371569	-0.097843
0.790	4.149468	-1.231649	632.109964	-0.643752	2.352234	-0.525655	-0.372124	-0.101842
0.800	4.143216	-1.253741	632.148817	-0.655275	2.358979	-0.528190	-0.373168	-0.103658
0.810	4.135127	-1.269211	632.105061	-0.657764	2.367244	-0.534068	-0.374502	-0.104059
0.820	4.121603	-1.270494	631.982734	-0.657246	2.375975	-0.543419	-0.375956	-0.103997
0.830	4.095634	-1.253264	631.801638	-0.660238	2.385500	-0.554457	-0.377571	-0.104501
0.840	4.048332	-1.219601	631.590539	-0.672969	2.398211	-0.563895	-0.379710	-0.106552
0.850	3.971600	-1.178645	631.378608	-0.700312	2.418418	-0.568033	-0.383038	-0.110918
0.860	3.861215	-1.144553	631.188620	-0.744505	2.451407	-0.564054	-0.388379	-0.117953
0.870	3.719236	-1.132488	631.034732	-0.804234	2.502023	-0.550945	-0.396495	-0.127447
0.880	3.554685	-1.153884	630.924255	-0.874786	2.573198	-0.529735	-0.407846	-0.138652
0.890	3.382074	-1.212524	630.860203	-0.949533	2.664890	-0.503102	-0.422422	-0.150514
0.900	3.218309	-1.302864	630.842168	-1.022214	2.773826	-0.474647	-0.439702	-0.162040
0.910	3.079270	-1.411457	630.865855	-1.088989	2.894172	-0.448051	-0.458762	-0.172618
0.920	2.977161	-1.521296	630.923231	-1.149320	3.018804	-0.426287	-0.478474	-0.182165
0.930	2.918929	-1.617703	631.004739	-1.205341	3.140596	-0.411044	-0.497714	-0.191019
0.940	2.905569	-1.693375	631.102719	-1.260082	3.253283	-0.402556	-0.515492	-0.199664
0.950	2.932087	-1.750170	631.212902	-1.315439	3.351879	-0.399928	-0.531022	-0.208399
0.960	2.988101	-1.796697	631.331228	-1.370840	3.432939	-0.401794	-0.543762	-0.217135
0.970	3.059158	-1.843063	631.447339	-1.423210	3.494863	-0.406994	-0.553469	-0.225389
0.980	3.128875	-1.895559	631.540293	-1.468175	3.538134	-0.414995	-0.560239	-0.232475
0.990	3.181804	-1.953630	631.581696	-1.501896	3.565240	-0.425978	-0.564494	-0.237799
1.000	3.206408	-2.009895	631.546327	-1.522690	3.580188	-0.440639	-0.566892	-0.241105
1.010	3.197223	-2.052765	631.425264	-1.531679	3.587799	-0.459817	-0.568206	-0.242575
1.020	3.155504	-2.070706	631.234777	-1.532235	3.593035	-0.484049	-0.569207	-0.242736
1.030	3.088131	-2.056852	631.015897	-1.528548	3.600485	-0.513150	-0.570585	-0.242236
1.040	3.005130	-2.012149	630.823766	-1.524013	3.613869	-0.545956	-0.572881	-0.241591
1.050	2.916593	-1.945485	630.710965	-1.520077	3.635374	-0.580380	-0.576393	-0.241010
1.060	2.830003	-1.870658	630.712140	-1.515866	3.664941	-0.613833	-0.581080	-0.240342
1.070	2.748810	-1.801500	630.835971	-1.508620	3.700049	-0.643862	-0.586531	-0.239146
1.080	2.672521	-1.747185	631.066038	-1.494607	3.736466	-0.668732	-0.592088	-0.236838
1.090	2.598110	-1.709346	631.367612	-1.470101	3.769860	-0.687741	-0.597094	-0.232844
1.100	2.522436	-1.681895	631.696106	-1.432190	3.797471	-0.701209	-0.601155	-0.226721
1.110	2.445096	-1.653479	632.004831	-1.379503	3.818902	-0.710214	-0.604252	-0.218274
1.120	2.370560	-1.611669	632.252017	-1.312775	3.835569	-0.716202	-0.606652	-0.207635
1.130	2.308305	-1.547248	632.407251	-1.234899	3.849261	-0.720648	-0.608668	-0.195270
1.140	2.270501	-1.456872	632.456368	-1.150116	3.860727	-0.724854	-0.610434	-0.181849
1.150	2.268108	-1.343032	632.403392	-1.062483	3.869116	-0.729828	-0.611811	-0.168007
1.160	2.306964	-1.211722	632.268754	-0.974299	3.872405	-0.736179	-0.612462	-0.154096
1.170	2.385271	-1.069319	632.083822	-0.885330	3.868442	-0.743959	-0.612014	-0.140065
1.180	2.493207	-0.920454	631.883127	-0.793319	3.855969	-0.752528	-0.610234	-0.125548
1.190	2.614760	-0.767807	631.697111	-0.695556	3.835206	-0.760577	-0.607127	-0.110109
1.200	2.731522	-0.613656	631.548024	-0.590711	3.807855	-0.766353	-0.602940	-0.093534
1.210	2.827763	-0.462030	631.449380	-0.479987	3.776552	-0.768095	-0.598077	-0.076013
1.220	2.895398	-0.319975	631.407109	-0.367059	3.743877	-0.764529	-0.592942	-0.058133
1.230	2.936802	-0.196842	631.420173	-0.256985	3.711194	-0.755279	-0.587753	-0.040700
1.240	2.963627	-0.101707	631.479734	-0.154730	3.677841	-0.741027	-0.582416	-0.024503
1.250	2.991520	-0.040095	631.568185	-0.064022	3.641186	-0.723368	-0.576531	-0.010137
1.260	3.033007	-0.011412	631.660817	0.013035	3.597675	-0.704392	-0.569558	0.002064
1.270	3.092125	-0.008010	631.731699	0.075657	3.544442	-0.686159	-0.561068	0.011976
1.280	3.163382	-0.016320	631.762138	0.123725	3.480742	-0.670205	-0.550958	0.019584
1.290	3.235059	-0.020170	631.747628	0.157327	3.408576	-0.657230	-0.539547	0.024903
1.300	3.294702	-0.005666	631.699953	0.176839	3.332279	-0.647034	-0.527510	0.027994
1.310	3.334118	0.034022	631.643837	0.183439	3.257284	-0.638727	-0.515684	0.029042
1.320	3.352070	0.096151	631.609574	0.179515	3.188536	-0.631110	-0.504827	0.028422
1.330	3.354194	0.169473	631.623652	0.168449	3.129133	-0.623036	-0.495411	0.026669
1.340	3.350595	0.238455	631.699664	0.153748	3.079647	-0.613629	-0.487518	0.024339
1.350	3.352059	0.288637	631.832235	0.137999	3.038392	-0.602376	-0.480886	0.021841
1.360	3.366127	0.310793	631.996670	0.122233	3.002527	-0.589191	-0.475086	0.019341
1.370	3.394440	0.302457	632.155597	0.105997	2.969548	-0.574528	-0.469750	0.016768
1.380	3.432600	0.267156	632.271130	0.087893	2.938476	-0.559434	-0.464749	0.013901
1.390	3.472810	0.212756	632.318185	0.066097	2.910143	-0.545420	-0.460234	0.010453
1.400	3.507997	0.149813	632.293682	0.038557	2.886461	-0.534088	-0.456506	0.006098
1.410	3.535172	0.089668	632.218070	0.002969	2.869135	-0.526630	-0.453820	0.000470
1.420	3.556020	0.041923	632.128414	-0.043181	2.858532	-0.523431	-0.452208	-0.006831
1.430	3.574335	0.011831	632.064914	-0.102296	2.853175	-0.523971	-0.451405	-0.016184
1.440	3.591935	-0.001317	632.055059	-0.176019	2.849918	-0.527026	-0.450897	-0.027849
1.450	3.605951	-0.004037	632.101342	-0.264484	2.844663	-0.531061	-0.450033	-0.041842
1.460	3.609624	-0.006632	632.177939	-0.365892	2.833443	-0.534649	-0.448203	-0.057878
1.470	3.596282	-0.019830	632.238437	-0.476730	2.813608	-0.536759	-0.445023	-0.075404
1.480	3.563865	-0.051226	632.231909	-0.592642	2.784744	-0.536847	-0.440462	-0.093738
1.490	3.516926	-0.102900	632.121075	-0.709499	2.748905	-0.534732	-0.434870	-0.112241
1.500	3.464839	-0.171244	631.895907	-0.824215	2.710059	-0.530366	-0.428877	-0.130435
1.510	3.417346	-0.249138	631.578339	-0.935011	2.672977	-0.523661	-0.423222	-0.148043
1.520	3.380103	-0.329515	631.216813	-1.041163	2.642060	-0.514497	-0.418566	-0.164945
1.530	3.352646	-0.408523	630.872430	-1.142517	2.620512	-0.502913	-0.415379	-0.181101
1.540	3.329649	-0.486589	630.601647	-1.239070	2.610054	-0.489329	-0.413899	-0.196490
1.550	3.304324	-0.566946	630.442239	-1.330741	2.611044	-0.474602	-0.414161	-0.211081
1.560	3.271750	-0.652807	630.407383	-1.417268	2.622709	-0.459812	-0.416034	-0.224818
1.570	3.230462	-0.744971	630.487987	-1.498135	2.643170	-0.445881	-0.419226	-0.237615
1.580	3.182039	-0.840918	630.659766	-1.572649	2.669251	-0.433272	-0.423247	-0.249366
1.590	3.129601	-0.935388	630.891305	-1.640366	2.696425	-0.421994	-0.427399	-0.260008
1.600	3.076403	-1.021880	631.150787	-1.701770	2.719282	-0.411919	-0.430845	-0.269630
1.610	3.025285	-1.094472	631.410408	-1.758757	2.732593	-0.403232	-0.432776	-0.278544
1.620	2.979028	-1.149462	631.648526	-1.814362	2.732516	-0.396756	-0.432601	-0.287242
1.630	2.941136	-1.186302	631.850305	-1.871630	2.717384	-0.393938	-0.430068	-0.296214
1.640	2.916503	-1.207361	632.007739	-1.932101	2.687699	-0.396448	-0.425264	-0.305708
1.650	2.911536	-1.216483	632.119419	-1.994814	2.645423	-0.405542	-0.418500	-0.315575
1.660	2.933353	-1.216909	632.189464	-2.056520	2.592960	-0.421495	-0.410156	-0.325301
1.670	2.987908	-1.209603	632.224945	-2.113101	2.532346	-0.443369	-0.400545	-0.334233
1.680	3.077498	-1.193001	632.232270	-2.161392	2.464972	-0.469212	-0.389884	-0.341867
1.690	3.198824	-1.164546	632.214414	-2.200520	2.391858	-0.496612	-0.378330	-0.348065
1.700	3.342909	-1.123336	632.170947	-2.232253	2.314165	-0.523374	-0.366066	-0.353109
1.710	3.497348	-1.072399	632.101069	-2.260381	2.233525	-0.548041	-0.353349	-0.357598
1.720	3.650029	-1.019150	632.007558	-2.289396	2.151891	-0.570076	-0.340485	-0.362242
1.730	3.792513	-0.973441	631.898449	-2.322969	2.070959	-0.589677	-0.327736	-0.367617
1.740	3.921212	-0.943919	631.784901	-2.362831	1.991596	-0.607358	-0.315233	-0.373993
1.750	4.035683	-0.934421	631.677062	-2.408576	1.913815	-0.623455	-0.302974	-0.381299
1.760	4.134979	-0.942332	631.581597	-2.458467	1.837630	-0.637713	-0.290957	-0.389256
1.770	4.214186	-0.959986	631.502826	-2.510860	1.764486	-0.649073	-0.279411	-0.397601
1.780	4.263263	-0.978610	631.445695	-2.565532	1.698572	-0.655784	-0.268997	-0.406295
1.790	4.269155	-0.992847	631.417237	-2.624243	1.647088	-0.655897	-0.260856	-0.415612
1.800	4.220534	-1.003496	631.425021	-2.690191	1.618933	-0.648012	-0.256394	-0.426051
1.810	4.113253	-1.017180	631.473852	-2.766489	1.621890	-0.631970	-0.256842	-0.438100
1.820	3.954261	-1.043337	631.562804	-2.854300	1.659202	-0.609145	-0.262714	-0.451942
1.830	3.762482	-1.090128	631.683977	-2.951513	1.726943	-0.582203	-0.273387	-0.467245
1.840	3.566156	-1.160991	631.823385	-3.052682	1.813590	-0.554466	-0.287041	-0.483154
1.850	3.396950	-1.253008	631.963518	-3.150433	1.902442	-0.529121	-0.301037	-0.498515
1.860	3.282003	-1.357573	632.086470	-3.237808	1.976232	-0.508514	-0.312652	-0.512241
1.870	3.236224	-1.463049	632.176942	-3.310671	2.022226	-0.493691	-0.319883	-0.523694
1.880	3.257944	-1.558376	632.225125	-3.369189	2.035801	-0.484305	-0.322006	-0.532910
1.890	3.330089	-1.636001	632.229193	-3.417837	2.021168	-0.478932	-0.319689	-0.540601
1.900	3.426601	-1.692884	632.195960	-3.463858	1.989069	-0.475648	-0.314629	-0.547909
1.910	3.521252	-1.729542	632.138176	-3.514649	1.952493	-0.472683	-0.308871	-0.555994
1.920	3.595021	-1.748384	632.069222	-3.574990	1.922115	-0.468929	-0.304099	-0.565601
1.930	3.639246	-1.752668	631.998587	-3.645267	1.903135	-0.464196	-0.301130	-0.576784
1.940	3.654217	-1.746479	631.931517	-3.721534	1.894497	-0.459194	-0.299795	-0.588914
1.950	3.645194	-1.735017	631.872886	-3.797408	1.890545	-0.455231	-0.299197	-0.600977
1.960	3.618571	-1.724358	631.831510	-3.866798	1.884213	-0.453676	-0.298214	-0.611998
1.970	3.579786	-1.720346	631.820038	-3.926097	1.870299	-0.455333	-0.296018	-0.621395
1.980	3.532962	-1.726996	631.848765	-3.974895	1.847394	-0.460024	-0.292379	-0.629090
1.990	3.481436	-1.745231	631.917016	-4.015155	1.817787	-0.466606	-0.287662	-0.635393
2.000	3.428383	-1.772658	632.008714	-4.049584	1.785733	-0.473456	-0.282549	-0.640748
2.010	3.377329	-1.804455	632.095996	-4.080208	1.755165	-0.479157	-0.277674	-0.645504
2.020	3.332622	-1.834794	632.148923	-4.107834	1.727975	-0.482987	-0.273349	-0.649821
2.030	3.299796	-1.858070	632.145957	-4.132396	1.703537	-0.485020	-0.269485	-0.653709
2.040	3.285345	-1.869624	632.080933	-4.153564	1.679438	-0.485902	-0.265700	-0.657125
2.050	3.295489	-1.866242	631.964504	-4.170929	1.652859	-0.486511	-0.261543	-0.659994
2.060	3.334003	-1.846808	631.819449	-4.183618	1.621787	-0.487677	-0.256685	-0.662154
2.070	3.399726	-1.813030	631.671227	-4.189789	1.585532	-0.489992	-0.251006	-0.663286
2.080	3.484903	-1.769533	631.537989	-4.186713	1.544490	-0.493712	-0.244560	-0.662939
2.090	3.575653	-1.722697	631.425477	-4.171714	1.499589	-0.498703	-0.237493	-0.660682
2.100	3.655124	-1.678364	631.329801	-4.143552	1.451969	-0.504401	-0.229986	-0.656321
2.110	3.708343	-1.639501	631.246477	-4.103459	1.403137	-0.509804	-0.222280	-0.650056
2.120	3.726756	-1.605097	631.179831	-4.055182	1.355333	-0.513610	-0.214730	-0.642476
2.130	3.710549	-1.570894	631.146145	-4.003999	1.311557	-0.514550	-0.207806	-0.634401
2.140	3.668042	-1.531518	631.167990	-3.955160	1.274972	-0.511806	-0.202002	-0.626641
2.150	3.612671	-1.483071	631.263372	-3.912411	1.247821	-0.505323	-0.197670	-0.619775
2.160	3.558880	-1.425183	631.436274	-3.877093	1.230356	-0.495842	-0.194850	-0.614012
2.170	3.518278	-1.361790	631.672999	-3.848103	1.220270	-0.484722	-0.193181	-0.609192
2.180	3.497152	-1.300307	631.944538	-3.822764	1.212971	-0.473660	-0.191943	-0.604921
2.190	3.495933	-1.249421	632.212694	-3.798337	1.202719	-0.464418	-0.190240	-0.600801
2.200	3.510619	-1.216219	632.437685	-3.773626	1.184261	-0.458508	-0.187253	-0.596679
2.210	3.535389	-1.203600	632.586096	-3.750007	1.154275	-0.456848	-0.182469	-0.592806
2.220	3.565222	-1.208997	632.638584	-3.731365	1.112003	-0.459457	-0.175772	-0.589810
2.230	3.597461	-1.225205	632.595551	-3.722898	1.058956	-0.465332	-0.167399	-0.588512
2.240	3.631836	-1.243223	632.477394	-3.729272	0.998018	-0.472600	-0.157795	-0.589629
2.250	3.669186	-1.255919	632.317247	-3.752944	0.932532	-0.479008	-0.147478	-0.593522
2.260	3.709696	-1.260852	632.148973	-3.793364	0.865643	-0.482634	-0.136937	-0.600074
2.270	3.751837	-1.261023	631.996766	-3.847332	0.799859	-0.482556	-0.126561	-0.608758
2.280	3.792927	-1.263401	631.871307	-3.910271	0.736628	-0.479201	-0.116579	-0.618840
2.290	3.831155	-1.275903	631.772556	-3.977779	0.675985	-0.474190	-0.106998	-0.629622
2.300	3.867623	-1.304121	631.695626	-4.046767	0.616541	-0.469731	-0.097601	-0.640620
2.310	3.906797	-1.349119	631.635840	-4.115742	0.556031	-0.467801	-0.088030	-0.651600
2.320	3.954803	-1.407041	631.590833	-4.184261	0.492353	-0.469383	-0.077954	-0.662496
2.330	4.016476	-1.470262	631.559662	-4.252003	0.424646	-0.474033	-0.067238	-0.673254
2.340	4.092684	-1.529281	631.540440	-4.318044	0.353781	-0.479950	-0.056019	-0.683732
2.350	4.179209	-1.574951	631.528862	-4.380808	0.281904	-0.484609	-0.044638	-0.693683
2.360	4.267765	-1.600882	631.519419	-4.438665	0.211322	-0.485769	-0.033462	-0.702855
