Time[s]	Fx[N]	Fy[N]	Fz[N]	Mx[Nm]	My[Nm]	Mz[Nm]	COPx[cm]	COPy[cm]
0.010	2.501604	2.585798	733.780249	-17.501742	-0.015580	-0.098260	0.002123	-2.385148
0.020	2.506526	2.401555	733.523083	-17.711001	-0.160128	-0.109019	0.021830	-2.414512
0.030	2.509442	2.241147	733.098429	-17.909838	-0.266757	-0.122224	0.036388	-2.443033
0.040	2.509775	2.125522	732.399051	-18.089093	-0.306523	-0.139340	0.041852	-2.469841
0.050	2.508993	2.070773	731.419112	-18.241999	-0.265233	-0.160296	0.036263	-2.494056
0.060	2.512237	2.086413	730.265686	-18.365356	-0.145720	-0.183678	0.019954	-2.514887
0.070	2.528787	2.173628	729.134104	-18.460092	0.034444	-0.207360	-0.004724	-2.531783
0.080	2.569686	2.323759	728.252271	-18.530750	0.249010	-0.229298	-0.034193	-2.544551
0.090	2.641902	2.518193	727.810823	-18.583847	0.470959	-0.248202	-0.064709	-2.553390
0.100	2.740860	2.730814	727.903005	-18.625674	0.679844	-0.263928	-0.093398	-2.558813
0.110	2.845339	2.932993	728.496040	-18.660525	0.866335	-0.277416	-0.118921	-2.561514
0.120	2.918589	3.099720	729.444497	-18.690196	1.032682	-0.290137	-0.141571	-2.562251
0.130	2.916956	3.214781	730.540231	-18.714838	1.189245	-0.303263	-0.162790	-2.561781
0.140	2.803433	3.273324	731.579607	-18.734500	1.348547	-0.316964	-0.184334	-2.560829
0.150	2.560772	3.281199	732.422882	-18.750507	1.519088	-0.330249	-0.207406	-2.560066
0.160	2.198707	3.251556	733.025397	-18.766188	1.701110	-0.341471	-0.232067	-2.560101
0.170	1.752556	3.199893	733.432938	-18.786840	1.885656	-0.349209	-0.257100	-2.561494
0.180	1.274384	3.139049	733.747984	-18.819014	2.056949	-0.353020	-0.280335	-2.564779
0.190	0.820619	3.075617	734.083000	-18.869229	2.196942	-0.353650	-0.299277	-2.570449
0.200	0.440457	3.008882	734.518003	-18.942361	2.290281	-0.352604	-0.311807	-2.578883
0.210	0.168043	2.932607	735.074521	-19.040149	2.328032	-0.351409	-0.316707	-2.590234
0.220	0.019435	2.839015	735.710826	-19.160472	2.309151	-0.350981	-0.313867	-2.604348
0.230	-0.006313	2.723586	736.336490	-19.297947	2.239609	-0.351400	-0.304156	-2.620805
0.240	0.076352	2.589004	736.838900	-19.445929	2.129832	-0.352165	-0.289050	-2.639102
0.250	0.243679	2.446687	737.112170	-19.599334	1.991599	-0.352790	-0.270189	-2.658935
0.260	0.466655	2.314869	737.080681	-19.757146	1.835492	-0.353420	-0.249022	-2.680459
0.270	0.714977	2.213326	736.713561	-19.923536	1.669618	-0.355073	-0.226631	-2.704380
0.280	0.961318	2.156317	736.029807	-20.107145	1.499590	-0.359273	-0.203740	-2.731838
0.290	1.185466	2.146502	735.095225	-20.318893	1.329109	-0.367255	-0.180808	-2.764117
0.300	1.376990	2.172493	734.012851	-20.569280	1.160307	-0.379253	-0.158077	-2.802305
0.310	1.535334	2.211106	732.908742	-20.866195	0.993381	-0.394294	-0.135539	-2.847039
0.320	1.667548	2.233249	731.914695	-21.213877	0.825762	-0.410558	-0.112822	-2.898408
0.330	1.785008	2.211030	731.149301	-21.613005	0.651668	-0.425984	-0.089129	-2.956032
0.340	1.900181	2.123692	730.699945	-22.061311	0.462800	-0.438768	-0.063337	-3.019203
0.350	2.023568	1.960996	730.609615	-22.553988	0.250382	-0.447613	-0.034270	-3.087009
0.360	2.160659	1.723764	730.871190	-23.083637	0.007874	-0.451810	-0.001077	-3.158373
0.370	2.309272	1.422040	731.429047	-23.640107	-0.266718	-0.451265	0.036465	-3.232044
0.380	2.458411	1.071764	732.186982	-24.210781	-0.569898	-0.446423	0.077835	-3.306639
0.390	2.589873	0.691124	733.022781	-24.781534	-0.893462	-0.438016	0.121887	-3.380732
0.400	2.682940	0.297624	733.809672	-25.338083	-1.226750	-0.426658	0.167175	-3.452950
0.410	2.721100	-0.093527	734.441620	-25.867264	-1.559805	-0.412515	0.212380	-3.522031
0.420	2.698827	-0.469525	734.855687	-26.357886	-1.886650	-0.395313	0.256737	-3.586811
0.430	2.626306	-0.818681	735.044038	-26.801032	-2.207758	-0.374729	0.300357	-3.646181
0.440	2.530476	-1.128415	735.051468	-27.189892	-2.530945	-0.350924	0.344322	-3.699046
0.450	2.451329	-1.383880	734.959531	-27.519342	-2.870353	-0.324895	0.390546	-3.744334
0.460	2.433497	-1.568595	734.862504	-27.785522	-3.243842	-0.298486	0.441422	-3.781050
0.470	2.514848	-1.667499	734.842373	-27.985599	-3.669450	-0.274088	0.499352	-3.808381
0.480	2.715427	-1.671397	734.949935	-28.117823	-4.161798	-0.254169	0.566270	-3.825815
0.490	3.030543	-1.580900	735.196725	-28.181836	-4.729269	-0.240774	0.643266	-3.833237
0.500	3.430856	-1.408082	735.557948	-28.179074	-5.372654	-0.235042	0.730419	-3.830979
0.510	3.870376	-1.174895	735.982309	-28.113072	-6.085550	-0.236763	0.826861	-3.819803
0.520	4.300673	-0.908395	736.403438	-27.989543	-6.856263	-0.244070	0.931047	-3.800844
0.530	4.686754	-0.634125	736.749629	-27.816148	-7.670418	-0.253444	1.041116	-3.775522
0.540	5.018552	-0.369956	736.951305	-27.601980	-8.513355	-0.260227	1.155213	-3.745428
0.550	5.313258	-0.122746	736.946940	-27.356838	-9.371611	-0.259570	1.271681	-3.712186
0.560	5.607647	0.110850	736.688134	-27.090331	-10.233336	-0.247501	1.389100	-3.677313
0.570	5.944043	0.339852	736.144271	-26.810923	-11.087927	-0.221729	1.506217	-3.642075
0.580	6.355873	0.572926	735.306635	-26.525033	-11.925346	-0.181980	1.621819	-3.607343
0.590	6.858007	0.813747	734.191124	-26.236413	-12.735567	-0.129895	1.734639	-3.573513
0.600	7.444367	1.059746	732.838206	-25.945939	-13.508465	-0.068685	1.843308	-3.540473
0.610	8.092337	1.304211	731.309462	-25.651934	-14.234237	-0.002687	1.946404	-3.507672
0.620	8.771276	1.539996	729.681637	-25.351152	-14.904165	0.063140	2.042557	-3.474276
0.630	9.451267	1.762369	728.039918	-25.040521	-15.511252	0.123827	2.130550	-3.439443
0.640	10.108501	1.969258	726.470878	-24.719326	-16.050317	0.175078	2.209355	-3.402659
0.650	10.725490	2.158766	725.053834	-24.391084	-16.517370	0.213894	2.278089	-3.364038
0.660	11.287212	2.325754	723.849967	-24.064179	-16.908470	0.238990	2.335908	-3.324471
0.670	11.776503	2.460256	722.891842	-23.750818	-17.218608	0.250928	2.381907	-3.285529
0.680	12.172072	2.549685	722.178387	-23.464514	-17.441247	0.251883	2.415088	-3.249130
0.690	12.450598	2.584438	721.679323	-23.216924	-17.568947	0.245056	2.434453	-3.217069
0.700	12.591780	2.564185	721.349318	-23.015100	-17.595021	0.233760	2.439182	-3.190562
0.710	12.583647	2.501340	721.148474	-22.860107	-17.515650	0.220472	2.428855	-3.169958
0.720	12.425729	2.419583	721.063223	-22.747579	-17.331686	0.206194	2.403629	-3.154727
0.730	12.129254	2.347798	721.120635	-22.670101	-17.049487	0.190473	2.364304	-3.143732
0.740	11.714857	2.311966	721.390056	-22.620630	-16.680468	0.172083	2.312267	-3.135700
0.750	11.208772	2.328236	721.968803	-22.595639	-16.239539	0.150016	2.249341	-3.129725
0.760	10.638346	2.399485	722.953062	-22.596702	-15.743031	0.124269	2.177601	-3.125611
0.770	10.027802	2.515924	724.400193	-22.629793	-15.206847	0.095989	2.099233	-3.123935
0.780	9.395352	2.658697	726.293238	-22.702591	-14.645434	0.066990	2.016463	-3.125816
0.790	8.752409	2.804598	728.520928	-22.821065	-14.071670	0.038935	1.931540	-3.132520
0.800	8.104778	2.930331	730.884877	-22.986965	-13.497343	0.012667	1.846713	-3.145087
0.810	7.454957	3.015820	733.138232	-23.197343	-12.933742	-0.011983	1.764161	-3.164116
0.820	6.804610	3.046866	735.046959	-23.446021	-12.391983	-0.035823	1.685876	-3.189731
0.830	6.156666	3.017279	736.452044	-23.725872	-11.882869	-0.059532	1.613529	-3.221645
0.840	5.516682	2.929871	737.307190	-24.030428	-11.416258	-0.082891	1.548372	-3.259215
0.850	4.892945	2.795493	737.677096	-24.353998	-11.000028	-0.104503	1.491171	-3.301444
0.860	4.295054	2.629807	737.700190	-24.690618	-10.639022	-0.122265	1.442188	-3.346972
0.870	3.731784	2.448436	737.534799	-25.033047	-10.334680	-0.134464	1.401246	-3.394151
0.880	3.210332	2.261911	737.311349	-25.372985	-10.086065	-0.140912	1.367952	-3.441285
0.890	2.739212	2.072194	737.106272	-25.702798	-9.892500	-0.143429	1.342072	-3.486987
0.900	2.335129	1.872203	736.941900	-26.017783	-9.757150	-0.145332	1.324005	-3.530507
0.910	2.030580	1.648964	736.806271	-26.317433	-9.689983	-0.150112	1.315133	-3.571825
0.920	1.875990	1.389728	736.680624	-26.604625	-9.708338	-0.159997	1.317849	-3.611419
0.930	1.930651	1.089034	736.561277	-26.882917	-9.834085	-0.175130	1.335135	-3.649787
0.940	2.242032	0.754157	736.466348	-27.153333	-10.087793	-0.193680	1.369756	-3.686975
0.950	2.820511	0.406839	736.425051	-27.412391	-10.481667	-0.212650	1.423318	-3.722360
0.960	3.621598	0.080457	736.455427	-27.652545	-11.013732	-0.228871	1.495506	-3.754816
0.970	4.546272	-0.187001	736.541857	-27.864871	-11.665512	-0.239702	1.583822	-3.783203
0.980	5.462415	-0.362499	736.623782	-28.042508	-12.404309	-0.243335	1.683941	-3.806897
0.990	6.240390	-0.427436	736.601946	-28.182981	-13.189534	-0.238828	1.790592	-3.826080
1.000	6.789098	-0.383951	736.361260	-28.288291	-13.981015	-0.226065	1.898663	-3.841632
1.010	7.078727	-0.255584	735.803393	-28.363136	-14.746625	-0.205663	2.004153	-3.854717
1.020	7.142714	-0.081495	734.879248	-28.412603	-15.467051	-0.178731	2.104706	-3.866296
1.030	7.060656	0.094099	733.611613	-28.440656	-16.136735	-0.146499	2.199629	-3.876800
1.040	6.931198	0.233487	732.100669	-28.449943	-16.761318	-0.109997	2.289483	-3.886070
1.050	6.845902	0.313685	730.509039	-28.442557	-17.352775	-0.069990	2.375436	-3.893526
1.060	6.871618	0.328640	729.028449	-28.420951	-17.923813	-0.027178	2.458589	-3.898469
1.070	7.043179	0.285798	727.836219	-28.388420	-18.482982	0.017479	2.539442	-3.900386
1.080	7.364245	0.199686	727.054238	-28.349058	-19.031624	0.062505	2.617635	-3.899167
1.090	7.813074	0.085518	726.722958	-28.307406	-19.563287	0.105813	2.691987	-3.895213
1.100	8.350694	-0.045311	726.797759	-28.267970	-20.065572	0.144813	2.760819	-3.889386
1.110	8.929778	-0.187265	727.167075	-28.234695	-20.523611	0.176710	2.822407	-3.882835
1.120	9.502787	-0.340441	727.684628	-28.210430	-20.923903	0.198979	2.875408	-3.876739
1.130	10.028211	-0.508478	728.204821	-28.196499	-21.257172	0.209917	2.919120	-3.872056
1.140	10.474310	-0.695056	728.611499	-28.192396	-21.519500	0.209098	2.953494	-3.869332
1.150	10.820593	-0.899896	728.834524	-28.195575	-21.711712	0.197506	2.978963	-3.868584
1.160	11.057749	-1.115735	728.853833	-28.201242	-21.837635	0.177232	2.996161	-3.869259
1.170	11.186683	-1.327786	728.694374	-28.202406	-21.902116	0.150822	3.005666	-3.870265
1.180	11.216957	-1.516220	728.415929	-28.190666	-21.909590	0.120560	3.007841	-3.870133
1.190	11.164450	-1.660862	728.100311	-28.157956	-21.863653	0.087994	3.002835	-3.867318
1.200	11.047969	-1.746463	727.837077	-28.098796	-21.767606	0.053873	2.990725	-3.860589
1.210	10.885009	-1.766698	727.708800	-28.012001	-21.625496	0.018435	2.971724	-3.849342
1.220	10.687693	-1.725592	727.777394	-27.900894	-21.443102	-0.018188	2.946382	-3.833713
1.230	10.460403	-1.636046	728.073624	-27.771829	-21.228430	-0.055614	2.915698	-3.814426
1.240	10.200219	-1.516221	728.592346	-27.631792	-20.991480	-0.093023	2.881101	-3.792490
1.250	9.900363	-1.385204	729.295564	-27.486314	-20.743170	-0.129134	2.844275	-3.768885
1.260	9.555746	-1.259294	730.123402	-27.338530	-20.493699	-0.162309	2.806882	-3.744371
1.270	9.168657	-1.149628	731.010236	-27.189361	-20.250860	-0.190742	2.770257	-3.719423
1.280	8.752037	-1.061307	731.900471	-27.038127	-20.018941	-0.212735	2.735200	-3.694235
1.290	8.328457	-0.993837	732.757646	-26.882885	-19.798542	-0.227116	2.701922	-3.668728
1.300	7.924752	-0.942529	733.562910	-26.720287	-19.587279	-0.233762	2.670157	-3.642535
1.310	7.564422	-0.900397	734.303835	-26.545360	-19.380951	-0.234043	2.639364	-3.615038
1.320	7.260988	-0.860147	734.959594	-26.351775	-19.174691	-0.230907	2.608945	-3.585473
1.330	7.014861	-0.815890	735.491130	-26.132927	-18.963796	-0.228394	2.578385	-3.553126
1.340	6.814575	-0.764099	735.843206	-25.883660	-18.744372	-0.230607	2.547332	-3.517551
1.350	6.641544	-0.703355	735.959820	-25.602129	-18.514140	-0.240448	2.515645	-3.478740
1.360	6.476689	-0.632977	735.808286	-25.291145	-18.273712	-0.258572	2.483488	-3.437192
1.370	6.307217	-0.551218	735.403271	-24.958410	-18.028208	-0.282993	2.451472	-3.393840
1.380	6.131930	-0.453958	734.820840	-24.615319	-17.788517	-0.309533	2.420797	-3.349840
1.390	5.963490	-0.334633	734.193949	-24.274349	-17.571212	-0.333013	2.393266	-3.306258
1.400	5.826198	-0.185768	733.685726	-23.945623	-17.396337	-0.348783	2.371088	-3.263744
1.410	5.748903	-0.001571	733.445390	-23.633776	-17.283145	-0.354053	2.356432	-3.222295
1.420	5.754771	0.219824	733.561025	-23.336436	-17.244973	-0.348470	2.350857	-3.181254
1.430	5.851881	0.475946	734.028014	-23.045009	-17.285156	-0.333725	2.354836	-3.139527
1.440	6.028902	0.761718	734.747435	-22.747304	-17.395661	-0.312392	2.367570	-3.095935
1.450	6.258078	1.072137	735.555811	-22.430774	-17.558963	-0.286633	2.387169	-3.049500
1.460	6.504352	1.404090	736.273207	-22.085135	-17.752380	-0.257402	2.411113	-2.999584
1.470	6.736572	1.756138	736.749599	-21.703799	-17.953237	-0.224500	2.436817	-2.945885
1.480	6.936025	2.126386	736.893667	-21.284235	-18.143236	-0.187300	2.462124	-2.888373
1.490	7.099233	2.509611	736.679641	-20.827820	-18.310945	-0.145692	2.485605	-2.827256
1.500	7.234848	2.895175	736.138366	-20.339725	-18.452216	-0.100682	2.506623	-2.763030
1.510	7.356907	3.266844	735.342511	-19.828914	-18.569070	-0.054413	2.525227	-2.696555
1.520	7.477681	3.604788	734.392521	-19.307921	-18.667941	-0.009721	2.541957	-2.629101
1.530	7.602915	3.889169	733.404123	-18.791877	-18.758081	0.030465	2.557673	-2.562281
1.540	7.731010	4.104159	732.495347	-18.296568	-18.850459	0.063649	2.573458	-2.497841
1.550	7.856093	4.241073	731.772217	-17.835843	-18.956974	0.088089	2.590557	-2.437349
1.560	7.973498	4.299796	731.314624	-17.419122	-19.089419	0.102939	2.610288	-2.381892
1.570	8.085004	4.288469	731.164766	-17.049926	-19.257775	0.108262	2.633849	-2.331886
1.580	8.200924	4.222071	731.319910	-16.726015	-19.467950	0.104990	2.662029	-2.287100
1.590	8.337337	4.120559	731.730750	-16.441098	-19.719702	0.094804	2.694940	-2.246878
1.600	8.509497	4.006916	732.306891	-16.187306	-20.005677	0.079870	2.731871	-2.210454
1.610	8.724886	3.905073	732.930399	-15.957291	-20.312156	0.062478	2.771362	-2.177190
1.620	8.979651	3.837546	733.475568	-15.745058	-20.621447	0.044680	2.811470	-2.146637
1.630	9.259887	3.822730	733.829942	-15.545542	-20.915183	0.028059	2.850140	-2.118412
1.640	9.546246	3.872207	733.910954	-15.353657	-21.177503	0.013627	2.885568	-2.092033
1.650	9.818886	3.988813	733.675704	-15.163699	-21.397166	0.001787	2.916434	-2.066812
1.660	10.060840	4.166156	733.125332	-14.969545	-21.568240	-0.007689	2.941958	-2.041881
1.670	10.259989	4.389869	732.306437	-14.765522	-21.689729	-0.015617	2.961838	-2.016304
1.680	10.410896	4.640372	731.309337	-14.547544	-21.764827	-0.023213	2.976145	-1.989246
1.690	10.516976	4.896536	730.260292	-14.314075	-21.800253	-0.031710	2.985272	-1.960133
1.700	10.591587	5.139324	729.304543	-14.066659	-21.805413	-0.041928	2.989891	-1.928777
1.710	10.655554	5.354464	728.579003	-13.809831	-21.790820	-0.053986	2.990866	-1.895447
1.720	10.729561	5.533647	728.177529	-13.550412	-21.765395	-0.067297	2.989023	-1.860867
1.730	10.822912	5.674320	728.118030	-13.296349	-21.733075	-0.080855	2.984829	-1.826125
1.740	10.923670	5.778491	728.325752	-13.055356	-21.689839	-0.093680	2.978041	-1.792516
1.750	10.996413	5.850904	728.645193	-12.833627	-21.622604	-0.105197	2.967508	-1.761300
1.760	10.991245	5.896820	728.882839	-12.634825	-21.511145	-0.115367	2.951249	-1.733451
1.770	10.862249	5.919805	728.869178	-12.459617	-21.333253	-0.124504	2.926897	-1.709445
1.780	10.588409	5.920186	728.518698	-12.306042	-21.071818	-0.132930	2.892420	-1.689187
1.790	10.187781	5.894630	727.865058	-12.170671	-20.721237	-0.140687	2.846851	-1.672105
1.800	9.717470	5.836781	727.056564	-12.050148	-20.290212	-0.147425	2.790734	-1.657388
1.810	9.257583	5.738503	726.311950	-11.942480	-19.799417	-0.152458	2.726021	-1.644263
1.820	8.884609	5.591575	725.852354	-11.847723	-19.274853	-0.154966	2.655478	-1.632250
1.830	8.644807	5.390120	725.834703	-11.767947	-18.739667	-0.154374	2.581809	-1.621298
1.840	8.538252	5.133871	726.310017	-11.706552	-18.207621	-0.150896	2.506866	-1.611784
1.850	8.519071	4.831549	727.218534	-11.667087	-17.680338	-0.145992	2.431228	-1.604344
1.860	8.510442	4.502896	728.418529	-11.651855	-17.148842	-0.142377	2.354257	-1.599610
1.870	8.427841	4.177770	729.734690	-11.660831	-16.598401	-0.143330	2.274580	-1.597955
1.880	8.202782	3.891612	731.008318	-11.691418	-16.014928	-0.151474	2.190800	-1.599355
1.890	7.800952	3.678039	732.134280	-11.739329	-15.391057	-0.167522	2.102218	-1.603439
1.900	7.231076	3.560591	733.075540	-11.800276	-14.730263	-0.189590	2.009379	-1.609694
1.910	6.542835	3.546080	733.853556	-11.871552	-14.047960	-0.213455	1.914273	-1.617700
1.920	5.814089	3.621617	734.520874	-11.952452	-13.369172	-0.233845	1.820122	-1.627245
1.930	5.130160	3.756499	735.128548	-12.043107	-12.723484	-0.246399	1.730783	-1.638231
1.940	4.560867	3.908736	735.702209	-12.142364	-12.138806	-0.249500	1.649962	-1.650445
1.950	4.142496	4.034666	736.235465	-12.245950	-11.635928	-0.245081	1.580463	-1.663320
1.960	3.870676	4.099123	736.700618	-12.346027	-11.225360	-0.237855	1.523734	-1.675854
1.970	3.706382	4.083436	737.068954	-12.432318	-10.907168	-0.233188	1.479803	-1.686724
1.980	3.592777	3.989089	737.329373	-12.494182	-10.673457	-0.234579	1.447583	-1.694518
1.990	3.477103	3.836293	737.495861	-12.522675	-10.512385	-0.242048	1.425416	-1.697999
2.000	3.330274	3.658381	737.600098	-12.511952	-10.412196	-0.252231	1.411632	-1.696306
2.010	3.157428	3.493960	737.672568	-12.459822	-10.363866	-0.260060	1.404941	-1.689072
2.020	2.995357	3.378769	737.720579	-12.367522	-10.361576	-0.261072	1.404539	-1.676451
2.030	2.897250	3.338553	737.713087	-12.238895	-10.401227	-0.253212	1.409928	-1.659032
2.040	2.910245	3.383778	737.580041	-12.079280	-10.478088	-0.237489	1.420604	-1.637691
2.050	3.054784	3.506947	737.229315	-11.894488	-10.585112	-0.217445	1.435796	-1.613404
2.060	3.314591	3.683421	736.578112	-11.690096	-10.713073	-0.197855	1.454438	-1.587082
2.070	3.641758	3.876300	735.589614	-11.471126	-10.852679	-0.183249	1.475371	-1.559446
2.080	3.974841	4.044792	734.301539	-11.242116	-10.997640	-0.176725	1.497701	-1.530994
2.090	4.261990	4.153873	732.833599	-11.007571	-11.146975	-0.179364	1.521079	-1.502056
2.100	4.479035	4.182186	731.366803	-10.772593	-11.305087	-0.190252	1.545748	-1.472940
2.110	4.635033	4.125928	730.097572	-10.543219	-11.479145	-0.207066	1.572275	-1.444084
2.120	4.763666	3.998260	729.180313	-10.326145	-11.674588	-0.227003	1.601056	-1.416131
2.130	4.904880	3.825317	728.678714	-10.127788	-11.890462	-0.247742	1.631784	-1.389884
2.140	5.084788	3.640469	728.544456	-9.953055	-12.116318	-0.268044	1.663086	-1.366156
2.150	5.302058	3.478251	728.631697	-9.804255	-12.331844	-0.287785	1.692466	-1.345571
2.160	5.526203	3.368892	728.741833	-9.680552	-12.509561	-0.307553	1.716597	-1.328393
2.170	5.708505	3.333921	728.683073	-9.578126	-12.620017	-0.328127	1.731894	-1.314443
2.180	5.801236	3.383050	728.326518	-9.490978	-12.638134	-0.350089	1.735229	-1.303121
2.190	5.777265	3.512517	727.643586	-9.412162	-12.548860	-0.373630	1.724589	-1.293513
2.200	5.641834	3.705175	726.716003	-9.335082	-12.350370	-0.398550	1.699477	-1.284557
2.210	5.431600	3.932858	725.717170	-9.254500	-12.053841	-0.424386	1.660956	-1.275221
2.220	5.201576	4.161406	724.870766	-9.166948	-11.679977	-0.450633	1.611319	-1.264632
2.230	5.005488	4.357828	724.397630	-9.070488	-11.253520	-0.476892	1.553500	-1.252142
2.240	4.877301	4.497732	724.464505	-8.964060	-10.797543	-0.502864	1.490417	-1.237336
2.250	4.820850	4.570421	725.147146	-8.846843	-10.329361	-0.528194	1.424450	-1.220007
2.260	4.811179	4.579881	726.415594	-8.717953	-9.859197	-0.552287	1.357239	-1.200133
2.270	4.806577	4.541763	728.142878	-8.576533	-9.391567	-0.574294	1.289797	-1.177864
2.280	4.765548	4.478221	730.132993	-8.422030	-8.928097	-0.593297	1.222804	-1.153493
2.290	4.660581	4.412863	732.161088	-8.254440	-8.470089	-0.608558	1.156861	-1.127408
2.300	4.482652	4.367013	734.017401	-8.074421	-8.019702	-0.619618	1.092577	-1.100031
2.310	4.236284	4.356945	735.545530	-7.883312	-7.579724	-0.626161	1.030490	-1.071764
2.320	3.930593	4.391294	736.666050	-7.683163	-7.152798	-0.627760	0.970969	-1.042964
