Time[s]	Fx[N]	Fy[N]	Fz[N]	Mx[Nm]	My[Nm]	Mz[Nm]	COPx[cm]	COPy[cm]
0.010	4.447544	-4.319174	710.739427	7.137391	4.664993	0.150470	-0.656358	1.004220
0.020	4.580670	-4.390653	710.910127	7.007076	4.823905	0.141083	-0.678553	0.985649
0.030	4.640467	-4.487777	711.133156	6.871067	5.004420	0.132584	-0.703725	0.966214
0.040	4.579751	-4.624598	711.436781	6.724682	5.221455	0.125044	-0.733931	0.945226
0.050	4.392256	-4.796884	711.814889	6.565703	5.479573	0.117481	-0.769803	0.922389
0.060	4.110683	-4.983196	712.225253	6.395327	5.772888	0.108105	-0.810542	0.897936
0.070	3.789653	-5.153003	712.598258	6.218279	6.088671	0.095035	-0.854433	0.872621
0.080	3.481621	-5.278423	712.852646	6.041760	6.412929	0.077171	-0.899615	0.847547
0.090	3.216274	-5.344819	712.915445	5.873645	6.735358	0.054837	-0.944763	0.823891
0.100	2.991852	-5.355874	712.743519	5.720832	7.051457	0.029906	-0.989340	0.802649
0.110	2.781508	-5.331016	712.341842	5.588529	7.361007	0.005318	-1.033353	0.784529
0.120	2.551414	-5.296467	711.770980	5.480492	7.663988	-0.015822	-1.076749	0.769980
0.130	2.281943	-5.274092	711.137852	5.399539	7.956291	-0.031156	-1.118811	0.759282
0.140	1.981452	-5.273243	710.569978	5.347518	8.227680	-0.039662	-1.157899	0.752567
0.150	1.685645	-5.289145	710.180632	5.324495	8.463418	-0.041789	-1.191728	0.749738
0.160	1.442969	-5.307917	710.037017	5.327632	8.649060	-0.039198	-1.218114	0.750332
0.170	1.293685	-5.314960	710.143529	5.350678	8.776251	-0.034223	-1.235842	0.753464
0.180	1.253015	-5.302210	710.446688	5.384672	8.846798	-0.029170	-1.245245	0.757928
0.190	1.305815	-5.271244	710.858781	5.419812	8.873122	-0.025649	-1.248226	0.762432
0.200	1.414002	-5.231863	711.288968	5.447827	8.874958	-0.024157	-1.247729	0.765909
0.210	1.531926	-5.197903	711.668294	5.463895	8.873832	-0.024079	-1.246906	0.767759
0.220	1.622114	-5.182470	711.959859	5.467346	8.887504	-0.024126	-1.248315	0.767929
0.230	1.665019	-5.194015	712.154104	5.460873	8.926140	-0.023016	-1.253400	0.766811
0.240	1.660358	-5.233818	712.256925	5.448733	8.990896	-0.020143	-1.262311	0.764995
0.250	1.621915	-5.295168	712.280387	5.434795	9.074760	-0.015952	-1.274043	0.763013
0.260	1.570004	-5.364661	712.241002	5.421187	9.165033	-0.011871	-1.286788	0.761145
0.270	1.525087	-5.425828	712.162817	5.407846	9.246790	-0.009818	-1.298410	0.759355
0.280	1.503645	-5.464494	712.078111	5.392941	9.306665	-0.011420	-1.306973	0.757352
0.290	1.515445	-5.474175	712.020543	5.373884	9.336288	-0.017221	-1.311239	0.754737
0.300	1.561344	-5.459071	712.011825	5.348524	9.334549	-0.026196	-1.311010	0.751185
0.310	1.631959	-5.432801	712.048451	5.316225	9.307872	-0.035855	-1.307196	0.746610
0.320	1.708530	-5.412964	712.096406	5.278646	9.268092	-0.042983	-1.301522	0.741283
0.330	1.767153	-5.413908	712.098871	5.239957	9.228412	-0.044760	-1.295945	0.735847
0.340	1.786315	-5.441076	711.996037	5.206202	9.198809	-0.039795	-1.291975	0.731212
0.350	1.755710	-5.489337	711.750129	5.183848	9.182636	-0.028635	-1.290149	0.728324
0.360	1.682713	-5.545516	711.365619	5.177955	9.175743	-0.013501	-1.289877	0.727889
0.370	1.592859	-5.593455	710.896326	5.190627	9.168395	0.002687	-1.289695	0.730152
0.380	1.522871	-5.619357	710.436493	5.220250	9.149100	0.017571	-1.287814	0.734795
0.390	1.508424	-5.615680	710.098737	5.261793	9.108693	0.030328	-1.282736	0.740994
0.400	1.571601	-5.582760	709.985489	5.308105	9.043118	0.041874	-1.273705	0.747636
0.410	1.713149	-5.528177	710.161464	5.351802	8.954031	0.054264	-1.260844	0.753603
0.420	1.912288	-5.464428	710.633491	5.387137	8.847352	0.069628	-1.244995	0.758075
0.430	2.133623	-5.405658	711.341762	5.411378	8.730654	0.089159	-1.227350	0.760728
0.440	2.338144	-5.364054	712.164734	5.425471	8.610550	0.112540	-1.209067	0.761828
0.450	2.494225	-5.346395	712.938948	5.433988	8.490999	0.137947	-1.190985	0.762195
0.460	2.585056	-5.351469	713.493299	5.444419	8.372895	0.162563	-1.173507	0.763065
0.470	2.610798	-5.369381	713.692265	5.465876	8.254813	0.183378	-1.156635	0.765859
0.480	2.585735	-5.383830	713.475987	5.507330	8.134427	0.198001	-1.140112	0.771901
0.490	2.532118	-5.377450	712.882632	5.575686	8.010072	0.205275	-1.123617	0.782132
0.500	2.472930	-5.338650	712.043552	5.674156	7.881982	0.205585	-1.106952	0.796883
0.510	2.425783	-5.266971	711.151507	5.801383	7.752867	0.200823	-1.090185	0.815773
0.520	2.399704	-5.173947	710.411148	5.951653	7.627480	0.193959	-1.073671	0.837776
0.530	2.395697	-5.078347	709.986127	6.116182	7.511000	0.188205	-1.057908	0.861451
0.540	2.410579	-4.997577	709.957738	6.285221	7.406544	0.185982	-1.043237	0.885295
0.550	2.442005	-4.939364	710.306576	6.450550	7.312796	0.188068	-1.029527	0.908136
0.560	2.492002	-4.897927	710.922644	6.607618	7.222992	0.193301	-1.016003	0.929443
0.570	2.567213	-4.856484	711.641609	6.756511	7.126015	0.198986	-1.001349	0.949426
0.580	2.676078	-4.794614	712.295878	6.901260	7.009310	0.201849	-0.984045	0.968875
0.590	2.824875	-4.696861	712.761902	7.047848	6.862384	0.199196	-0.962788	0.988808
0.600	3.015013	-4.558863	712.985482	7.201891	6.679349	0.189827	-0.936814	1.010103
0.610	3.242826	-4.388924	712.977302	7.366869	6.459624	0.174439	-0.906007	1.033254
0.620	3.501175	-4.204905	712.786103	7.543288	6.207105	0.155451	-0.870823	1.058282
0.630	3.780776	-4.028019	712.466873	7.728634	5.929028	0.136410	-0.832183	1.084771
0.640	4.069692	-3.875928	712.060554	7.917799	5.635586	0.121106	-0.791448	1.111956
0.650	4.351383	-3.757546	711.592460	8.103726	5.340405	0.112558	-0.750487	1.138816
0.660	4.603524	-3.671104	711.085733	8.278211	5.060988	0.112110	-0.711727	1.164165
0.670	4.799980	-3.605799	710.578972	8.433068	4.817956	0.118940	-0.678032	1.186788
0.680	4.916589	-3.546172	710.135769	8.561782	4.632376	0.130233	-0.652323	1.205654
0.690	4.938923	-3.477661	709.838231	8.661398	4.521360	0.142019	-0.636956	1.220193
0.700	4.868522	-3.391540	709.764921	8.733955	4.493130	0.150438	-0.633045	1.230542
0.710	4.724478	-3.287654	709.962048	8.786705	4.543237	0.152966	-0.639927	1.237630
0.720	4.539418	-3.173911	710.420879	8.830809	4.653558	0.149129	-0.655042	1.243039
0.730	4.351675	-3.062666	711.072083	8.878885	4.794999	0.140420	-0.674334	1.248662
0.740	4.196724	-2.965427	711.800196	8.942138	4.933741	0.129496	-0.693136	1.256271
0.750	4.100302	-2.888122	712.473001	9.027766	5.039559	0.119125	-0.707333	1.267103
0.760	4.074083	-2.829033	712.975746	9.137064	5.093712	0.111369	-0.714430	1.281539
0.770	4.113987	-2.780441	713.239487	9.264553	5.093681	0.107286	-0.714161	1.298940
0.780	4.201493	-2.733256	713.254984	9.398423	5.052875	0.107011	-0.708425	1.317681
0.790	4.308384	-2.682448	713.067809	9.522621	4.995275	0.109927	-0.700533	1.335444
0.800	4.404418	-2.630561	712.756202	9.620587	4.947018	0.114759	-0.694069	1.349772
0.810	4.465790	-2.587484	712.399114	9.679903	4.928120	0.119687	-0.691764	1.358775
0.820	4.481202	-2.566305	712.046372	9.696277	4.947309	0.122660	-0.694802	1.361748
0.830	4.452864	-2.576897	711.704160	9.675083	5.001464	0.121931	-0.702745	1.359425
0.840	4.392059	-2.620172	711.344348	9.629526	5.079221	0.116603	-0.714031	1.353708
0.850	4.311630	-2.685999	710.935133	9.576003	5.166846	0.106919	-0.726768	1.346959
0.860	4.219319	-2.756314	710.478087	9.528467	5.253807	0.094127	-0.739475	1.341135
0.870	4.115412	-2.812533	710.031329	9.494049	5.335790	0.079978	-0.751487	1.337131
0.880	3.996031	-2.844240	709.704206	9.471518	5.414247	0.066134	-0.762888	1.334573
0.890	3.860307	-2.855162	709.622475	9.452891	5.493206	0.053765	-0.774103	1.332101
0.900	3.717040	-2.863167	709.877298	9.427228	5.575321	0.043502	-0.785392	1.328008
0.910	3.586178	-2.893495	710.479990	9.384994	5.659199	0.035577	-0.796532	1.320937
0.920	3.493154	-2.967724	711.343897	9.321457	5.739237	0.029927	-0.806816	1.310401
0.930	3.458266	-3.093409	712.304553	9.238080	5.807904	0.026118	-0.815368	1.296928
0.940	3.486266	-3.259351	713.172247	9.141631	5.859340	0.023228	-0.821588	1.281826
0.950	3.561599	-3.438892	713.794791	9.041477	5.892520	0.019903	-0.825520	1.266677
0.960	3.652380	-3.599894	714.102181	8.946162	5.912388	0.014697	-0.827947	1.252785
0.970	3.722166	-3.717097	714.114258	8.860492	5.928346	0.006648	-0.830168	1.240767
0.980	3.744493	-3.781653	713.912373	8.784194	5.950895	-0.004151	-0.833561	1.230430
0.990	3.713042	-3.803986	713.593999	8.712662	5.988050	-0.016236	-0.839140	1.220955
1.000	3.642036	-3.809020	713.234757	8.639421	6.043134	-0.026927	-0.847285	1.211301
1.010	3.556529	-3.826028	712.874134	8.559256	6.114678	-0.032991	-0.857750	1.200669
1.020	3.477906	-3.877401	712.525757	8.470684	6.198043	-0.031590	-0.869869	1.188825
1.030	3.412593	-3.970640	712.199749	8.376724	6.287562	-0.021190	-0.882837	1.176176
1.040	3.350132	-4.096144	711.920181	8.283658	6.377950	-0.002153	-0.895880	1.163566
1.050	3.271540	-4.231068	711.726102	8.198395	6.464348	0.023116	-0.908263	1.151903
1.060	3.163224	-4.347566	711.655527	8.125748	6.541429	0.050561	-0.919185	1.141809
1.070	3.028802	-4.422341	711.721634	8.066891	6.602697	0.075433	-0.927708	1.133433
1.080	2.892408	-4.444152	711.894687	8.019453	6.641043	0.093595	-0.932869	1.126494
1.090	2.791313	-4.416924	712.101324	7.978795	6.650777	0.102725	-0.933965	1.120458
1.100	2.760637	-4.357838	712.245641	7.939669	6.630372	0.102902	-0.930911	1.114737
1.110	2.816660	-4.291319	712.246047	7.897622	6.584619	0.096366	-0.924487	1.108833
1.120	2.946296	-4.240898	712.072578	7.849871	6.525047	0.086624	-0.916346	1.102398
1.130	3.108083	-4.221704	711.766454	7.795640	6.468040	0.077305	-0.908731	1.095253
1.140	3.245209	-4.236343	711.430245	7.736057	6.430960	0.071178	-0.903948	1.087395
1.150	3.305849	-4.275610	711.190424	7.673698	6.427346	0.069594	-0.903745	1.078993
1.160	3.262682	-4.323348	711.147336	7.611997	6.462760	0.072414	-0.908779	1.070383
1.170	3.123464	-4.363095	711.333615	7.554761	6.532769	0.078408	-0.918383	1.062056
1.180	2.928042	-4.383742	711.698464	7.505872	6.623939	0.085941	-0.930723	1.054642
1.190	2.733008	-4.382206	712.124231	7.468889	6.717751	0.093699	-0.943340	1.048818
1.200	2.590499	-4.362679	712.468700	7.446247	6.796228	0.101147	-0.953898	1.045133
1.210	2.530020	-4.333652	712.616810	7.438238	6.847266	0.108481	-0.960862	1.043792
1.220	2.550414	-4.304518	712.522426	7.442448	6.867685	0.116174	-0.963855	1.044521
1.230	2.624292	-4.283149	712.224602	7.454246	6.862967	0.124392	-0.963596	1.046615
1.240	2.711865	-4.274743	711.832512	7.468353	6.843950	0.132640	-0.961455	1.049173
1.250	2.777645	-4.281393	711.486111	7.480858	6.821893	0.139763	-0.958823	1.051441
1.260	2.803096	-4.301705	711.309713	7.490820	6.803858	0.144280	-0.956525	1.053102
1.270	2.790742	-4.330435	711.376761	7.500752	6.790271	0.144920	-0.954525	1.054399
1.280	2.759177	-4.358856	711.695764	7.515671	6.775562	0.141140	-0.952031	1.056023
1.290	2.732163	-4.376446	712.215819	7.540955	6.751467	0.133392	-0.947952	1.058802
1.300	2.727169	-4.373715	712.843067	7.579802	6.711315	0.123012	-0.941486	1.063320
1.310	2.748359	-4.345330	713.459775	7.631348	6.653201	0.111772	-0.932526	1.069626
1.320	2.786415	-4.292479	713.942746	7.690300	6.580657	0.101371	-0.921735	1.077159
1.330	2.824255	-4.223469	714.182165	7.748347	6.500853	0.093096	-0.910251	1.084926
1.340	2.845458	-4.151946	714.102382	7.796870	6.421579	0.087806	-0.899252	1.091842
1.350	2.841843	-4.092938	713.682553	7.829826	6.348597	0.086171	-0.889555	1.097102
1.360	2.817525	-4.058105	712.970524	7.845576	6.284320	0.088919	-0.881428	1.100407
1.370	2.788084	-4.052166	712.082008	7.846844	6.227984	0.096847	-0.874616	1.101958
1.380	2.775016	-4.072034	711.181097	7.838915	6.176896	0.110492	-0.868541	1.102239
1.390	2.797296	-4.108806	710.445477	7.827024	6.128158	0.129600	-0.862580	1.101706
1.400	2.863216	-4.151347	710.025965	7.814245	6.080217	0.152710	-0.856337	1.100558
1.410	2.965756	-4.189685	710.011885	7.800812	6.033744	0.177153	-0.849809	1.098688
1.420	3.083495	-4.216895	710.411160	7.784915	5.991492	0.199539	-0.843384	1.095832
1.430	3.186994	-4.229183	711.149343	7.764222	5.957210	0.216585	-0.837688	1.091785
1.440	3.248591	-4.224878	712.087362	7.737238	5.934043	0.225987	-0.833331	1.086557
1.450	3.252214	-4.203670	713.053753	7.703900	5.923093	0.227010	-0.830666	1.080409
1.460	3.199542	-4.167076	713.882898	7.665292	5.922699	0.220605	-0.829646	1.073746
1.470	3.109880	-4.119887	714.447831	7.622752	5.928607	0.209003	-0.829817	1.066943
1.480	3.013546	-4.071271	714.677757	7.576939	5.934872	0.194960	-0.830426	1.060190
1.490	2.941315	-4.034153	714.557472	7.527405	5.935127	0.180956	-0.830602	1.053436
1.500	2.914147	-4.022548	714.114579	7.472886	5.923929	0.168668	-0.829549	1.046455
1.510	2.937064	-4.047720	713.404909	7.412080	5.897997	0.158904	-0.826739	1.038972
1.520	2.998890	-4.114641	712.504304	7.344408	5.857197	0.151853	-0.822058	1.030788
1.530	3.077055	-4.219990	711.507759	7.270313	5.805054	0.147355	-0.815881	1.021818
1.540	3.145171	-4.352341	710.529587	7.191013	5.748421	0.144954	-0.809033	1.012064
1.550	3.181002	-4.494586	709.696027	7.108062	5.696016	0.143735	-0.802599	1.001564
1.560	3.173021	-4.628013	709.126310	7.023213	5.655908	0.142154	-0.797588	0.990404
1.570	3.124219	-4.736828	708.906736	6.938717	5.632764	0.138127	-0.794570	0.978791
1.580	3.052139	-4.811656	709.068424	6.857793	5.625997	0.129509	-0.793435	0.967155
1.590	2.984708	-4.850862	709.578868	6.784851	5.629714	0.114870	-0.793388	0.956180
1.600	2.952550	-4.859427	710.350623	6.725182	5.634524	0.094264	-0.793203	0.946741
1.610	2.979804	-4.845895	711.262554	6.684137	5.630449	0.069626	-0.791613	0.939757
1.620	3.076322	-4.818566	712.184869	6.666076	5.609823	0.044511	-0.787692	0.936004
1.630	3.233998	-4.782483	712.999963	6.673451	5.569153	0.023218	-0.781087	0.935968
1.640	3.428727	-4.738553	713.615036	6.706252	5.509425	0.009552	-0.772044	0.939758
1.650	3.627516	-4.685179	713.967090	6.761760	5.434946	0.005677	-0.761232	0.947069
1.660	3.798291	-4.621388	714.024218	6.834545	5.351437	0.011483	-0.749476	0.957187
1.670	3.918903	-4.549577	713.787646	6.916811	5.264375	0.024685	-0.737527	0.969029
1.680	3.982207	-4.476186	713.295719	6.999356	5.178328	0.041587	-0.725972	0.981270
1.690	3.995565	-4.409694	712.625952	7.073192	5.097329	0.058175	-0.715288	0.992553
1.700	3.975247	-4.356853	711.888717	7.131519	5.025604	0.071175	-0.705954	1.001774
1.710	3.938303	-4.319291	711.209299	7.171394	4.967805	0.078792	-0.698501	1.008338
1.720	3.895600	-4.292715	710.701611	7.194378	4.928370	0.081009	-0.693451	1.012292
1.730	3.849020	-4.269449	710.442405	7.205756	4.910310	0.079408	-0.691162	1.014263
1.740	3.793662	-4.242866	710.456037	7.212523	4.914206	0.076559	-0.691697	1.015196
1.750	3.723493	-4.210934	710.715463	7.220912	4.938053	0.075126	-0.694800	1.016006
1.760	3.637282	-4.176897	711.157181	7.234403	4.978101	0.076997	-0.700000	1.017272
1.770	3.541644	-4.147158	711.701439	7.252940	5.030198	0.082708	-0.706785	1.019099
1.780	3.449597	-4.128082	712.268827	7.273456	5.090883	0.091369	-0.714742	1.021167
1.790	3.375580	-4.123371	712.789317	7.291329	5.157721	0.101078	-0.723597	1.022929
1.800	3.329799	-4.132640	713.205340	7.302016	5.228776	0.109685	-0.733137	1.023831
1.810	3.314888	-4.151300	713.472742	7.302171	5.301660	0.115598	-0.743078	1.023469
1.820	3.326110	-4.172096	713.562404	7.289974	5.372811	0.118251	-0.752956	1.021631
1.830	3.354170	-4.188496	713.463636	7.264837	5.437568	0.118067	-0.762137	1.018249
1.840	3.388590	-4.198806	713.188718	7.226954	5.491181	0.116013	-0.769948	1.013330
1.850	3.420098	-4.208630	712.775861	7.177069	5.530391	0.113098	-0.775895	1.006918
1.860	3.441479	-4.229623	712.286800	7.116685	5.554786	0.110105	-0.779852	0.999132
1.870	3.447233	-4.274460	711.797623	7.048539	5.567168	0.107583	-0.782128	0.990245
1.880	3.432779	-4.350213	711.385630	6.976929	5.572464	0.105931	-0.783325	0.980752
1.890	3.394266	-4.453451	711.116468	6.907449	5.575508	0.105390	-0.784050	0.971353
1.900	3.329811	-4.569697	711.033208	6.846038	5.578687	0.105938	-0.784589	0.962830
1.910	3.242070	-4.677758	711.146860	6.797566	5.580616	0.107229	-0.784735	0.955860
1.920	3.140675	-4.757213	711.429958	6.764418	5.576437	0.108732	-0.783835	0.950820
1.930	3.042380	-4.796113	711.818364	6.745640	5.559519	0.110023	-0.781031	0.947663
1.940	2.967582	-4.795889	712.224889	6.737066	5.523746	0.111037	-0.775562	0.945918
1.950	2.934036	-4.771191	712.561368	6.732459	5.465535	0.112099	-0.767027	0.944825
1.960	2.950432	-4.744143	712.760313	6.725206	5.384952	0.113653	-0.755507	0.943544
1.970	3.012968	-4.735041	712.788212	6.709912	5.285726	0.115850	-0.741556	0.941361
1.980	3.106643	-4.753707	712.648056	6.683453	5.174341	0.118302	-0.726072	0.937834
1.990	3.210764	-4.795762	712.373510	6.645351	5.058675	0.120197	-0.710116	0.932846
2.000	3.306212	-4.845691	712.018829	6.597416	4.946567	0.120726	-0.694724	0.926579
2.010	3.381408	-4.885207	711.647782	6.542790	4.844528	0.119466	-0.680748	0.919386
2.020	3.434916	-4.902904	711.323262	6.484746	4.756799	0.116473	-0.668725	0.911645
2.030	3.474270	-4.900608	711.098277	6.425807	4.684941	0.112043	-0.658832	0.903645
2.040	3.511868	-4.893203	711.008542	6.367516	4.628068	0.106410	-0.650916	0.895561
2.050	3.559419	-4.901703	711.066791	6.310831	4.583587	0.099645	-0.644607	0.887516
2.060	3.622748	-4.942747	711.259199	6.256776	4.548143	0.091851	-0.639449	0.879676
2.070	3.698935	-5.019624	711.545404	6.207039	4.518406	0.083473	-0.635013	0.872332
2.080	3.777129	-5.119184	711.864506	6.164199	4.491530	0.075403	-0.630953	0.865923
2.090	3.842814	-5.216241	712.148209	6.131334	4.465292	0.068752	-0.627017	0.860963
2.100	3.883603	-5.283640	712.338451	6.110967	4.438085	0.064459	-0.623030	0.857874
2.110	3.894014	-5.303644	712.403396	6.103825	4.408927	0.063033	-0.618881	0.856793
2.120	3.877216	-5.275556	712.345619	6.108275	4.377556	0.064600	-0.614527	0.857488
2.130	3.843147	-5.216114	712.199471	6.120952	4.344622	0.069158	-0.610029	0.859443
2.140	3.803940	-5.152423	712.018799	6.138322	4.311850	0.076784	-0.605581	0.862101
2.150	3.768838	-5.110590	711.859960	6.158311	4.281870	0.087573	-0.601505	0.865101
2.160	3.740851	-5.105146	711.766623	6.181255	4.257497	0.101312	-0.598159	0.868438
2.170	3.716545	-5.133667	711.760928	6.209990	4.240574	0.117118	-0.595786	0.872483
2.180	3.688805	-5.178373	711.841405	6.249220	4.230941	0.133332	-0.594366	0.877895
2.190	3.651205	-5.213272	711.985505	6.304340	4.226062	0.147798	-0.593560	0.885459
2.200	3.602037	-5.213537	712.155127	6.379883	4.221490	0.158424	-0.592777	0.895856
2.210	3.546255	-5.163483	712.305066	6.478007	4.211977	0.163808	-0.591316	0.909443
2.220	3.494488	-5.060675	712.394220	6.597548	4.192924	0.163696	-0.588568	0.926109
2.230	3.459612	-4.915427	712.397504	6.734009	4.161871	0.159110	-0.584206	0.945260
2.240	3.452404	-4.746732	712.314619	6.880381	4.119624	0.152106	-0.578343	0.965919
2.250	3.478104	-4.576646	712.171736	7.028499	4.070574	0.145241	-0.571572	0.986911
2.260	3.534926	-4.425062	712.014119	7.170658	4.021915	0.140983	-0.564864	1.007095
2.270	3.614509	-4.305995	711.891234	7.301273	3.981910	0.141256	-0.559343	1.025616
2.280	3.703540	-4.225660	711.839676	7.418212	3.957877	0.147206	-0.556007	1.042118
2.290	3.785800	-4.182252	711.870871	7.523267	3.954676	0.159097	-0.555533	1.056830
2.300	3.844486	-4.167260	711.968389	7.621273	3.974126	0.176226	-0.558189	1.070451
2.310	3.865225	-4.167967	712.095663	7.717902	4.015150	0.196856	-0.563850	1.083829
2.320	3.839984	-4.170679	712.211270	7.816884	4.074166	0.218276	-0.572045	1.097551
2.330	3.771020	-4.164221	712.285788	7.917915	4.145457	0.237127	-0.581993	1.111621
2.340	3.672947	-4.143114	712.312198	8.016290	4.221729	0.250021	-0.592680	1.125390
2.350	3.571010	-4.109403	712.303986	8.104411	4.295250	0.254389	-0.603008	1.137774
2.360	3.494875	-4.071961	712.282259	8.174435	4.359627	0.249286	-0.612065	1.147640
2.370	3.469089	-4.042917	712.260207	8.220940	4.411731	0.235810	-0.619399	1.154205
2.380	3.503322	-4.032350	712.234179	8.242728	4.452872	0.216900	-0.625198	1.157306
2.390	3.586579	-4.043420	712.185350	8.243337	4.488470	0.196470	-0.630239	1.157471
2.400	3.688801	-4.069961	712.089255	8.230423	4.526052	0.178172	-0.635602	1.155813
2.410	3.770229	-4.097544	711.927572	8.214398	4.572267	0.164217	-0.642238	1.153825
2.420	3.795217	-4.107768	711.698024	8.206763	4.630234	0.154740	-0.650590	1.153124
