Time[s]	Fx[N]	Fy[N]	Fz[N]	Mx[Nm]	My[Nm]	Mz[Nm]	COPx[cm]	COPy[cm]
0.010	0.579988	-7.831133	618.315022	1.182024	-5.563264	1.066394	0.899746	0.191169
0.020	0.600091	-7.788533	618.482080	1.227684	-5.623208	1.076330	0.909195	0.198500
0.030	0.632601	-7.736931	618.586667	1.269282	-5.691328	1.083148	0.920053	0.205191
0.040	0.685446	-7.671634	618.594186	1.304179	-5.774133	1.084754	0.933428	0.210830
0.050	0.760127	-7.594477	618.511730	1.332081	-5.875801	1.080808	0.949990	0.215369
0.060	0.852163	-7.512614	618.382724	1.354703	-5.998302	1.072817	0.969998	0.219072
0.070	0.954003	-7.435216	618.266593	1.374722	-6.142012	1.063574	0.993425	0.222351
0.080	1.058902	-7.370336	618.214302	1.394581	-6.306230	1.056221	1.020072	0.225582
0.090	1.163929	-7.323386	618.250650	1.415585	-6.489334	1.053330	1.049628	0.228966
0.100	1.270891	-7.297036	618.369408	1.437498	-6.688619	1.056286	1.081654	0.232466
0.110	1.385079	-7.291480	618.540796	1.458707	-6.899995	1.065095	1.115528	0.235830
0.120	1.512635	-7.304453	618.725353	1.476892	-7.117851	1.078555	1.150406	0.238699
0.130	1.657645	-7.331236	618.886880	1.489958	-7.335375	1.094665	1.185253	0.240748
0.140	1.819979	-7.365207	619.000128	1.496861	-7.545454	1.111110	1.218975	0.241819
0.150	1.994528	-7.399203	619.053244	1.497990	-7.741995	1.125695	1.250619	0.241981
0.160	2.171965	-7.427367	619.047377	1.494927	-7.921271	1.136683	1.279590	0.241488
0.170	2.340634	-7.446754	618.995352	1.489705	-8.082844	1.143064	1.305800	0.240665
0.180	2.489033	-7.458007	618.919551	1.483936	-8.229658	1.144752	1.329681	0.239762
0.190	2.608482	-7.464874	618.847739	1.478191	-8.367123	1.142607	1.352049	0.238862
0.200	2.695539	-7.472791	618.806136	1.471762	-8.501354	1.138190	1.373832	0.237839
0.210	2.753401	-7.487143	618.811333	1.462824	-8.637240	1.133272	1.395779	0.236392
0.220	2.791559	-7.511689	618.864694	1.449052	-8.777133	1.129282	1.418264	0.234147
0.230	2.823609	-7.547422	618.952383	1.428694	-8.920734	1.126934	1.441263	0.230824
0.240	2.864039	-7.592007	619.051399	1.401722	-9.066158	1.126123	1.464524	0.226431
0.250	2.925186	-7.640061	619.138623	1.370481	-9.211606	1.126073	1.487810	0.221353
0.260	3.015252	-7.684473	619.198367	1.339325	-9.356839	1.125663	1.511121	0.216300
0.270	3.137487	-7.718424	619.225181	1.313324	-9.503730	1.123892	1.534778	0.212092
0.280	3.290100	-7.737274	619.221884	1.296660	-9.655654	1.120398	1.559321	0.209401
0.290	3.466532	-7.739568	619.195561	1.291446	-9.816067	1.115808	1.585294	0.208568
0.300	3.656168	-7.727050	619.154697	1.297402	-9.986986	1.111688	1.613003	0.209544
0.310	3.845857	-7.704062	619.108695	1.312353	-10.168086	1.110045	1.642375	0.211975
0.320	4.022322	-7.676746	619.068342	1.333258	-10.356688	1.112607	1.672947	0.215365
0.330	4.175040	-7.652114	619.044762	1.357441	-10.548494	1.120200	1.703995	0.219280
0.340	4.298683	-7.636735	619.046150	1.383632	-10.738656	1.132474	1.734710	0.223510
0.350	4.394102	-7.635000	619.074328	1.412478	-10.922840	1.148034	1.764383	0.228160
0.360	4.467359	-7.647477	619.123583	1.446302	-11.098061	1.164874	1.792544	0.233605
0.370	4.527187	-7.670289	619.182164	1.488115	-11.263176	1.180888	1.819041	0.240336
0.380	4.582018	-7.696198	619.235007	1.540122	-11.418841	1.194299	1.844024	0.248714
0.390	4.637738	-7.717112	619.266476	1.602237	-11.566858	1.203929	1.867832	0.258731
0.400	4.696776	-7.726835	619.263080	1.671351	-11.709111	1.209353	1.890814	0.269894
0.410	4.758448	-7.722773	619.216455	1.741880	-11.846497	1.210899	1.913143	0.281304
0.420	4.820027	-7.706124	619.126229	1.807496	-11.978313	1.209481	1.934713	0.291943
0.430	4.877949	-7.680913	619.001854	1.863267	-12.102345	1.206275	1.955139	0.301012
0.440	4.928802	-7.652535	618.862120	1.907281	-12.215594	1.202325	1.973880	0.308192
0.450	4.969944	-7.626180	618.731452	1.941174	-12.315347	1.198226	1.990419	0.313735
0.460	4.999833	-7.605310	618.633586	1.969491	-12.400156	1.193968	2.004443	0.318361
0.470	5.018203	-7.590440	618.584927	1.998191	-12.470387	1.188991	2.015954	0.323026
0.480	5.026140	-7.578585	618.590015	2.032795	-12.528140	1.182477	2.025274	0.328617
0.490	5.025915	-7.563693	618.640403	2.076687	-12.576535	1.173841	2.032931	0.335686
0.500	5.020296	-7.538199	618.717194	2.130162	-12.618577	1.163217	2.039474	0.344287
0.510	5.011422	-7.495457	618.796653	2.190634	-12.655952	1.151688	2.045252	0.354015
0.520	4.999874	-7.432394	618.857438	2.253962	-12.688186	1.141103	2.050260	0.364213
0.530	4.984693	-7.351358	618.887186	2.316257	-12.712517	1.133541	2.054093	0.374262
0.540	4.964330	-7.260282	618.885861	2.375382	-12.724637	1.130625	2.056055	0.383816
0.550	4.937648	-7.170922	618.864200	2.431534	-12.720067	1.132947	2.055389	0.392903
0.560	4.904007	-7.095752	618.838053	2.486753	-12.695687	1.139798	2.051536	0.401842
0.570	4.862424	-7.044589	618.821923	2.543635	-12.650895	1.149328	2.044351	0.411045
0.580	4.810748	-7.022001	618.824993	2.603867	-12.587988	1.159094	2.034176	0.420776
0.590	4.745906	-7.026293	618.850633	2.667302	-12.511520	1.166811	2.021735	0.431009
0.600	4.665415	-7.050336	618.897874	2.731984	-12.426721	1.171000	2.007879	0.441427
0.610	4.569306	-7.083870	618.962431	2.794937	-12.337568	1.171262	1.993266	0.451552
0.620	4.461077	-7.116336	619.035988	2.853154	-12.245374	1.168103	1.978136	0.460903
0.630	4.346671	-7.139308	619.104888	2.904189	-12.148465	1.162497	1.962263	0.469095
0.640	4.231604	-7.147924	619.151201	2.946265	-12.042864	1.155457	1.945060	0.475856
0.650	4.117700	-7.141163	619.158006	2.978179	-11.923518	1.147805	1.925763	0.481005
0.660	4.001444	-7.121160	619.117208	2.999355	-11.785598	1.140115	1.903613	0.484457
0.670	3.875097	-7.091916	619.035352	3.010113	-11.625659	1.132727	1.878028	0.486259
0.680	3.730102	-7.057957	618.933269	3.011936	-11.442572	1.125720	1.848757	0.486633
0.690	3.561079	-7.023402	618.838753	3.007459	-11.238112	1.118910	1.816000	0.485984
0.700	3.368519	-6.991515	618.775926	3.000125	-11.017039	1.111957	1.780457	0.484848
0.710	3.158967	-6.964345	618.757506	2.993638	-10.786534	1.104603	1.743257	0.483814
0.720	2.942846	-6.942220	618.784363	2.991378	-10.555066	1.096911	1.705775	0.483428
0.730	2.731221	-6.923512	618.851508	2.995812	-10.330964	1.089389	1.669377	0.484092
0.740	2.533179	-6.905285	618.955432	3.007992	-10.121146	1.082894	1.635198	0.485979
0.750	2.354558	-6.884862	619.097566	3.027412	-9.930308	1.078346	1.603997	0.489004
0.760	2.197772	-6.861506	619.281759	3.052466	-9.760663	1.076414	1.576126	0.492904
0.770	2.062209	-6.837237	619.507419	3.081445	-9.612125	1.077348	1.551575	0.497402
0.780	1.945105	-6.816296	619.762205	3.113489	-9.482892	1.081035	1.530086	0.502368
0.790	1.842958	-6.803533	620.018288	3.148884	-9.370396	1.087163	1.511310	0.507870
0.800	1.753081	-6.802470	620.234635	3.188570	-9.272472	1.095345	1.494994	0.514091
0.810	1.674397	-6.813888	620.365387	3.233275	-9.188382	1.105178	1.481124	0.521189
0.820	1.606928	-6.835461	620.371874	3.282816	-9.119168	1.116224	1.469952	0.529169
0.830	1.550374	-6.862457	620.234474	3.335909	-9.067128	1.127991	1.461887	0.537846
0.840	1.502888	-6.889164	619.960758	3.390501	-9.034725	1.139894	1.457306	0.546890
0.850	1.460975	-6.910502	619.587079	3.444399	-9.023514	1.151243	1.456375	0.555918
0.860	1.420600	-6.923312	619.171874	3.495883	-9.033579	1.161237	1.458978	0.564606
0.870	1.378938	-6.926872	618.781599	3.544079	-9.063573	1.168943	1.464745	0.572751
0.880	1.335874	-6.922507	618.473912	3.589125	-9.111207	1.173356	1.473176	0.580320
0.890	1.294529	-6.912538	618.284189	3.632250	-9.173958	1.173590	1.483777	0.587473
0.900	1.260676	-6.899114	618.219255	3.675683	-9.249730	1.169213	1.496189	0.594560
0.910	1.241545	-6.883448	618.259185	3.722205	-9.337279	1.160565	1.510253	0.602046
0.920	1.244654	-6.865615	618.366228	3.774288	-9.436242	1.148844	1.525996	0.610364
0.930	1.276831	-6.844715	618.498293	3.833174	-9.546817	1.135824	1.543548	0.619755
0.940	1.343176	-6.819229	618.622289	3.898366	-9.669253	1.123259	1.563030	0.630169
0.950	1.445884	-6.787655	618.721789	3.967793	-9.803383	1.112266	1.584457	0.641289
0.960	1.583406	-6.749378	618.796445	4.038529	-9.948384	1.103001	1.607699	0.652643
0.970	1.750581	-6.705357	618.855759	4.107716	-10.102758	1.094831	1.632490	0.663760
0.980	1.939869	-6.658088	618.912264	4.173398	-10.264469	1.086913	1.658469	0.674312
0.990	2.142966	-6.610745	618.976891	4.235018	-10.431110	1.078831	1.685218	0.684196
1.000	2.351762	-6.565925	619.055818	4.293423	-10.599977	1.070907	1.712281	0.693544
1.010	2.558155	-6.524655	619.147670	4.350343	-10.768038	1.064018	1.739171	0.702634
1.020	2.753344	-6.486210	619.241751	4.407509	-10.931957	1.059033	1.765378	0.711759
1.030	2.927973	-6.448805	619.319172	4.465794	-11.088443	1.056202	1.790425	0.721081
1.040	3.073976	-6.410579	619.357946	4.524791	-11.234913	1.054887	1.813961	0.730562
1.050	3.187496	-6.370152	619.340984	4.583011	-11.370115	1.053825	1.835841	0.739982
1.060	3.270902	-6.326562	619.263632	4.638489	-11.494223	1.051806	1.856111	0.749033
1.070	3.332166	-6.279054	619.136613	4.689423	-11.608190	1.048384	1.874900	0.757413
1.080	3.381460	-6.227281	618.982326	4.734553	-11.712720	1.044248	1.892254	0.764893
1.090	3.426564	-6.172069	618.826634	4.773272	-11.807497	1.041051	1.908046	0.771342
1.100	3.469473	-6.116255	618.691060	4.805539	-11.891188	1.040793	1.921991	0.776727
1.110	3.505929	-6.064943	618.588959	4.831616	-11.962206	1.045022	1.933789	0.781071
1.120	3.528135	-6.024697	618.525646	4.851763	-12.019745	1.054172	1.943290	0.784408
1.130	3.529282	-6.001709	618.500231	4.866167	-12.064505	1.067306	1.950606	0.786769
1.140	3.507640	-5.999507	618.507674	4.875206	-12.098702	1.082381	1.956112	0.788221
1.150	3.468256	-6.016998	618.541112	4.879784	-12.125423	1.096921	1.960326	0.788918
1.160	3.421643	-6.047845	618.594486	4.881317	-12.147728	1.108793	1.963763	0.789098
1.170	3.380314	-6.081970	618.664354	4.881216	-12.167962	1.116766	1.966812	0.788993
1.180	3.354781	-6.109280	618.749461	4.880138	-12.187538	1.120680	1.969705	0.788710
1.190	3.350556	-6.124264	618.847803	4.877433	-12.207177	1.121262	1.972565	0.788147
1.200	3.367114	-6.129047	618.952484	4.871110	-12.227395	1.119733	1.975498	0.786993
1.210	3.399010	-6.132871	619.049030	4.858393	-12.248959	1.117401	1.978674	0.784815
1.220	3.438515	-6.147921	619.117054	4.836725	-12.273097	1.115373	1.982355	0.781230
1.230	3.478655	-6.183618	619.137188	4.804831	-12.301354	1.114422	1.986854	0.776053
1.240	3.515517	-6.242367	619.100190	4.763288	-12.335129	1.114990	1.992429	0.769389
1.250	3.549044	-6.318749	619.012442	4.714280	-12.375047	1.117194	1.999160	0.761581
1.260	3.581984	-6.402075	618.894004	4.660636	-12.420337	1.120827	2.006860	0.753059
1.270	3.617307	-6.480602	618.770895	4.604739	-12.468493	1.125372	2.015042	0.744175
1.280	3.655369	-6.545380	618.666876	4.547939	-12.515443	1.130105	2.022970	0.735119
1.290	3.692456	-6.592472	618.598764	4.490736	-12.556291	1.134312	2.029796	0.725953
1.300	3.721729	-6.623311	618.575825	4.433553	-12.586450	1.137543	2.034747	0.716736
1.310	3.736137	-6.643577	618.601368	4.377545	-12.602766	1.139770	2.037300	0.707652
1.320	3.731706	-6.661104	618.673819	4.324823	-12.604239	1.141351	2.037300	0.699047
1.330	3.709400	-6.683375	618.785555	4.277651	-12.592117	1.142804	2.034973	0.691298
1.340	3.674729	-6.715316	618.920888	4.236950	-12.569336	1.144533	2.030847	0.684570
1.350	3.635457	-6.758102	619.057261	4.201127	-12.539535	1.146654	2.025586	0.678633
1.360	3.598538	-6.809277	619.172227	4.166261	-12.506063	1.148986	2.019804	0.672876
1.370	3.567524	-6.863877	619.253272	4.127646	-12.471376	1.151170	2.013938	0.666552
1.380	3.541410	-6.915963	619.303520	4.081720	-12.437012	1.152824	2.008226	0.659082
1.390	3.515412	-6.960171	619.338373	4.027181	-12.404035	1.153648	2.002788	0.650239
1.400	3.483440	-6.993077	619.374791	3.964847	-12.373594	1.153462	1.997755	0.640137
1.410	3.441214	-7.014072	619.420317	3.896705	-12.347291	1.152220	1.993362	0.629089
1.420	3.388389	-7.025421	619.468654	3.824999	-12.327262	1.150032	1.989973	0.617464
1.430	3.328488	-7.031513	619.503410	3.751869	-12.316007	1.147184	1.988045	0.605625
1.440	3.267023	-7.037692	619.506418	3.679502	-12.316046	1.144116	1.988042	0.593941
1.450	3.209495	-7.049099	619.465612	3.610375	-12.329353	1.141311	1.990321	0.582821
1.460	3.160826	-7.069791	619.379394	3.547188	-12.356667	1.139118	1.995008	0.572700
1.470	3.126125	-7.102211	619.256919	3.492312	-12.396883	1.137606	2.001897	0.563952
1.480	3.111238	-7.146952	619.115274	3.446941	-12.446872	1.136541	2.010429	0.556753
1.490	3.121656	-7.202705	618.975188	3.410432	-12.501959	1.135503	2.019784	0.550980
1.500	3.159829	-7.266428	618.856798	3.380316	-12.557066	1.134086	2.029075	0.546219
1.510	3.222646	-7.333872	618.775994	3.353155	-12.608174	1.132059	2.037599	0.541901
1.520	3.301261	-7.400445	618.741361	3.325840	-12.653480	1.129423	2.045035	0.537517
1.530	3.384092	-7.462116	618.751943	3.296649	-12.693662	1.126365	2.051495	0.532790
1.540	3.461668	-7.515993	618.796299	3.265545	-12.731151	1.123122	2.057406	0.527725
1.550	3.530616	-7.560490	618.853478	3.233747	-12.768872	1.119773	2.063311	0.522538
1.560	3.594491	-7.595141	618.896948	3.202974	-12.809126	1.116048	2.069670	0.517529
1.570	3.660969	-7.620068	618.901827	3.174784	-12.853020	1.111327	2.076746	0.512970
1.580	3.736924	-7.635134	618.853590	3.150154	-12.900397	1.104954	2.084564	0.509031
1.590	3.823889	-7.639199	618.754613	3.129321	-12.950046	1.096751	2.092921	0.505745
1.600	3.916098	-7.630228	618.625546	3.111878	-13.000007	1.087421	2.101434	0.503031
1.610	4.002030	-7.606521	618.500698	3.097135	-13.047938	1.078562	2.109608	0.500749
1.620	4.068756	-7.568419	618.418834	3.084609	-13.091532	1.072230	2.116936	0.498790
1.630	4.107023	-7.519378	618.412444	3.074454	-13.128934	1.070205	2.123006	0.497153
1.640	4.114659	-7.465860	618.499315	3.067708	-13.159067	1.073301	2.127580	0.495992
1.650	4.096890	-7.416140	618.678740	3.066306	-13.181746	1.080993	2.130629	0.495622
1.660	4.063979	-7.378469	618.931730	3.072717	-13.197528	1.091533	2.132308	0.496455
1.670	4.027860	-7.359148	619.223118	3.089131	-13.207364	1.102510	2.132893	0.498872
1.680	3.999241	-7.361068	619.505190	3.116380	-13.212145	1.111669	2.132693	0.503043
1.690	3.985531	-7.382972	619.724933	3.153154	-13.212298	1.117679	2.131962	0.508799
1.700	3.989358	-7.419492	619.836221	3.196033	-13.207569	1.120499	2.130816	0.515625
1.710	4.007801	-7.462054	619.813972	3.240463	-13.197096	1.121194	2.129203	0.522812
1.720	4.032931	-7.500662	619.663646	3.282129	-13.179675	1.121306	2.126908	0.529663
1.730	4.053897	-7.526165	619.420478	3.318008	-13.154069	1.122136	2.123609	0.535663
1.740	4.059892	-7.532392	619.138401	3.346709	-13.119306	1.124282	2.118962	0.540543
1.750	4.042813	-7.517626	618.874200	3.368258	-13.074976	1.127610	2.112703	0.544256
1.760	3.998721	-7.485104	618.673676	3.383677	-13.021474	1.131530	2.104740	0.546924
1.770	3.927991	-7.442238	618.563644	3.394600	-12.960064	1.135318	2.095187	0.548787
1.780	3.834623	-7.398383	618.549856	3.402953	-12.892660	1.138267	2.084336	0.550150
1.790	3.725318	-7.361626	618.619058	3.410666	-12.821333	1.139689	2.072573	0.551335
1.800	3.608585	-7.335856	618.744113	3.419307	-12.747677	1.138942	2.060250	0.552620
1.810	3.493716	-7.319515	618.892204	3.429659	-12.672262	1.135615	2.047572	0.554161
1.820	3.389257	-7.306611	619.034864	3.441450	-12.594441	1.129814	2.034529	0.555938
1.830	3.300997	-7.289383	619.155821	3.453535	-12.512679	1.122327	2.020926	0.557781
1.840	3.230293	-7.261368	619.252724	3.464593	-12.425398	1.114482	2.006515	0.559480
1.850	3.173893	-7.219750	619.332740	3.474023	-12.332082	1.107687	1.991188	0.560930
1.860	3.125710	-7.166361	619.405326	3.482562	-12.234106	1.102945	1.975137	0.562243
1.870	3.079797	-7.107089	619.475666	3.492293	-12.134811	1.100632	1.958884	0.563750
1.880	3.032955	-7.049931	619.540870	3.506031	-12.038682	1.100617	1.943162	0.565908
1.890	2.985745	-7.002356	619.590114	3.526387	-11.949993	1.102499	1.928693	0.569148
1.900	2.941663	-6.969002	619.608843	3.554912	-11.871538	1.105773	1.915973	0.573735
1.910	2.905193	-6.950586	619.585134	3.591632	-11.804017	1.109917	1.905149	0.579683
1.920	2.879719	-6.944312	619.514962	3.635035	-11.746256	1.114455	1.896041	0.586755
1.930	2.866110	-6.945386	619.404185	3.682437	-11.696043	1.118991	1.888273	0.594513
1.940	2.862487	-6.948910	619.267589	3.730563	-11.651104	1.123158	1.881433	0.602415
1.950	2.865242	-6.951418	619.126371	3.776165	-11.609806	1.126484	1.875192	0.609918
1.960	2.870741	-6.951579	619.004642	3.816519	-11.571396	1.128290	1.869355	0.616557
1.970	2.876811	-6.949902	618.924629	3.849760	-11.535841	1.127742	1.863852	0.622008
1.980	2.883338	-6.947642	618.900943	3.875087	-11.503435	1.124059	1.858688	0.626124
1.990	2.891830	-6.945319	618.935980	3.892832	-11.474342	1.116810	1.853882	0.628955
2.000	2.904240	-6.941447	619.019186	3.904312	-11.448254	1.106142	1.849418	0.630726
2.010	2.921575	-6.932112	619.131146	3.911361	-11.424179	1.092884	1.845195	0.631750
2.020	2.942891	-6.911828	619.250577	3.915521	-11.400367	1.078481	1.840994	0.632300
2.030	2.965136	-6.875542	619.360745	3.917185	-11.374331	1.064781	1.836463	0.632456
2.040	2.984016	-6.821043	619.452591	3.915223	-11.343090	1.053680	1.831147	0.632046
2.050	2.995533	-6.750794	619.523787	3.907521	-11.303710	1.046679	1.824581	0.630730
2.060	2.997379	-6.672260	619.574663	3.892364	-11.254098	1.044476	1.816423	0.628232
2.070	2.989349	-6.596319	619.603177	3.869957	-11.193718	1.046758	1.806595	0.624586
2.080	2.972604	-6.534182	619.601908	3.843150	-11.123919	1.052282	1.795333	0.620261
2.090	2.948383	-6.494069	619.559509	3.816767	-11.047617	1.059248	1.783141	0.616045
2.100	2.916964	-6.479119	619.466714	3.795792	-10.968434	1.065872	1.770625	0.612752
2.110	2.877341	-6.487333	619.323940	3.783383	-10.889565	1.071035	1.758299	0.610889
2.120	2.827564	-6.513137	619.145919	3.779725	-10.812735	1.074754	1.746395	0.610474
2.130	2.765271	-6.549457	618.960096	3.782110	-10.737576	1.078254	1.734777	0.611043
2.140	2.687978	-6.589518	618.799143	3.785949	-10.661619	1.083542	1.722953	0.611822
2.150	2.593242	-6.628265	618.691505	3.786249	-10.580950	1.092649	1.710214	0.611977
2.160	2.479248	-6.663538	618.654711	3.779201	-10.491390	1.106806	1.695839	0.610874
2.170	2.346266	-6.696702	618.693380	3.763536	-10.389964	1.125829	1.679340	0.608304
2.180	2.198640	-6.732082	618.799997	3.741118	-10.276314	1.147925	1.660684	0.604576
2.190	2.046140	-6.774885	618.955833	3.716284	-10.153515	1.170059	1.640426	0.600412
2.200	1.903242	-6.828225	619.132156	3.693989	-10.027826	1.188796	1.619658	0.596640
2.210	1.785753	-6.890698	619.294535	3.677584	-9.907279	1.201263	1.599768	0.593834
2.220	1.705903	-6.955919	619.411870	3.667410	-9.799628	1.205840	1.582086	0.592079
2.230	1.668335	-7.014409	619.467922	3.660976	-9.710532	1.202319	1.567560	0.590987
2.240	1.669103	-7.056895	619.469558	3.654549	-9.642648	1.191613	1.556597	0.589948
2.250	1.697944	-7.077381	619.445769	3.645126	-9.595840	1.175279	1.549101	0.588450
2.260	1.742117	-7.074742	619.435680	3.631695	-9.568124	1.155108	1.544652	0.586291
2.270	1.789756	-7.052573	619.470517	3.615281	-9.556750	1.132900	1.542729	0.583608
2.280	1.831764	-7.017730	619.558822	3.598018	-9.558943	1.110386	1.542863	0.580739
2.290	1.862556	-6.978204	619.682147	3.581890	-9.572105	1.089168	1.544680	0.578020
2.300	1.880248	-6.940968	619.801928	3.567826	-9.593576	1.070591	1.547845	0.575640
2.310	1.886408	-6.910361	619.872861	3.555551	-9.620344	1.055568	1.551987	0.573594
2.320	1.885165	-6.887384	619.857475	3.544137	-9.649133	1.044462	1.556670	0.571767
2.330	1.881667	-6.870065	619.738583	3.532850	-9.677032	1.037078	1.561470	0.570055
2.340	1.880251	-6.854889	619.527287	3.521883	-9.702342	1.032809	1.566088	0.568479
2.350	1.882864	-6.838979	619.263895	3.512688	-9.725155	1.030836	1.570438	0.567236
2.360	1.888293	-6.822151	619.009709	3.507815	-9.747340	1.030341	1.574667	0.566682
2.370	1.892695	-6.807642	618.830298	3.510322	-9.772019	1.030679	1.579111	0.567251
2.380	1.891553	-6.800707	618.774794	3.522955	-9.802760	1.031515	1.584221	0.569344
2.390	1.882411	-6.805572	618.858530	3.547399	-9.842703	1.032903	1.590461	0.573216
2.400	1.867042	-6.822522	619.055984	3.583764	-9.893782	1.035271	1.598205	0.578908
2.410	1.851750	-6.846995	619.307196	3.630336	-9.956249	1.039272	1.607643	0.586193
