Time[s]	Fx[N]	Fy[N]	Fz[N]	Mx[Nm]	My[Nm]	Mz[Nm]	COPx[cm]	COPy[cm]
0.010	4.642246	1.601897	576.188381	-15.772739	0.195637	0.112381	-0.033954	-2.737427
0.020	4.774652	1.803355	574.859590	-15.651483	0.033739	0.104351	-0.005869	-2.722662
0.030	4.888278	1.982426	573.609354	-15.537696	-0.125569	0.095193	0.021891	-2.708759
0.040	4.973962	2.118959	572.514229	-15.437872	-0.279893	0.084753	0.048888	-2.696504
0.050	5.036615	2.197857	571.640456	-15.356589	-0.427102	0.074102	0.074715	-2.686407
0.060	5.093312	2.211383	571.033730	-15.295807	-0.565133	0.065443	0.098967	-2.678617
0.070	5.166326	2.160298	570.707839	-15.254521	-0.691751	0.061515	0.121209	-2.672912
0.080	5.274551	2.053340	570.636876	-15.228894	-0.804476	0.064687	0.140979	-2.668754
0.090	5.426762	1.905456	570.755957	-15.212864	-0.900725	0.076049	0.157813	-2.665389
0.100	5.618743	1.735681	570.972672	-15.199081	-0.977949	0.094837	0.171278	-2.661963
0.110	5.834737	1.565282	571.187117	-15.180015	-1.033543	0.118466	0.180946	-2.657626
0.120	6.052267	1.416144	571.315467	-15.149220	-1.064631	0.143251	0.186347	-2.651638
0.130	6.248632	1.308769	571.311353	-15.102742	-1.068180	0.165623	0.186970	-2.643522
0.140	6.407140	1.259361	571.179422	-15.040350	-1.041693	0.183343	0.182376	-2.633209
0.150	6.521530	1.276180	570.975750	-14.965904	-0.984196	0.196205	0.172371	-2.621110
0.160	6.597560	1.356277	570.792373	-14.886307	-0.896842	0.205932	0.157122	-2.608007
0.170	6.651269	1.484307	570.728676	-14.809183	-0.782586	0.215346	0.137120	-2.594785
0.180	6.704121	1.634780	570.857654	-14.740072	-0.644954	0.227180	0.112980	-2.582092
0.190	6.775982	1.778055	571.196763	-14.680068	-0.486340	0.242996	0.085144	-2.570054
0.200	6.877397	1.888784	571.691129	-14.624439	-0.306352	0.262600	0.053587	-2.558101
0.210	7.002829	1.953962	572.213434	-14.562420	-0.100582	0.284041	0.017578	-2.544928
0.220	7.126674	1.977202	572.581727	-14.478213	0.139863	0.304079	-0.024427	-2.528585
0.230	7.204073	1.976961	572.593927	-14.353331	0.427721	0.318916	-0.074699	-2.506721
0.240	7.178057	1.978992	572.075235	-14.170298	0.777610	0.325058	-0.135928	-2.476999
0.250	6.992592	2.006167	570.931109	-13.917207	1.202879	0.320236	-0.210687	-2.437633
0.260	6.608166	2.070302	569.194279	-13.591921	1.711961	0.304231	-0.300769	-2.387923
0.270	6.014614	2.169875	567.051476	-13.204449	2.305238	0.279306	-0.406531	-2.328616
0.280	5.236282	2.294694	564.836566	-12.776377	2.973445	0.249897	-0.526426	-2.261960
0.290	4.327116	2.435160	562.983708	-12.337187	3.698268	0.221417	-0.656905	-2.191393
0.300	3.356555	2.591453	561.946434	-11.918309	4.455171	0.198417	-0.792811	-2.120898
0.310	2.390289	2.777872	562.101835	-11.546555	5.217797	0.182795	-0.928265	-2.054175
0.320	1.472222	3.019578	563.666349	-11.238755	5.962650	0.172847	-1.057833	-1.993867
0.330	0.614404	3.342336	566.646634	-10.998993	6.672524	0.163604	-1.177546	-1.941067
0.340	-0.200526	3.759349	570.837189	-10.818943	7.337509	0.148353	-1.285394	-1.895277
0.350	-1.004631	4.261054	575.862379	-10.680908	7.953398	0.120825	-1.381128	-1.854768
0.360	-1.823156	4.812588	581.249763	-10.562689	8.518382	0.077374	-1.465529	-1.817238
0.370	-2.654815	5.360178	586.515795	-10.443199	9.029524	0.018475	-1.539519	-1.780549
0.380	-3.462041	5.843983	591.243446	-10.307533	9.480324	-0.050963	-1.603455	-1.743365
0.390	-4.175742	6.212705	595.134129	-10.150006	9.860073	-0.122702	-1.656782	-1.705499
0.400	-4.713584	6.435218	598.023942	-9.974076	10.155013	-0.187411	-1.698095	-1.667839
0.410	-5.005222	6.506124	599.865344	-9.789235	10.350917	-0.237291	-1.725540	-1.631905
0.420	-5.014707	6.444509	600.686351	-9.606277	10.436377	-0.268111	-1.737409	-1.599217
0.430	-4.751333	6.287306	600.545502	-9.432960	10.405937	-0.279954	-1.732747	-1.570732
0.440	-4.265425	6.079831	599.499357	-9.271765	10.262188	-0.276489	-1.711793	-1.546585
0.450	-3.632065	5.866225	597.591064	-9.120383	10.016255	-0.263178	-1.676105	-1.526191
0.460	-2.930198	5.681951	594.858681	-8.974429	9.686562	-0.245249	-1.628380	-1.508666
0.470	-2.224843	5.549678	591.355929	-8.830912	9.296258	-0.226276	-1.572024	-1.493333
0.480	-1.557196	5.478940	587.176746	-8.690715	8.869993	-0.207813	-1.510617	-1.480085
0.490	-0.943544	5.468916	582.475273	-8.558918	8.430876	-0.190018	-1.447422	-1.469405
0.500	-0.381131	5.512630	577.473308	-8.442993	7.998314	-0.172746	-1.385053	-1.462058
0.510	0.142244	5.600499	572.449750	-8.350062	7.587101	-0.156496	-1.325374	-1.458654
0.520	0.638417	5.722017	567.712278	-8.284785	7.207668	-0.142728	-1.269599	-1.459328
0.530	1.111748	5.865506	563.558019	-8.248899	6.867074	-0.133483	-1.218521	-1.463718
0.540	1.556319	6.016732	560.233825	-8.242367	6.570221	-0.130574	-1.172764	-1.471237
0.550	1.957481	6.157518	557.906590	-8.265220	6.320863	-0.134804	-1.132961	-1.481470
0.560	2.296500	6.265695	556.650526	-8.318949	6.122223	-0.145521	-1.099833	-1.494465
0.570	2.556211	6.317515	556.452650	-8.406724	5.977114	-0.160621	-1.074146	-1.510771
0.580	2.725535	6.292538	557.231472	-8.532364	5.887532	-0.176945	-1.056569	-1.531206
0.590	2.801440	6.179496	558.859929	-8.698576	5.853851	-0.190951	-1.047463	-1.556486
0.600	2.788188	5.980608	561.184217	-8.905155	5.873955	-0.199534	-1.046707	-1.586851
0.610	2.694804	5.712238	564.034930	-9.147797	5.942730	-0.200855	-1.053610	-1.621849
0.620	2.532188	5.401416	567.232824	-9.417932	6.052154	-0.194955	-1.066961	-1.660329
0.630	2.311116	5.079746	570.594775	-9.703658	6.191990	-0.183876	-1.085182	-1.700622
0.640	2.041804	4.777229	573.944085	-9.991471	6.350865	-0.171113	-1.106530	-1.740844
0.650	1.735004	4.518031	577.124438	-10.268204	6.517377	-0.160496	-1.129285	-1.779201
0.660	1.403902	4.318754	580.012959	-10.522668	6.680818	-0.154926	-1.151839	-1.814213
0.670	1.065806	4.188177	582.528013	-10.746738	6.831303	-0.155494	-1.172700	-1.844845
0.680	0.742669	4.127051	584.630321	-10.935907	6.959465	-0.161308	-1.190404	-1.870568
0.690	0.459705	4.127316	586.317982	-11.089379	7.056055	-0.170055	-1.203452	-1.891359
0.700	0.241906	4.171567	587.616274	-11.209717	7.111806	-0.178967	-1.210281	-1.907659
0.710	0.109211	4.234333	588.563130	-11.301992	7.117704	-0.185765	-1.209336	-1.920268
0.720	0.072070	4.286414	589.192333	-11.372423	7.065688	-0.189219	-1.199216	-1.930172
0.730	0.129286	4.302063	589.518183	-11.426645	6.949651	-0.189201	-1.178870	-1.938302
0.740	0.269240	4.267044	589.526431	-11.467995	6.766523	-0.186360	-1.147790	-1.945289
0.750	0.474261	4.184513	589.175515	-11.496494	6.517090	-0.181631	-1.106137	-1.951285
0.760	0.726539	4.075948	588.409912	-11.509092	6.206234	-0.175789	-1.054747	-1.955965
0.770	1.013324	3.976043	587.183832	-11.501295	5.842516	-0.169251	-0.995006	-1.958721
0.780	1.329462	3.922762	585.488842	-11.469633	5.437266	-0.162139	-0.928671	-1.958984
0.790	1.676421	3.945614	583.375126	-11.413985	5.003447	-0.154536	-0.857672	-1.956543
0.800	2.058182	4.055939	580.956353	-11.338879	4.554407	-0.146659	-0.783950	-1.951761
0.810	2.475620	4.242379	578.394124	-11.253311	4.102659	-0.138805	-0.709319	-1.945613
0.820	2.921939	4.473044	575.866967	-11.169237	3.658857	-0.131058	-0.635365	-1.939552
0.830	3.381689	4.703802	573.535761	-11.099247	3.231189	-0.122992	-0.563380	-1.935232
0.840	3.834130	4.890254	571.518278	-11.054123	2.825248	-0.113608	-0.494341	-1.934168
0.850	4.259097	4.999759	569.879704	-11.040944	2.444353	-0.101624	-0.428924	-1.937417
0.860	4.641910	5.019891	568.637544	-11.062107	2.090242	-0.086010	-0.367588	-1.945370
0.870	4.974776	4.960987	567.773878	-11.115390	1.764022	-0.066546	-0.310691	-1.957714
0.880	5.254757	4.852422	567.248149	-11.195011	1.467143	-0.044179	-0.258642	-1.973565
0.890	5.480702	4.734057	567.007696	-11.293411	1.202067	-0.021021	-0.212002	-1.991756
0.900	5.651647	4.645456	566.997113	-11.403260	0.972313	0.000088	-0.171485	-2.011167
0.910	5.767431	4.615846	567.168039	-11.519054	0.781759	0.016399	-0.137836	-2.030977
0.920	5.830304	4.657419	567.488175	-11.637917	0.633386	0.026188	-0.111612	-2.050777
0.930	5.845838	4.763615	567.945634	-11.759662	0.527891	0.029450	-0.092947	-2.070561
0.940	5.822393	4.912530	568.545446	-11.886469	0.462751	0.028021	-0.081392	-2.090681
0.950	5.769715	5.074015	569.299207	-12.022363	0.432171	0.025055	-0.075913	-2.111783
0.960	5.697605	5.217941	570.212702	-12.172443	0.428030	0.024030	-0.075065	-2.134720
0.970	5.615145	5.320957	571.276663	-12.341776	0.441537	0.027603	-0.077290	-2.160385
0.980	5.530344	5.369856	572.462912	-12.534135	0.464980	0.036727	-0.081225	-2.189510
0.990	5.449926	5.361191	573.725235	-12.751003	0.492961	0.050316	-0.085923	-2.222493
1.000	5.379141	5.298215	575.003184	-12.991279	0.522751	0.065624	-0.090913	-2.259340
1.010	5.321689	5.186954	576.227618	-13.251794	0.553816	0.079212	-0.096111	-2.299750
1.020	5.279766	5.032961	577.327493	-13.528486	0.586838	0.088140	-0.101647	-2.343295
1.030	5.254105	4.839589	578.237291	-13.817898	0.622691	0.090897	-0.107688	-2.389659
1.040	5.243897	4.607964	578.903698	-14.118636	0.661645	0.087738	-0.114293	-2.438857
1.050	5.246687	4.338281	579.289943	-14.432274	0.702973	0.080390	-0.121351	-2.491373
1.060	5.258478	4.031800	579.377068	-14.763191	0.745083	0.071368	-0.128601	-2.548115
1.070	5.274070	3.692938	579.162948	-15.117091	0.786164	0.063213	-0.135741	-2.610162
1.080	5.287516	3.330756	578.661069	-15.498652	0.825151	0.057808	-0.142597	-2.678364
1.090	5.292787	2.958968	577.900944	-15.909420	0.862583	0.055864	-0.149261	-2.752967
1.100	5.284709	2.593764	576.930603	-16.347102	0.900920	0.056633	-0.156158	-2.833461
1.110	5.259823	2.249683	575.819940	-16.806705	0.944015	0.057947	-0.163943	-2.918743
1.120	5.216519	1.935024	574.661923	-17.282907	0.995869	0.056656	-0.173297	-3.007491
1.130	5.154294	1.648938	573.567803	-17.772405	1.059180	0.049485	-0.184665	-3.098571
1.140	5.072727	1.381753	572.653885	-18.275045	1.134373	0.034065	-0.198091	-3.191290
1.150	4.970861	1.118423	572.021679	-18.793251	1.219640	0.009790	-0.213216	-3.285409
1.160	4.847070	0.843551	571.737467	-19.330156	1.312003	-0.021849	-0.229477	-3.380950
1.170	4.699109	0.546071	571.818491	-19.887451	1.408868	-0.057545	-0.246384	-3.477931
1.180	4.524356	0.222127	572.230997	-20.463899	1.509182	-0.092933	-0.263737	-3.576160
1.190	4.320772	-0.124520	572.901765	-21.054957	1.613538	-0.123608	-0.281643	-3.675143
1.200	4.089061	-0.484360	573.740206	-21.653425	1.723184	-0.146160	-0.300342	-3.774082
1.210	3.835542	-0.845114	574.663315	-22.250688	1.838480	-0.158921	-0.319923	-3.871952
1.220	3.574147	-1.194390	575.613831	-22.838109	1.957562	-0.162157	-0.340082	-3.967610
1.230	3.325763	-1.521231	576.565373	-23.408156	2.075886	-0.157578	-0.360043	-4.059931
1.240	3.114305	-1.816785	577.514839	-23.954929	2.186892	-0.147325	-0.378673	-4.147933
1.250	2.960698	-2.074789	578.467050	-24.473985	2.283509	-0.132935	-0.394752	-4.230835
1.260	2.877248	-2.292225	579.417707	-24.961588	2.359771	-0.114785	-0.407266	-4.308047
1.270	2.864500	-2.469874	580.340413	-25.413760	2.411826	-0.092257	-0.415588	-4.379113
1.280	2.911312	-2.612231	581.182876	-25.825510	2.438084	-0.064428	-0.419504	-4.443612
1.290	2.997534	-2.726478	581.874532	-26.190631	2.438773	-0.030880	-0.419124	-4.501079
1.300	3.098446	-2.820804	582.342491	-26.502281	2.415365	0.007803	-0.414767	-4.550978
1.310	3.190250	-2.902662	582.528720	-26.754265	2.370092	0.049981	-0.406863	-4.592780
1.320	3.255675	-2.977349	582.401501	-26.942496	2.305556	0.093291	-0.395871	-4.626103
1.330	3.288128	-3.046937	581.957660	-27.066065	2.224433	0.135163	-0.382233	-4.650865
1.340	3.292923	-3.109404	581.216355	-27.127556	2.129398	0.173368	-0.366369	-4.667377
1.350	3.285195	-3.158000	580.209563	-27.132648	2.023313	0.206466	-0.348721	-4.676353
1.360	3.285427	-3.181101	578.976620	-27.089310	1.909486	0.234003	-0.329804	-4.678826
1.370	3.314187	-3.163056	577.567561	-27.006871	1.791711	0.256413	-0.310217	-4.675967
1.380	3.387581	-3.086638	576.052719	-26.895082	1.673920	0.274689	-0.290585	-4.668858
1.390	3.514323	-2.937173	574.529558	-26.763119	1.559572	0.289991	-0.271452	-4.658267
1.400	3.694617	-2.707522	573.117368	-26.618562	1.451128	0.303364	-0.253199	-4.644522
1.410	3.920441	-2.402298	571.937115	-26.466560	1.350000	0.315618	-0.236040	-4.627530
1.420	4.176764	-2.039672	571.082819	-26.309608	1.257089	0.327315	-0.220124	-4.606969
1.430	4.443649	-1.649647	570.596465	-26.148244	1.173604	0.338785	-0.205680	-4.582616
1.440	4.699474	-1.268736	570.457242	-25.982538	1.101658	0.350146	-0.193118	-4.554686
1.450	4.924986	-0.932244	570.589461	-25.813807	1.044262	0.361345	-0.183015	-4.524060
1.460	5.107125	-0.666373	570.886072	-25.645779	1.004697	0.372236	-0.175989	-4.492276
1.470	5.241207	-0.482563	571.239296	-25.484596	0.985593	0.382684	-0.172536	-4.461282
1.480	5.330643	-0.375727	571.567966	-25.337517	0.988273	0.392634	-0.172906	-4.432984
1.490	5.384330	-0.326973	571.833164	-25.210820	1.012825	0.402103	-0.177119	-4.408772
1.500	5.412601	-0.310098	572.038898	-25.107703	1.058884	0.411071	-0.185107	-4.389160
1.510	5.423136	-0.299842	572.219713	-25.026932	1.126655	0.419246	-0.196892	-4.373658
1.520	5.418334	-0.278986	572.420269	-24.962639	1.217507	0.425818	-0.212695	-4.360894
1.530	5.395168	-0.241663	572.673445	-24.905438	1.333754	0.429374	-0.232900	-4.348977
1.540	5.347576	-0.191853	572.984097	-24.844704	1.477662	0.428092	-0.257889	-4.336020
1.550	5.270471	-0.138157	573.324428	-24.771472	1.650207	0.420155	-0.287831	-4.320673
1.560	5.163811	-0.087346	573.643249	-24.681027	1.850209	0.404183	-0.322537	-4.302505
1.570	5.034811	-0.039315	573.886101	-24.574235	2.074272	0.379527	-0.361443	-4.282075
1.580	4.896809	0.014739	574.018093	-24.457089	2.317544	0.346436	-0.403741	-4.260683
1.590	4.764630	0.090206	574.039166	-24.338681	2.574979	0.306116	-0.448572	-4.239899
1.600	4.648008	0.203706	573.984957	-24.228487	2.842653	0.260663	-0.495249	-4.221101
1.610	4.545752	0.366366	573.913915	-24.134092	3.118739	0.212823	-0.543416	-4.205176
1.620	4.443274	0.578240	573.887664	-24.060107	3.403915	0.165578	-0.593133	-4.192477
1.630	4.314901	0.825957	573.953416	-24.008347	3.701035	0.121674	-0.644832	-4.182978
1.640	4.130420	1.084442	574.135203	-23.978855	4.013985	0.083231	-0.699136	-4.176517
1.650	3.863532	1.321971	574.436297	-23.971179	4.345883	0.051486	-0.756547	-4.172992
1.660	3.499279	1.506846	574.849818	-23.985389	4.697156	0.026653	-0.817110	-4.172462
1.670	3.038214	1.613796	575.371004	-24.022374	5.064236	0.007838	-0.880169	-4.175110
1.680	2.496553	1.628730	576.005494	-24.083264	5.439364	-0.006950	-0.944325	-4.181082
1.690	1.902986	1.551107	576.771194	-24.168261	5.811527	-0.020519	-1.007597	-4.190268
1.700	1.293524	1.393820	577.693252	-24.275637	6.168097	-0.035874	-1.067711	-4.202167
1.710	0.705739	1.180911	578.792283	-24.401587	6.496582	-0.055370	-1.122438	-4.215949
1.720	0.173349	0.943586	580.067859	-24.541105	6.786025	-0.080000	-1.169867	-4.230730
1.730	-0.278272	0.714913	581.482324	-24.689229	7.027872	-0.109115	-1.208613	-4.245912
1.740	-0.634901	0.523837	582.951546	-24.841689	7.216481	-0.140627	-1.237921	-4.261364
1.750	-0.893705	0.389648	584.347729	-24.994388	7.349432	-0.171509	-1.257716	-4.277314
1.760	-1.060437	0.318447	585.515556	-25.142098	7.427545	-0.198374	-1.268548	-4.294010
1.770	-1.144320	0.302927	586.298666	-25.277499	7.454474	-0.218054	-1.271447	-4.311369
1.780	-1.152835	0.325762	586.569903	-25.391548	7.435907	-0.228153	-1.267693	-4.328819
1.790	-1.089102	0.365448	586.256786	-25.475352	7.378648	-0.227502	-1.258603	-4.345426
1.800	-0.953258	0.402519	585.354105	-25.522718	7.289887	-0.216403	-1.245381	-4.360219
1.810	-0.746784	0.424073	583.919722	-25.532112	7.176767	-0.196502	-1.229067	-4.372538
1.820	-0.477123	0.425490	582.056842	-25.507079	7.046180	-0.170299	-1.210566	-4.382232
1.830	-0.159954	0.409485	579.892104	-25.454920	6.904647	-0.140459	-1.190678	-4.389596
1.840	0.182052	0.383514	577.559132	-25.384229	6.758187	-0.109213	-1.170129	-4.395087
1.850	0.523288	0.356706	575.191007	-25.302278	6.612250	-0.078057	-1.149575	-4.398935
1.860	0.840015	0.337142	572.917692	-25.213288	6.471846	-0.047756	-1.129629	-4.400857
1.870	1.113844	0.330025	570.862271	-25.118133	6.341882	-0.018577	-1.110930	-4.400034
1.880	1.333106	0.337276	569.133706	-25.015419	6.227496	0.009402	-1.094206	-4.395350
1.890	1.492727	0.358828	567.818565	-24.903332	6.134082	0.035943	-1.080289	-4.385790
1.900	1.593506	0.395021	566.974897	-24.781345	6.066844	0.060353	-1.070037	-4.370801
1.910	1.641082	0.448676	566.628883	-24.651107	6.029995	0.081369	-1.064188	-4.350485
1.920	1.644333	0.525470	566.773006	-24.516264	6.025927	0.097367	-1.063199	-4.325588
1.930	1.613085	0.632335	567.365734	-24.381506	6.054693	0.106880	-1.067159	-4.297317
1.940	1.555617	0.774759	568.334463	-24.251319	6.114029	0.109203	-1.075780	-4.267086
1.950	1.476794	0.954186	569.583102	-24.128923	6.199866	0.104781	-1.088492	-4.236243
1.960	1.377606	1.166301	571.003442	-24.015704	6.307111	0.095150	-1.104566	-4.205877
1.970	1.256648	1.400661	572.488275	-23.911221	6.430409	0.082493	-1.123238	-4.176718
1.980	1.113421	1.641873	573.944201	-23.813708	6.564665	0.069029	-1.143781	-4.149133
1.990	0.952158	1.872193	575.301673	-23.720729	6.705244	0.056504	-1.165518	-4.123181
2.000	0.783932	2.074907	576.519213	-23.629722	6.847915	0.045945	-1.187803	-4.098688
2.010	0.625250	2.237548	577.579944	-23.538352	6.988739	0.037670	-1.210004	-4.075341
2.020	0.493246	2.354013	578.481993	-23.444864	7.124137	0.031463	-1.231523	-4.052825
2.030	0.399645	2.425060	579.227210	-23.348566	7.251159	0.026750	-1.251868	-4.030986
2.040	0.346312	2.457249	579.812322	-23.250306	7.367818	0.022743	-1.270725	-4.009971
2.050	0.324143	2.460815	580.224144	-23.152625	7.473229	0.018535	-1.287990	-3.990290
2.060	0.315349	2.447062	580.439460	-23.059455	7.567404	0.013191	-1.303737	-3.972758
2.070	0.298198	2.425725	580.431389	-22.975442	7.650694	0.005834	-1.318105	-3.958339
2.080	0.252777	2.402814	580.183956	-22.905116	7.723113	-0.004307	-1.331149	-3.947906
2.090	0.166051	2.379610	579.711966	-22.852097	7.783939	-0.017903	-1.342725	-3.941974
2.100	0.034467	2.353337	579.076516	-22.818508	7.831790	-0.035542	-1.352462	-3.940500
2.110	-0.136617	2.319369	578.384457	-22.804830	7.865057	-0.057681	-1.359832	-3.942850
2.120	-0.335745	2.274030	577.766657	-22.810354	7.882324	-0.084442	-1.364275	-3.948022
2.130	-0.548489	2.216698	577.341504	-22.834063	7.882545	-0.115283	-1.365318	-3.955036
2.140	-0.759459	2.150171	577.179086	-22.875398	7.864946	-0.148703	-1.362653	-3.963310
2.150	-0.953163	2.079122	577.282264	-22.934488	7.828745	-0.182240	-1.356138	-3.972838
2.160	-1.114764	2.007407	577.593319	-23.011842	7.772765	-0.212884	-1.345716	-3.984091
2.170	-1.231600	1.935568	578.022894	-23.107913	7.695096	-0.237775	-1.331279	-3.997750
2.180	-1.295150	1.859651	578.487476	-23.222918	7.592964	-0.254813	-1.312555	-4.014420
2.190	-1.302350	1.771745	578.937947	-23.356950	7.462975	-0.262906	-1.289080	-4.034448
2.200	-1.255429	1.661986	579.366709	-23.510157	7.301800	-0.261840	-1.260307	-4.057906
2.210	-1.160664	1.521312	579.791698	-23.682766	7.107155	-0.252040	-1.225812	-4.084703
2.220	-1.027199	1.343979	580.226679	-23.874994	6.878717	-0.234460	-1.185522	-4.114770
2.230	-0.866554	1.128821	580.653863	-24.087088	6.618555	-0.210586	-1.139845	-4.148270
2.240	-0.692026	0.878765	581.014141	-24.319638	6.330757	-0.182328	-1.089605	-4.185722
2.250	-0.516586	0.598894	581.221490	-24.573900	6.020331	-0.151593	-1.035807	-4.227975
2.260	-0.348860	0.293894	581.194907	-24.851635	5.691825	-0.119662	-0.979332	-4.275955
2.270	-0.188563	-0.034108	580.891348	-25.154091	5.348331	-0.086698	-0.920711	-4.330258
2.280	-0.023768	-0.386307	580.323232	-25.480247	4.991300	-0.051762	-0.860090	-4.390699
2.290	0.167949	-0.765802	579.553457	-25.824849	4.621111	-0.013390	-0.797357	-4.455991
2.300	0.413937	-1.173967	578.672605	-26.177187	4.237913	0.029517	-0.732351	-4.523661
2.310	0.737909	-1.605809	577.769745	-26.521534	3.842317	0.076905	-0.665026	-4.590329
2.320	1.151194	-2.046563	576.908264	-26.839575	3.435869	0.127190	-0.595566	-4.652312
2.330	1.647025	-2.471866	576.113830	-27.114172	3.021563	0.177393	-0.524473	-4.706392
2.340	2.200081	-2.852359	575.376140	-27.333112	2.604450	0.223701	-0.452652	-4.750477
2.350	2.771576	-3.161422	574.661818	-27.491500	2.191995	0.262327	-0.381441	-4.783944
