Time[s]	Fx[N]	Fy[N]	Fz[N]	Mx[Nm]	My[Nm]	Mz[Nm]	COPx[cm]	COPy[cm]
0.010	3.293836	1.139569	680.312599	2.273090	-2.728684	-0.311185	0.401093	0.334124
0.020	3.211322	1.556759	680.447759	2.597748	-2.649436	-0.277836	0.389367	0.381770
0.030	3.224525	1.938968	680.612831	2.906948	-2.607079	-0.242809	0.383049	0.427107
0.040	3.397467	2.258919	680.820834	3.187686	-2.625402	-0.205874	0.385623	0.468212
0.050	3.744593	2.502554	681.058654	3.431730	-2.707283	-0.168790	0.397511	0.503882
0.060	4.221783	2.670969	681.288658	3.636652	-2.833750	-0.135266	0.415940	0.533790
0.070	4.734902	2.778069	681.459686	3.805226	-2.970196	-0.110221	0.435858	0.558393
0.080	5.166421	2.845053	681.522901	3.943295	-3.077319	-0.098539	0.451536	0.578601
0.090	5.413487	2.893816	681.448062	4.056941	-3.123014	-0.103537	0.458291	0.595341
0.100	5.424429	2.941270	681.236452	4.150150	-3.091343	-0.125592	0.453784	0.609208
0.110	5.219026	2.995724	680.926099	4.223972	-2.985897	-0.161516	0.438505	0.620327
0.120	4.882897	3.055867	680.584954	4.277387	-2.826765	-0.205161	0.415343	0.628487
0.130	4.536376	3.112513	680.291436	4.309181	-2.642492	-0.249196	0.388435	0.633432
0.140	4.289216	3.152585	680.108518	4.319544	-2.460036	-0.287414	0.361712	0.635126
0.150	4.199061	3.163916	680.062465	4.310369	-2.296310	-0.316606	0.337662	0.633820
0.160	4.250573	3.139080	680.136064	4.284164	-2.154059	-0.337183	0.316710	0.629898
0.170	4.363385	3.077062	680.278976	4.242467	-2.022965	-0.352290	0.297373	0.623636
0.180	4.424936	2.982694	680.429268	4.184936	-1.884763	-0.365825	0.276996	0.615043
0.190	4.334337	2.864786	680.535513	4.109890	-1.719900	-0.380342	0.252727	0.603920
0.200	4.039817	2.734099	680.570793	4.016164	-1.513181	-0.395817	0.222340	0.590117
0.210	3.555622	2.601784	680.535765	3.905341	-1.256836	-0.409866	0.184683	0.573863
0.220	2.952960	2.478146	680.453022	3.783068	-0.950732	-0.419218	0.139720	0.555963
0.230	2.330309	2.371343	680.356586	3.658487	-0.600586	-0.421620	0.088275	0.537731
0.240	1.776826	2.285886	680.279318	3.541664	-0.215653	-0.417178	0.031701	0.520619
0.250	1.344368	2.221205	680.240215	3.439941	0.192830	-0.408475	-0.028347	0.505695
0.260	1.038012	2.170802	680.234688	3.354800	0.612048	-0.399447	-0.089976	0.493183
0.270	0.825530	2.122500	680.232716	3.280716	1.027499	-0.393636	-0.151051	0.482293
0.280	0.658157	2.060137	680.188296	3.206637	1.423271	-0.392643	-0.209247	0.471434
0.290	0.491957	1.966741	680.057797	3.119441	1.783210	-0.395494	-0.262214	0.458702
0.300	0.301556	1.828628	679.819389	3.007676	2.092677	-0.399115	-0.307828	0.442423
0.310	0.083448	1.639174	679.485583	2.863814	2.340024	-0.399593	-0.344382	0.421468
0.320	-0.148745	1.400737	679.105069	2.684393	2.517081	-0.393571	-0.370647	0.395284
0.330	-0.372152	1.123729	678.753890	2.468721	2.618663	-0.379238	-0.385804	0.363714
0.340	-0.561433	0.823117	678.518135	2.217554	2.641886	-0.356731	-0.389361	0.326823
0.350	-0.692972	0.513735	678.472050	1.932778	2.586202	-0.328092	-0.381180	0.284872
0.360	-0.747618	0.206394	678.656992	1.618244	2.454425	-0.296873	-0.361659	0.238448
0.370	-0.713601	-0.093419	679.066920	1.280953	2.254181	-0.267384	-0.331953	0.188634
0.380	-0.589656	-0.383558	679.645422	0.931388	1.998675	-0.243633	-0.294076	0.137040
0.390	-0.386765	-0.661116	680.297462	0.582197	1.705890	-0.228188	-0.250757	0.085580
0.400	-0.126921	-0.918915	680.914663	0.245394	1.396135	-0.221434	-0.205038	0.036039
0.410	0.161152	-1.145278	681.406170	-0.070787	1.088824	-0.221634	-0.159791	-0.010388
0.420	0.447768	-1.327656	681.722368	-0.363977	0.799824	-0.225845	-0.117324	-0.053391
0.430	0.707254	-1.458170	681.861368	-0.637900	0.540292	-0.231270	-0.079238	-0.093553
0.440	0.920385	-1.538105	681.857493	-0.900991	0.316988	-0.236347	-0.046489	-0.132138
0.450	1.074133	-1.579518	681.759705	-1.164293	0.133044	-0.241002	-0.019515	-0.170778
0.460	1.160472	-1.603968	681.609954	-1.439452	-0.011975	-0.246006	0.001757	-0.211184
0.470	1.176406	-1.639279	681.427935	-1.737136	-0.123190	-0.251868	0.018078	-0.254926
0.480	1.126084	-1.715191	681.205255	-2.065712	-0.211965	-0.257953	0.031116	-0.303244
0.490	1.024050	-1.858420	680.910740	-2.430021	-0.296494	-0.262347	0.043544	-0.356878
0.500	0.897532	-2.087672	680.506887	-2.830222	-0.400203	-0.262602	0.058810	-0.415899
0.510	0.785417	-2.409256	679.973330	-3.260926	-0.547668	-0.257016	0.080543	-0.479567
0.520	0.732133	-2.814074	679.328709	-3.710964	-0.758900	-0.245776	0.111713	-0.546269
0.530	0.776803	-3.277054	678.641366	-4.164284	-1.043740	-0.231261	0.153798	-0.613621
0.540	0.940997	-3.760131	678.022896	-4.602392	-1.398503	-0.217204	0.206262	-0.678796
0.550	1.220316	-4.219161	677.604706	-5.008141	-1.806499	-0.207032	0.266601	-0.739095
0.560	1.584268	-4.613801	677.503774	-5.369727	-2.242770	-0.202128	0.331034	-0.792575
0.570	1.985694	-4.917728	677.787874	-5.683130	-2.681769	-0.200813	0.395665	-0.838482
0.580	2.376902	-5.125680	678.451269	-5.951773	-3.105519	-0.198475	0.457736	-0.877259
0.590	2.726438	-5.254203	679.408805	-6.183507	-3.509430	-0.188844	0.516542	-0.910131
0.600	3.029710	-5.335092	680.510768	-6.386336	-3.903640	-0.165952	0.573634	-0.938462
0.610	3.309216	-5.403441	681.575010	-6.564678	-4.309337	-0.126179	0.632262	-0.963163
0.620	3.604601	-5.484706	682.428053	-6.717527	-4.751352	-0.069721	0.696242	-0.984357
0.630	3.956904	-5.585876	682.943923	-6.838986	-5.249692	-0.000999	0.768686	-1.001398
0.640	4.393113	-5.694447	683.069619	-6.920752	-5.812965	0.072168	0.851006	-1.013184
0.650	4.916442	-5.785694	682.830272	-6.955539	-6.435968	0.140395	0.942543	-1.018634
0.660	5.505294	-5.835105	682.314367	-6.940084	-7.102186	0.195026	1.040896	-1.017139
0.670	6.120815	-5.830427	681.646600	-6.876626	-7.790023	0.230223	1.142824	-1.008826
0.680	6.719913	-5.777853	680.958535	-6.772300	-8.480023	0.244274	1.245307	-0.994525
0.690	7.268589	-5.699627	680.364380	-6.636809	-9.159888	0.239734	1.346321	-0.975479
0.700	7.750459	-5.624329	679.944317	-6.479397	-9.825214	0.222403	1.445003	-0.952931
0.710	8.167561	-5.574368	679.735363	-6.306397	-10.475959	0.199515	1.541182	-0.927772
0.720	8.533950	-5.556118	679.729765	-6.120240	-11.110735	0.177767	1.634581	-0.900393
0.730	8.865414	-5.556518	679.881107	-5.920065	-11.722138	0.161746	1.724145	-0.870750
0.740	9.170140	-5.546979	680.117612	-5.703287	-12.295725	0.153103	1.807882	-0.838574
0.750	9.444604	-5.492653	680.360647	-5.467106	-12.813391	0.150584	1.883323	-0.803560
0.760	9.676534	-5.363594	680.544103	-5.209120	-13.259528	0.150858	1.948372	-0.765435
0.770	9.853198	-5.144042	680.628220	-4.926996	-13.626973	0.149872	2.002117	-0.723890
0.780	9.970469	-4.836789	680.602801	-4.617827	-13.919884	0.144330	2.045229	-0.678491
0.790	10.037772	-4.461284	680.480439	-4.277958	-14.152157	0.132765	2.079730	-0.628667
0.800	10.076032	-4.046524	680.285819	-3.903682	-14.342017	0.115836	2.108234	-0.573830
0.810	10.109414	-3.621879	680.047699	-3.492603	-14.505121	0.095835	2.132956	-0.513582
0.820	10.154809	-3.209431	679.796017	-3.045162	-14.649098	0.075694	2.154926	-0.447952
0.830	10.214190	-2.820185	679.561933	-2.565634	-14.771633	0.057941	2.173699	-0.377542
0.840	10.273466	-2.454446	679.376925	-2.062126	-14.862501	0.043948	2.187666	-0.303532
0.850	10.308239	-2.105307	679.268967	-1.545540	-14.908127	0.033680	2.194731	-0.227530
0.860	10.293376	-1.763616	679.256918	-1.027838	-14.896221	0.025969	2.193017	-0.151318
0.870	10.211355	-1.422788	679.345706	-0.520117	-14.818251	0.019188	2.181253	-0.076561
0.880	10.055216	-1.081772	679.523999	-0.030764	-14.668954	0.011988	2.158710	-0.004527
0.890	9.825252	-0.745115	679.764919	0.436182	-14.443759	0.003738	2.124817	0.064167
0.900	9.522248	-0.420287	680.030137	0.882247	-14.136070	-0.005559	2.078742	0.129736
0.910	9.141790	-0.113585	680.277198	1.314703	-13.736254	-0.015762	2.019214	0.193260
0.920	8.673202	0.173587	680.468552	1.745062	-13.233215	-0.027138	1.944721	0.256450
0.930	8.103929	0.446626	680.579800	2.185768	-12.618341	-0.040533	1.854058	0.321163
0.940	7.427348	0.717017	680.604681	2.645927	-11.890721	-0.056971	1.747082	0.388761
0.950	6.650646	0.998965	680.554674	3.127581	-11.062162	-0.076837	1.625463	0.459564
0.960	5.799606	1.304249	680.452662	3.623996	-10.160378	-0.099080	1.493179	0.532586
0.970	4.918328	1.637008	680.323399	4.120724	-9.228971	-0.120939	1.356556	0.605701
0.980	4.063416	1.990527	680.186215	4.599126	-8.323404	-0.138498	1.223695	0.676157
0.990	3.293897	2.347589	680.053836	5.041138	-7.503232	-0.147957	1.103329	0.741285
1.000	2.659724	2.684511	679.936187	5.433603	-6.822173	-0.147147	1.003355	0.799134
1.010	2.192522	2.977362	679.844382	5.770706	-6.318699	-0.136624	0.929433	0.848827
1.020	1.901892	3.207941	679.790828	6.053887	-6.009982	-0.119770	0.884093	0.890551
1.030	1.778829	3.367453	679.785158	6.289710	-5.890997	-0.101744	0.866597	0.925250
1.040	1.804876	3.457182	679.829202	6.486893	-5.938593	-0.087721	0.873542	0.954195
1.050	1.962659	3.486948	679.914893	6.653808	-6.118467	-0.081186	0.899887	0.978624
1.060	2.242042	3.472786	680.027121	6.797167	-6.392200	-0.083044	0.939992	0.999544
1.070	2.637531	3.434792	680.150718	6.921834	-6.722158	-0.091819	0.988334	1.017691
1.080	3.137003	3.395005	680.278535	7.031124	-7.073671	-0.104687	1.039820	1.033565
1.090	3.707595	3.374489	680.416378	7.126983	-7.415585	-0.118742	1.089860	1.047444
1.100	4.288301	3.389164	680.581037	7.209820	-7.721055	-0.131971	1.134480	1.059362
1.110	4.797012	3.445285	680.790673	7.278330	-7.969833	-0.143626	1.170673	1.069100
1.120	5.152580	3.536604	681.051429	7.329846	-8.151693	-0.153977	1.196928	1.076254
1.130	5.303872	3.645314	681.346992	7.361552	-8.269211	-0.163694	1.213656	1.080441
1.140	5.252533	3.747364	681.636624	7.372244	-8.337699	-0.173262	1.223188	1.081550
1.150	5.057593	3.820425	681.862999	7.363691	-8.381102	-0.182787	1.229147	1.079937
1.160	4.817690	3.851140	681.966971	7.340688	-8.424514	-0.192217	1.235326	1.076399
1.170	4.636822	3.838439	681.904229	7.309460	-8.485834	-0.201758	1.244432	1.071919
1.180	4.587094	3.791593	681.658715	7.274979	-8.569890	-0.212101	1.257211	1.067246
1.190	4.683347	3.724397	681.248808	7.238224	-8.667472	-0.224239	1.272292	1.062493
1.200	4.879518	3.648709	680.724129	7.194502	-8.759568	-0.238905	1.286801	1.056890
1.210	5.087557	3.570308	680.154049	7.133598	-8.824834	-0.255949	1.297476	1.048821
1.220	5.210816	3.487977	679.612420	7.041861	-8.847272	-0.274090	1.301811	1.036158
1.230	5.178648	3.394604	679.164115	6.905538	-8.821359	-0.291239	1.298855	1.016770
1.240	4.969551	3.278549	678.856721	6.714100	-8.753300	-0.305285	1.289418	0.989030
1.250	4.615785	3.124700	678.717701	6.462392	-8.658795	-0.314915	1.275758	0.952147
1.260	4.190220	2.916105	678.755540	6.151113	-8.559043	-0.320081	1.260991	0.906234
1.270	3.782498	2.637493	678.962615	5.785906	-8.476918	-0.321909	1.248510	0.852169
1.280	3.474122	2.280819	679.317524	5.375810	-8.434406	-0.322163	1.241600	0.791355
1.290	3.320584	1.851018	679.785737	4.931710	-8.451148	-0.322545	1.243208	0.725480
1.300	3.344419	1.368900	680.319561	4.465066	-8.543157	-0.324168	1.255757	0.656319
1.310	3.538126	0.868665	680.860133	3.986866	-8.720767	-0.327397	1.280846	0.585563
1.320	3.872678	0.389988	681.344141	3.506765	-8.985766	-0.331999	1.318829	0.514683
1.330	4.306886	-0.032566	681.715232	3.032509	-9.328874	-0.337398	1.368442	0.444835
1.340	4.794912	-0.378543	681.936146	2.569807	-9.729510	-0.342841	1.426748	0.376840
1.350	5.291831	-0.645841	681.995618	2.122647	-10.159282	-0.347394	1.489640	0.311241
1.360	5.758543	-0.849418	681.906219	1.693861	-10.588888	-0.349852	1.552836	0.248401
1.370	6.166796	-1.015729	681.694251	1.285729	-10.996064	-0.348668	1.613049	0.188608
1.380	6.503430	-1.174848	681.387050	0.900431	-11.371180	-0.342026	1.668828	0.132147
1.390	6.771806	-1.352139	681.004212	0.540247	-11.717923	-0.328120	1.720683	0.079331
1.400	6.988881	-1.561363	680.557301	0.207423	-12.048690	-0.305551	1.770415	0.030478
1.410	7.178157	-1.801115	680.058504	-0.096332	-12.376804	-0.273740	1.819962	-0.014165
1.420	7.360774	-2.056011	679.533736	-0.370653	-12.709109	-0.233182	1.870269	-0.054545
1.430	7.548058	-2.302846	679.032386	-0.617327	-13.042209	-0.185402	1.920705	-0.090913
1.440	7.738504	-2.519982	678.626201	-0.840671	-13.363760	-0.132592	1.969237	-0.123878
1.450	7.920328	-2.696411	678.394104	-1.047091	-13.657759	-0.077111	2.013249	-0.154349
1.460	8.078222	-2.836314	678.396642	-1.243672	-13.910947	-0.021115	2.050562	-0.183325
1.470	8.200853	-2.956632	678.650328	-1.436083	-14.117166	0.033472	2.080183	-0.211609
1.480	8.285505	-3.078574	679.114538	-1.626465	-14.277922	0.084707	2.102432	-0.239498
1.490	8.337988	-3.217100	679.699062	-1.812220	-14.399421	0.130317	2.118499	-0.266621
1.500	8.368548	-3.373291	680.290242	-1.986444	-14.487981	0.167610	2.129676	-0.292000
1.510	8.386372	-3.532976	680.783726	-2.140106	-14.546092	0.193805	2.136669	-0.314359
1.520	8.395615	-3.672077	681.109207	-2.265223	-14.570868	0.206775	2.139285	-0.332578
1.530	8.394800	-3.766240	681.238884	-2.357615	-14.555481	0.205968	2.136619	-0.346078
1.540	8.379533	-3.800638	681.181654	-2.417931	-14.492887	0.193063	2.127610	-0.354961
1.550	8.346680	-3.776003	680.971454	-2.450436	-14.380183	0.171974	2.111716	-0.359844
1.560	8.297309	-3.708550	680.657744	-2.460256	-14.221687	0.148091	2.089404	-0.361453
1.570	8.236713	-3.623864	680.301165	-2.450509	-14.029364	0.126905	2.062228	-0.360209
1.580	8.172006	-3.547058	679.972066	-2.420669	-13.820219	0.112460	2.032469	-0.355995
1.590	8.109306	-3.493039	679.746225	-2.366681	-13.611353	0.106162	2.002417	-0.348171
1.600	8.052050	-3.460778	679.692668	-2.282470	-13.414338	0.106479	1.973589	-0.335809
1.610	8.000342	-3.433859	679.853615	-2.162053	-13.231193	0.109768	1.946183	-0.318017
1.620	7.950488	-3.386900	680.223816	-2.001586	-13.053921	0.111958	1.919063	-0.294254
1.630	7.894736	-3.295042	680.740528	-1.800912	-12.868239	0.110319	1.890329	-0.264552
1.640	7.822420	-3.142804	681.292306	-1.564312	-12.660112	0.104469	1.858250	-0.229610
1.650	7.723633	-2.929272	681.746225	-1.300120	-12.422328	0.096202	1.822134	-0.190704
1.660	7.594789	-2.668252	681.984357	-1.019199	-12.158270	0.088368	1.782778	-0.149446
1.670	7.443244	-2.383989	681.936427	-0.732866	-11.881289	0.083465	1.742287	-0.107468
1.680	7.287227	-2.104582	681.598179	-0.451155	-11.609901	0.082495	1.703335	-0.066191
1.690	7.149063	-1.855651	681.031676	-0.181967	-11.360673	0.084437	1.668156	-0.026719
1.700	7.043730	-1.655969	680.350076	0.069014	-11.141700	0.086423	1.637642	0.010144
1.710	6.968689	-1.515475	679.692273	0.298124	-10.949501	0.084561	1.610950	0.043862
1.720	6.901529	-1.435052	679.192365	0.503697	-10.770850	0.075163	1.585832	0.074161
1.730	6.808431	-1.407102	678.948350	0.686264	-10.588864	0.056001	1.559598	0.101077
1.740	6.660466	-1.416337	678.996170	0.848713	-10.390624	0.027138	1.530292	0.124995
1.750	6.449931	-1.441046	679.297540	0.996072	-10.172836	-0.008966	1.497552	0.146633
1.760	6.198027	-1.455576	679.749133	1.134874	-9.942961	-0.048174	1.462740	0.166955
1.770	5.949033	-1.434259	680.214396	1.272317	-9.715435	-0.085960	1.428290	0.187046
1.780	5.752847	-1.356176	680.569263	1.415441	-9.504779	-0.118793	1.396592	0.207979
1.790	5.643636	-1.209657	680.744456	1.570418	-9.318737	-0.145067	1.368904	0.230691
1.800	5.624308	-0.995481	680.746082	1.741957	-9.154388	-0.165258	1.344758	0.255889
1.810	5.663848	-0.727667	680.645211	1.932911	-8.998807	-0.181310	1.322099	0.283982
1.820	5.708902	-0.430815	680.541903	2.144110	-8.833874	-0.195573	1.298065	0.315059
1.830	5.704655	-0.133673	680.520995	2.374357	-8.643141	-0.209777	1.270077	0.348903
1.840	5.615910	0.139412	680.619296	2.620381	-8.417802	-0.224424	1.236786	0.385000
1.850	5.439158	0.375701	680.815952	2.876633	-8.159347	-0.238711	1.198466	0.422527
1.860	5.200677	0.576302	681.045780	3.135038	-7.877947	-0.250948	1.156743	0.460327
1.870	4.942356	0.752037	681.226474	3.385065	-7.587565	-0.259253	1.113809	0.496907
1.880	4.702799	0.914870	681.288080	3.614528	-7.300194	-0.262311	1.071528	0.530543
1.890	4.502999	1.069289	681.195181	3.811199	-7.021845	-0.259911	1.030812	0.559487
1.900	4.342565	1.208017	680.956496	3.964858	-6.751833	-0.253042	0.991522	0.582248
1.910	4.206259	1.314163	680.620939	4.069140	-6.485113	-0.243515	0.952823	0.597857
1.920	4.075353	1.368722	680.262462	4.122629	-6.215934	-0.233332	0.913755	0.606035
1.930	3.937056	1.359885	679.957938	4.128939	-5.940779	-0.224133	0.873698	0.607235
1.940	3.787912	1.289835	679.764103	4.095858	-5.659359	-0.216934	0.832547	0.602541
1.950	3.631131	1.175939	679.701044	4.033787	-5.373802	-0.212191	0.790613	0.593465
1.960	3.470844	1.045764	679.748701	3.953809	-5.087172	-0.210049	0.748390	0.581657
1.970	3.307203	0.928067	679.857903	3.865775	-4.802595	-0.210574	0.706412	0.568615
1.980	3.135476	0.843540	679.971135	3.776840	-4.523595	-0.213785	0.665263	0.555441
1.990	2.950297	0.798955	680.044454	3.690797	-4.255311	-0.219454	0.625740	0.542729
2.000	2.753486	0.786798	680.062130	3.608298	-4.005613	-0.226738	0.589007	0.530584
2.010	2.561130	0.789967	680.039141	3.527687	-3.785028	-0.233891	0.556590	0.518748
2.020	2.404657	0.789022	680.011756	3.445984	-3.604861	-0.238317	0.530117	0.506754
2.030	2.322986	0.768664	680.021177	3.359704	-3.473835	-0.237112	0.510842	0.494059
2.040	2.347589	0.721015	680.097472	3.265540	-3.394533	-0.227936	0.499124	0.480158
2.050	2.486778	0.645201	680.249850	3.161014	-3.361292	-0.209872	0.494126	0.464684
2.060	2.716774	0.544534	680.465412	3.044951	-3.360679	-0.183898	0.493880	0.447481
2.070	2.984472	0.423359	680.714238	2.917415	-3.374540	-0.152754	0.495735	0.428581
2.080	3.221802	0.285273	680.956916	2.779002	-3.384632	-0.120211	0.497041	0.408103
2.090	3.366741	0.133255	681.151814	2.630041	-3.377270	-0.089983	0.495818	0.386117
2.100	3.383312	-0.029148	681.261479	2.470480	-3.346394	-0.064699	0.491205	0.362633
2.110	3.272985	-0.197023	681.258546	2.300874	-3.293922	-0.045351	0.483505	0.337739
2.120	3.072907	-0.364581	681.131154	2.123999	-3.227250	-0.031436	0.473807	0.311834
2.130	2.841337	-0.526593	680.886514	1.946110	-3.154955	-0.021737	0.463360	0.285820
2.140	2.635848	-0.679715	680.550424	1.776804	-3.082640	-0.015345	0.452963	0.261083
2.150	2.493053	-0.822862	680.161874	1.627097	-3.010850	-0.012390	0.442667	0.239222
2.160	2.418292	-0.956445	679.765448	1.506246	-2.935887	-0.014031	0.431897	0.221583
2.170	2.389386	-1.080819	679.406476	1.418639	-2.852791	-0.021688	0.419895	0.208806
2.180	2.371957	-1.194431	679.131252	1.362117	-2.758723	-0.035920	0.406213	0.200568
2.190	2.338119	-1.292405	678.988490	1.328426	-2.654972	-0.055606	0.391019	0.195648
2.200	2.279120	-1.366536	679.025149	1.305526	-2.546728	-0.077872	0.375056	0.192265
2.210	2.206284	-1.407451	679.273724	1.280856	-2.441013	-0.098809	0.359356	0.188563
2.220	2.141174	-1.408668	679.734992	1.244455	-2.344095	-0.114613	0.344854	0.183079
2.230	2.101441	-1.371001	680.363450	1.191057	-2.259895	-0.122664	0.332160	0.175062
2.240	2.090694	-1.305249	681.061757	1.120615	-2.190255	-0.122177	0.321594	0.164539
2.250	2.097881	-1.231626	681.688879	1.037280	-2.136810	-0.114305	0.313458	0.152163
2.260	2.106091	-1.175692	682.084714	0.947436	-2.103219	-0.101744	0.308352	0.138903
2.270	2.105503	-1.161886	682.109792	0.857666	-2.096197	-0.087973	0.307311	0.125737
2.280	2.103074	-1.206698	681.691568	0.773419	-2.124424	-0.076343	0.311640	0.113456
2.290	2.123226	-1.313695	680.861871	0.698535	-2.195485	-0.069213	0.322457	0.102596
2.300	2.198441	-1.471952	679.767971	0.635302	-2.312045	-0.067377	0.340123	0.093459
2.310	2.353862	-1.658342	678.646158	0.584560	-2.468991	-0.069949	0.363811	0.086136
2.320	2.593081	-1.842978	677.761273	0.545602	-2.653022	-0.074828	0.391439	0.080501
2.330	2.891709	-1.996414	677.331560	0.516008	-2.845247	-0.079643	0.420067	0.076182
2.340	3.201977	-2.096931	677.466106	0.491691	-3.026100	-0.082856	0.446679	0.072578
2.350	3.467059	-2.136107	678.137032	0.467501	-3.180882	-0.084558	0.469062	0.068939
2.360	3.640291	-2.120918	679.193615	0.438405	-3.303975	-0.086580	0.486455	0.064548
2.370	3.702747	-2.071292	680.408941	0.400926	-3.400275	-0.091879	0.499740	0.058924
2.380	3.672725	-2.013691	681.540202	0.354286	-3.483347	-0.103459	0.511099	0.051983
2.390	3.602602	-1.973018	682.383978	0.300845	-3.570918	-0.123222	0.523300	0.044087
