Time[s]	Fx[N]	Fy[N]	Fz[N]	Mx[Nm]	My[Nm]	Mz[Nm]	COPx[cm]	COPy[cm]
0.010	0.957497	-9.229712	612.053931	3.280814	-8.211177	-0.660970	1.341577	0.536034
0.020	0.933335	-9.032094	611.462922	3.417944	-8.131191	-0.673989	1.329793	0.558978
0.030	0.895820	-8.843181	610.944705	3.563841	-8.046359	-0.685894	1.317036	0.583333
0.040	0.836689	-8.670957	610.561060	3.724049	-7.953602	-0.695755	1.302671	0.609939
0.050	0.754771	-8.521150	610.356088	3.899823	-7.852173	-0.703070	1.286490	0.638942
0.060	0.655835	-8.395740	610.352202	4.089099	-7.743676	-0.707925	1.268723	0.669957
0.070	0.549553	-8.291419	610.551830	4.288286	-7.631154	-0.710954	1.249878	0.702362
0.080	0.444790	-8.198811	610.944027	4.493227	-7.517666	-0.713051	1.230500	0.735456
0.090	0.345318	-8.103587	611.512941	4.698749	-7.405027	-0.714914	1.210935	0.768381
0.100	0.248015	-7.990142	612.243897	4.897589	-7.293176	-0.716711	1.191221	0.799941
0.110	0.144222	-7.847296	613.123561	5.080136	-7.180365	-0.718088	1.171112	0.828566
0.120	0.023094	-7.674006	614.133920	5.236031	-7.063945	-0.718542	1.150229	0.852588
0.130	-0.124813	-7.482239	615.243904	5.357469	-6.941519	-0.717898	1.128255	0.870788
0.140	-0.304580	-7.294857	616.404436	5.442667	-6.812152	-0.716570	1.105143	0.882970
0.150	-0.514715	-7.138820	617.550795	5.497492	-6.677337	-0.715385	1.081261	0.890209
0.160	-0.745990	-7.036624	618.612073	5.534127	-6.541384	-0.715059	1.057429	0.894604
0.170	-0.982172	-6.999848	619.523713	5.567352	-6.410993	-0.715626	1.034826	0.898650
0.180	-1.202987	-7.027125	620.237676	5.610120	-6.294019	-0.716151	1.014775	0.904511
0.190	-1.388548	-7.106323	620.726486	5.670038	-6.197765	-0.714924	0.998470	0.913452
0.200	-1.523568	-7.218974	620.981054	5.747747	-6.127359	-0.710096	0.986722	0.925591
0.210	-1.599826	-7.344948	621.005153	5.837615	-6.084791	-0.700474	0.979829	0.940027
0.220	-1.616331	-7.466256	620.810051	5.930477	-6.068967	-0.686157	0.977588	0.955280
0.230	-1.577822	-7.569589	620.411705	6.017286	-6.076596	-0.668749	0.979446	0.969886
0.240	-1.492808	-7.647469	619.831119	6.092062	-6.103334	-0.651080	0.984677	0.982858
0.250	-1.372054	-7.697976	619.096789	6.152940	-6.144652	-0.636535	0.992519	0.993858
0.260	-1.227627	-7.723322	618.246968	6.201255	-6.196371	-0.628168	1.002248	1.003038
0.270	-1.071885	-7.727864	617.329216	6.239540	-6.255159	-0.627867	1.013261	1.010731
0.280	-0.915865	-7.716466	616.395855	6.269714	-6.319067	-0.635852	1.025164	1.017157
0.290	-0.767401	-7.694076	615.496366	6.292368	-6.387699	-0.650650	1.037813	1.022324
0.300	-0.630133	-7.666557	614.670170	6.307142	-6.461580	-0.669554	1.051227	1.026102
0.310	-0.504296	-7.641719	613.943518	6.313441	-6.540870	-0.689339	1.065386	1.028342
0.320	-0.388957	-7.629154	613.331910	6.310768	-6.624211	-0.707028	1.080037	1.028932
0.330	-0.284338	-7.638351	612.846261	6.298629	-6.708478	-0.720488	1.094643	1.027767
0.340	-0.192864	-7.675829	612.499130	6.276578	-6.789610	-0.728778	1.108509	1.024749
0.350	-0.118504	-7.742587	612.307278	6.244793	-6.864004	-0.732196	1.121007	1.019879
0.360	-0.064906	-7.832894	612.288126	6.204894	-6.929687	-0.732053	1.131769	1.013394
0.370	-0.033357	-7.934842	612.450432	6.160231	-6.986701	-0.730230	1.140778	1.005833
0.380	-0.021611	-8.032560	612.783629	6.115121	-7.036647	-0.728678	1.148309	0.997925
0.390	-0.024239	-8.109602	613.252880	6.073307	-7.081689	-0.728979	1.154775	0.990343
0.400	-0.034524	-8.152687	613.804845	6.036543	-7.123605	-0.732064	1.160565	0.983463
0.410	-0.046995	-8.154983	614.383093	6.004121	-7.163409	-0.738113	1.165952	0.977260
0.420	-0.059029	-8.118235	614.946134	5.973623	-7.201707	-0.746652	1.171112	0.971406
0.430	-0.070162	-8.053200	615.479124	5.942571	-7.239532	-0.756805	1.176243	0.965520
0.440	-0.079148	-7.977934	615.992964	5.910080	-7.279059	-0.767550	1.181679	0.959440
0.450	-0.080674	-7.913945	616.510065	5.877498	-7.323623	-0.777889	1.187916	0.953350
0.460	-0.064421	-7.880963	617.041915	5.847633	-7.376865	-0.786909	1.195521	0.947688
0.470	-0.018110	-7.891686	617.568153	5.823044	-7.441351	-0.793811	1.204944	0.942899
0.480	0.066368	-7.948023	618.028062	5.804417	-7.517407	-0.797941	1.216354	0.939183
0.490	0.187002	-8.040121	618.331263	5.789869	-7.602759	-0.798831	1.229561	0.936370
0.500	0.329752	-8.148878	618.385445	5.775436	-7.693117	-0.796261	1.244065	0.933954
0.510	0.472646	-8.251487	618.129939	5.756510	-7.783358	-0.790324	1.259178	0.931278
0.520	0.594375	-8.328247	617.560410	5.729657	-7.868771	-0.781502	1.274170	0.927789
0.530	0.682916	-8.368287	616.734440	5.694169	-7.945957	-0.770693	1.288392	0.923277
0.540	0.739601	-8.372317	615.757273	5.652734	-8.013351	-0.759117	1.301382	0.918013
0.550	0.776769	-8.351569	614.755263	5.610852	-8.071432	-0.748068	1.312950	0.912697
0.560	0.810771	-8.323272	613.847259	5.575156	-8.122586	-0.738604	1.323226	0.908232
0.570	0.854268	-8.304240	613.122023	5.551230	-8.170486	-0.731285	1.332604	0.905404
0.580	0.911432	-8.305004	612.625938	5.541692	-8.218980	-0.726090	1.341599	0.904580
0.590	0.977580	-8.326808	612.361554	5.545264	-8.270780	-0.722559	1.350637	0.905554
0.600	1.042347	-8.362436	612.294815	5.557227	-8.326318	-0.720097	1.359854	0.907606
0.610	1.094072	-8.400090	612.367367	5.571151	-8.383151	-0.718310	1.368974	0.909773
0.620	1.123264	-8.428250	612.510307	5.581119	-8.436112	-0.717206	1.377301	0.911188
0.630	1.124199	-8.439368	612.656633	5.583469	-8.478238	-0.717153	1.383848	0.911354
0.640	1.095056	-8.431227	612.751441	5.577372	-8.502327	-0.718577	1.387565	0.910218
0.650	1.037717	-8.406093	612.760503	5.564356	-8.502796	-0.721558	1.387621	0.908080
0.660	0.957985	-8.368733	612.677631	5.547247	-8.477320	-0.725543	1.383651	0.905410
0.670	0.865988	-8.324671	612.529151	5.529023	-8.427648	-0.729381	1.375877	0.902655
0.680	0.775546	-8.279532	612.371842	5.511836	-8.359183	-0.731713	1.365050	0.900080
0.690	0.701426	-8.239428	612.281136	5.496362	-8.279317	-0.731533	1.352208	0.897686
0.700	0.654584	-8.211564	612.330307	5.481644	-8.195170	-0.728673	1.338358	0.895210
0.710	0.637216	-8.204073	612.566958	5.465452	-8.111675	-0.724009	1.324210	0.892221
0.720	0.640312	-8.224495	612.996015	5.444993	-8.030746	-0.719319	1.310081	0.888259
0.730	0.645520	-8.277256	613.576140	5.417670	-7.951621	-0.716784	1.295947	0.882966
0.740	0.630883	-8.361338	614.230773	5.381613	-7.871952	-0.718311	1.281595	0.876155
0.750	0.578053	-8.469472	614.869597	5.335862	-7.789010	-0.724890	1.266774	0.867804
0.760	0.478053	-8.589404	615.413018	5.280333	-7.700565	-0.736294	1.251284	0.858015
0.770	0.333683	-8.706788	615.811607	5.215758	-7.605291	-0.751195	1.235003	0.846973
0.780	0.158337	-8.808745	616.054812	5.143625	-7.502894	-0.767609	1.217894	0.834930
0.790	-0.027787	-8.887195	616.167777	5.065971	-7.394242	-0.783455	1.200037	0.822174
0.800	-0.202641	-8.941099	616.199475	4.984909	-7.281700	-0.797058	1.181711	0.808977
0.810	-0.347199	-8.976787	616.207251	4.902109	-7.169513	-0.807467	1.163491	0.795529
0.820	-0.449353	-9.005942	616.242277	4.818572	-7.063893	-0.814462	1.146285	0.781928
0.830	-0.506244	-9.041646	616.338759	4.734896	-6.972421	-0.818292	1.131264	0.768229
0.840	-0.524622	-9.093723	616.508545	4.651854	-6.902681	-0.819286	1.119641	0.754548
0.850	-0.518878	-9.165009	616.741832	4.570934	-6.860422	-0.817619	1.112365	0.741142
0.860	-0.506782	-9.250048	617.012813	4.494506	-6.847943	-0.813313	1.109854	0.728430
0.870	-0.503910	-9.336897	617.287075	4.425573	-6.863326	-0.806443	1.111853	0.716939
0.880	-0.518797	-9.411315	617.527283	4.367239	-6.900807	-0.797361	1.117490	0.707214
0.890	-0.550877	-9.461618	617.695755	4.322066	-6.952092	-0.786786	1.125488	0.699708
0.900	-0.591889	-9.482276	617.755085	4.291544	-7.008210	-0.775670	1.134464	0.694700
0.910	-0.629718	-9.475015	617.669239	4.275883	-7.061359	-0.764910	1.143227	0.692261
0.920	-0.652743	-9.447265	617.407435	4.274266	-7.106314	-0.755079	1.150993	0.692293
0.930	-0.652973	-9.408868	616.951994	4.285415	-7.141050	-0.746347	1.157473	0.694611
0.940	-0.626988	-9.368567	616.309228	4.308176	-7.166569	-0.738606	1.162820	0.699028
0.950	-0.574737	-9.331576	615.519328	4.341837	-7.186152	-0.731655	1.167494	0.705394
0.960	-0.497359	-9.298844	614.659303	4.386082	-7.204296	-0.725266	1.172080	0.713579
0.970	-0.395781	-9.267812	613.834344	4.440671	-7.225570	-0.719093	1.177120	0.723431
0.980	-0.271162	-9.234002	613.157496	4.504986	-7.253565	-0.712552	1.182986	0.734719
0.990	-0.126742	-9.192789	612.722950	4.577633	-7.290143	-0.704806	1.189794	0.747097
1.000	0.030458	-9.141012	612.581713	4.656193	-7.335087	-0.694925	1.197406	0.760093
1.010	0.189444	-9.078112	612.728328	4.737314	-7.386235	-0.682175	1.205467	0.773151
1.020	0.336842	-9.006420	613.103785	4.817317	-7.440088	-0.666379	1.213512	0.785726
1.030	0.459634	-8.930245	613.613994	4.893306	-7.492788	-0.648268	1.221091	0.797457
1.040	0.548021	-8.854052	614.157321	4.964360	-7.541148	-0.629611	1.227885	0.808321
1.050	0.597650	-8.780683	614.651306	5.032177	-7.583376	-0.612970	1.233769	0.818704
1.060	0.610798	-8.710652	615.049690	5.100669	-7.619204	-0.601003	1.238795	0.829310
1.070	0.596277	-8.642717	615.345212	5.174601	-7.649488	-0.595519	1.243121	0.840927
1.080	0.567792	-8.575054	615.558988	5.257874	-7.675494	-0.596696	1.246914	0.854163
1.090	0.540594	-8.506143	615.721741	5.352149	-7.698224	-0.602894	1.250276	0.869248
1.100	0.527047	-8.434837	615.854894	5.456266	-7.718008	-0.611241	1.253219	0.885966
1.110	0.532768	-8.359708	615.959626	5.566553	-7.734466	-0.618750	1.255677	0.903720
1.120	0.555304	-8.278285	616.018373	5.677840	-7.746787	-0.623397	1.257558	0.921700
1.130	0.586146	-8.187034	616.006964	5.784940	-7.754171	-0.624685	1.258780	0.939103
1.140	0.614915	-8.082537	615.909982	5.884168	-7.756267	-0.623580	1.259318	0.955362
1.150	0.633437	-7.963458	615.731067	5.974390	-7.753479	-0.622017	1.259231	0.970292
1.160	0.637985	-7.832242	615.494062	6.057022	-7.747033	-0.622231	1.258669	0.984091
1.170	0.629411	-7.695576	615.236293	6.134841	-7.738779	-0.626064	1.257855	0.997152
1.180	0.611997	-7.563314	614.997984	6.210144	-7.730792	-0.634404	1.257043	1.009783
1.190	0.591910	-7.446207	614.811702	6.283271	-7.724847	-0.646880	1.256457	1.021983
1.200	0.575562	-7.353239	614.695191	6.352245	-7.722002	-0.661944	1.256233	1.033398
1.210	0.567979	-7.289409	614.650138	6.413664	-7.722459	-0.677351	1.256399	1.043466
1.220	0.571561	-7.254726	614.667080	6.464316	-7.725767	-0.690941	1.256903	1.051678
1.230	0.585656	-7.244791	614.733549	6.502639	-7.731238	-0.701395	1.257657	1.057798
1.240	0.607006	-7.252647	614.841207	6.529264	-7.738374	-0.708614	1.258597	1.061943
1.250	0.630785	-7.270812	614.988681	6.546495	-7.747137	-0.713573	1.259720	1.064490
1.260	0.651931	-7.292495	615.178903	6.557293	-7.757946	-0.717810	1.261088	1.065916
1.270	0.666399	-7.311824	615.412245	6.564483	-7.771449	-0.722841	1.262804	1.066681
1.280	0.671999	-7.323784	615.678697	6.570424	-7.788247	-0.729792	1.264986	1.067184
1.290	0.668659	-7.324539	615.952640	6.576813	-7.808688	-0.739255	1.267742	1.067747
1.300	0.658185	-7.312117	616.192604	6.584240	-7.832737	-0.751258	1.271151	1.068536
1.310	0.643625	-7.286968	616.347264	6.591525	-7.859877	-0.765226	1.275235	1.069450
1.320	0.628316	-7.252028	616.367923	6.595305	-7.889133	-0.779950	1.279939	1.070027
1.330	0.614975	-7.212240	616.225393	6.590460	-7.919362	-0.793696	1.285140	1.069488
1.340	0.605425	-7.173546	615.925309	6.571619	-7.949724	-0.804539	1.290696	1.066951
1.350	0.601225	-7.141478	615.513102	6.535253	-7.980015	-0.810884	1.296482	1.061757
1.360	0.604730	-7.119799	615.062760	6.481288	-8.010550	-0.812011	1.302396	1.053760
1.370	0.619649	-7.110008	614.652562	6.413288	-8.041600	-0.808423	1.308316	1.043401
1.380	0.650433	-7.112409	614.339760	6.337019	-8.072752	-0.801798	1.314053	1.031517
1.390	0.700545	-7.128527	614.146404	6.257981	-8.102594	-0.794522	1.319326	1.018972
1.400	0.770307	-7.163471	614.060024	6.178963	-8.128895	-0.788955	1.323795	1.006247
1.410	0.855214	-7.226331	614.044050	6.098663	-8.149101	-0.786803	1.327120	0.993196
1.420	0.945558	-7.327491	614.050491	6.011982	-8.160840	-0.788828	1.329018	0.979070
1.430	1.027798	-7.473490	614.030609	5.911848	-8.162193	-0.794943	1.329281	0.962794
1.440	1.087496	-7.661801	613.943207	5.791737	-8.151624	-0.804440	1.327749	0.943367
1.450	1.112957	-7.878516	613.762028	5.647867	-8.127731	-0.816160	1.324248	0.920205
1.460	1.098479	-8.100774	613.483343	5.480350	-8.089118	-0.828588	1.318555	0.893317
1.470	1.046035	-8.303251	613.132559	5.293225	-8.034667	-0.840076	1.310429	0.863308
1.480	0.964696	-8.465897	612.766316	5.093774	-7.964214	-0.849250	1.299715	0.831275
1.490	0.867956	-8.579512	612.466390	4.891573	-7.879343	-0.855475	1.286494	0.798668
1.500	0.770111	-8.646896	612.324672	4.697403	-7.783869	-0.859069	1.271200	0.767142
1.510	0.682989	-8.679503	612.422201	4.521826	-7.683645	-0.861074	1.254632	0.738351
1.520	0.613655	-8.691606	612.807679	4.373363	-7.585581	-0.862600	1.237840	0.713660
1.530	0.563122	-8.694983	613.481766	4.256624	-7.496122	-0.864075	1.221898	0.693847
1.540	0.526305	-8.696377	614.392568	4.171058	-7.419767	-0.864843	1.207659	0.678891
1.550	0.493759	-8.698215	615.444459	4.110910	-7.358281	-0.863389	1.195604	0.667958
1.560	0.455217	-8.701413	616.517468	4.066513	-7.310896	-0.858118	1.185838	0.659594
1.570	0.403630	-8.708415	617.490818	4.026583	-7.275267	-0.848217	1.178198	0.652088
1.580	0.337819	-8.724723	618.263824	3.980851	-7.248558	-0.834177	1.172405	0.643876
1.590	0.262615	-8.757990	618.769795	3.922319	-7.228173	-0.817699	1.168152	0.633890
1.600	0.186933	-8.814912	618.981733	3.848591	-7.211930	-0.801109	1.165128	0.621762
1.610	0.121072	-8.897274	618.910584	3.762026	-7.197850	-0.786571	1.162987	0.607846
1.620	0.074521	-8.999008	618.597225	3.668746	-7.183973	-0.775421	1.161333	0.593075
1.630	0.054698	-9.105839	618.099933	3.576768	-7.168556	-0.767889	1.159773	0.578672
1.640	0.066162	-9.198193	617.480561	3.493642	-7.150650	-0.763254	1.158036	0.565790
1.650	0.109645	-9.256826	616.793661	3.424272	-7.130556	-0.760261	1.156068	0.555173
1.660	0.180922	-9.269315	616.081479	3.369648	-7.109640	-0.757544	1.154010	0.546948
1.670	0.270403	-9.234727	615.374461	3.326934	-7.089403	-0.753893	1.152047	0.540636
1.680	0.364355	-9.164211	614.694174	3.290737	-7.070333	-0.748365	1.150220	0.535345
1.690	0.447730	-9.077076	614.055239	3.254923	-7.051194	-0.740315	1.148300	0.530070
1.700	0.507612	-8.994209	613.465525	3.214291	-7.029081	-0.729448	1.145799	0.523956
1.710	0.535977	-8.931944	612.927087	3.165653	-7.000096	-0.715901	1.142077	0.516481
1.720	0.530825	-8.898947	612.440893	3.108137	-6.960283	-0.700289	1.136482	0.507500
1.730	0.495482	-8.896707	612.015047	3.042787	-6.906441	-0.683662	1.128476	0.497175
1.740	0.436632	-8.922245	611.672077	2.971727	-6.836676	-0.667350	1.117703	0.485837
1.750	0.362008	-8.970888	611.450065	2.897232	-6.750735	-0.652732	1.104053	0.473830
1.760	0.278396	-9.037594	611.395296	2.821043	-6.650152	-0.640993	1.087701	0.461411
1.770	0.190087	-9.116919	611.548566	2.744097	-6.538063	-0.632934	1.069100	0.448713
1.780	0.097920	-9.202899	611.930638	2.666638	-6.418525	-0.628863	1.048897	0.435775
1.790	-0.000603	-9.289856	612.533028	2.588502	-6.295481	-0.628571	1.027778	0.422590
1.800	-0.109760	-9.373826	613.317935	2.509367	-6.171821	-0.631374	1.006300	0.409146
1.810	-0.233035	-9.453315	614.226894	2.428899	-6.049053	-0.636239	0.984824	0.395440
1.820	-0.370682	-9.528437	615.193988	2.346849	-5.927791	-0.642035	0.963564	0.381481
1.830	-0.518590	-9.598886	616.157920	2.263095	-5.808798	-0.647833	0.942745	0.367291
1.840	-0.669036	-9.662263	617.068928	2.177676	-5.694018	-0.653164	0.922752	0.352906
1.850	-0.812947	-9.714240	617.890124	2.090916	-5.586991	-0.658158	0.904205	0.338396
1.860	-0.942464	-9.750764	618.595648	2.003693	-5.492464	-0.663499	0.887892	0.323910
1.870	-1.052354	-9.770932	619.168093	1.917692	-5.415334	-0.670173	0.874615	0.309721
1.880	-1.139652	-9.778517	619.595941	1.835383	-5.359338	-0.679049	0.864973	0.296223
1.890	-1.202236	-9.780959	619.870822	1.759634	-5.325897	-0.690415	0.859195	0.283871
1.900	-1.237835	-9.786315	619.985074	1.693032	-5.313540	-0.703710	0.857043	0.273076
1.910	-1.244490	-9.799859	619.931053	1.637120	-5.318187	-0.717580	0.857868	0.264081
1.920	-1.222122	-9.822096	619.703025	1.591836	-5.334336	-0.730252	0.860789	0.256871
1.930	-1.173704	-9.849108	619.300637	1.555465	-5.356750	-0.740041	0.864968	0.251165
1.940	-1.104796	-9.875104	618.731709	1.525161	-5.382047	-0.745766	0.869851	0.246498
1.950	-1.021594	-9.896020	618.012854	1.497734	-5.409616	-0.746957	0.875324	0.242347
1.960	-0.928862	-9.912474	617.168474	1.470182	-5.441513	-0.743822	0.881690	0.238214
1.970	-0.829138	-9.930510	616.230169	1.439858	-5.481293	-0.737037	0.889488	0.233656
1.980	-0.723542	-9.959555	615.238154	1.404621	-5.532120	-0.727487	0.899183	0.228305
1.990	-0.613457	-10.008277	614.243859	1.363363	-5.594830	-0.716056	0.910848	0.221958
2.000	-0.501968	-10.079988	613.310159	1.316754	-5.666805	-0.703543	0.923971	0.214696
2.010	-0.394427	-10.169567	612.505090	1.267616	-5.742128	-0.690672	0.937483	0.206956
2.020	-0.298179	-10.263493	611.888407	1.220395	-5.812972	-0.678171	0.950005	0.199447
2.030	-0.221774	-10.343395	611.496071	1.179845	-5.871606	-0.666827	0.960203	0.192944
2.040	-0.173644	-10.391924	611.331347	1.149523	-5.912285	-0.657468	0.967116	0.188036
2.050	-0.159924	-10.398655	611.368979	1.130805	-5.932440	-0.650782	0.970353	0.184963
2.060	-0.181597	-10.363754	611.571462	1.122869	-5.932958	-0.647030	0.970117	0.183604
2.070	-0.232195	-10.298206	611.908629	1.123663	-5.917659	-0.645842	0.967082	0.183632
2.080	-0.297804	-10.220735	612.369195	1.131237	-5.892312	-0.646324	0.962216	0.184731
2.090	-0.360447	-10.152537	612.957878	1.144595	-5.863519	-0.647466	0.956594	0.186733
2.100	-0.404248	-10.111417	613.680683	1.163542	-5.837647	-0.648596	0.951252	0.189600
2.110	-0.421831	-10.106918	614.528048	1.187812	-5.819873	-0.649609	0.947048	0.193288
2.120	-0.417473	-10.137733	615.466143	1.216256	-5.813552	-0.650927	0.944577	0.197615
2.130	-0.404735	-10.192151	616.440553	1.246672	-5.820191	-0.653222	0.944161	0.202237
2.140	-0.399393	-10.251548	617.388577	1.276364	-5.840033	-0.657023	0.945925	0.206736
2.150	-0.411352	-10.296042	618.252398	1.303075	-5.872892	-0.662344	0.949918	0.210767
2.160	-0.439662	-10.310531	618.987402	1.325905	-5.918807	-0.668566	0.956208	0.214205
2.170	-0.472692	-10.289056	619.564552	1.345767	-5.978319	-0.674686	0.964923	0.217212
2.180	-0.492623	-10.236030	619.968836	1.365107	-6.052502	-0.679813	0.976259	0.220190
2.190	-0.481591	-10.164190	620.196345	1.386976	-6.142893	-0.683651	0.990475	0.223635
2.200	-0.426717	-10.090280	620.251498	1.414057	-6.251331	-0.686681	1.007870	0.227981
2.210	-0.322500	-10.029939	620.144214	1.448225	-6.379657	-0.689942	1.028738	0.233530
2.220	-0.170720	-9.993102	619.886109	1.490737	-6.529095	-0.694517	1.053273	0.240486
2.230	0.021014	-9.980869	619.486210	1.542624	-6.699305	-0.701021	1.081429	0.249017
2.240	0.241207	-9.984490	618.948647	1.604842	-6.887425	-0.709372	1.112762	0.259285
2.250	0.476874	-9.986951	618.274894	1.678133	-7.087716	-0.718940	1.146370	0.271422
2.260	0.716490	-9.967257	617.470559	1.762917	-7.292321	-0.728948	1.180999	0.285506
2.270	0.952724	-9.906544	616.553454	1.859553	-7.493102	-0.738850	1.215321	0.301605
2.280	1.183630	-9.793906	615.558101	1.968930	-7.683850	-0.748494	1.248274	0.319861
2.290	1.411427	-9.629469	614.533449	2.092945	-7.861749	-0.758001	1.279304	0.340575
2.300	1.639231	-9.423472	613.534239	2.234302	-8.027273	-0.767453	1.308366	0.364169
2.310	1.867141	-9.192109	612.609698	2.395316	-8.182499	-0.776515	1.335679	0.391002
2.320	2.089524	-8.952347	611.794259	2.576055	-8.328704	-0.784164	1.361357	0.421066
2.330	2.294880	-8.718018	611.103485	2.772651	-8.464419	-0.788697	1.385104	0.453712
2.340	2.468378	-8.498403	610.535540	2.976757	-8.584755	-0.788142	1.406102	0.487565
2.350	2.595829	-8.299133	610.076756	3.176695	-8.682242	-0.780992	1.423139	0.520704
2.360	2.667449	-8.124245	609.710272	3.360059	-8.748843	-0.766962	1.434918	0.551091
2.370	2.680312	-7.978145	609.427332	3.516825	-8.778525	-0.747377	1.440455	0.577070
2.380	2.639163	-7.866496	609.239162	3.641834	-8.769487	-0.724995	1.439416	0.597768
