Time[s]	Fx[N]	Fy[N]	Fz[N]	Mx[Nm]	My[Nm]	Mz[Nm]	COPx[cm]	COPy[cm]
0.010	2.442551	5.648101	700.004890	-6.789600	6.289498	-0.855471	-0.898493	-0.969936
0.020	2.603112	5.663969	700.335838	-6.755560	6.047021	-0.847923	-0.863446	-0.964617
0.030	2.762804	5.683646	700.577011	-6.726715	5.807028	-0.840496	-0.828892	-0.960168
0.040	2.915852	5.709345	700.669380	-6.706790	5.572880	-0.833413	-0.795365	-0.957198
0.050	3.050716	5.739704	700.598984	-6.697275	5.348483	-0.826977	-0.763416	-0.955936
0.060	3.152735	5.769992	700.394407	-6.697231	5.137854	-0.821469	-0.733566	-0.956208
0.070	3.210014	5.793846	700.111685	-6.703945	4.944316	-0.817057	-0.706218	-0.957554
0.080	3.219935	5.805863	699.816627	-6.714209	4.769605	-0.813747	-0.681551	-0.959424
0.090	3.193086	5.804048	699.571523	-6.725641	4.613209	-0.811411	-0.659433	-0.961394
0.100	3.152337	5.791010	699.427036	-6.737543	4.472314	-0.809831	-0.639425	-0.963295
0.110	3.126767	5.773064	699.415963	-6.751001	4.342540	-0.808738	-0.620881	-0.965234
0.120	3.142393	5.757569	699.546418	-6.768245	4.219337	-0.807832	-0.603153	-0.967519
0.130	3.213066	5.750146	699.796579	-6.791596	4.099622	-0.806820	-0.585831	-0.970510
0.140	3.335044	5.753547	700.116523	-6.822456	3.983056	-0.805502	-0.568913	-0.974474
0.150	3.487459	5.768481	700.440784	-6.860789	3.872421	-0.803917	-0.552855	-0.979496
0.160	3.638615	5.795000	700.708804	-6.905245	3.772830	-0.802437	-0.538430	-0.985466
0.170	3.755704	5.832753	700.884415	-6.953845	3.689984	-0.801702	-0.526475	-0.992153
0.180	3.814378	5.879639	700.964678	-7.004856	3.628094	-0.802354	-0.517586	-0.999317
0.190	3.805095	5.930022	700.974142	-7.057448	3.588257	-0.804649	-0.511896	-1.006806
0.200	3.734673	5.974279	700.949230	-7.111857	3.567921	-0.808108	-0.509013	-1.014604
0.210	3.623146	6.000608	700.922360	-7.169068	3.561642	-0.811422	-0.508136	-1.022805
0.220	3.497415	5.998499	700.912796	-7.230344	3.562764	-0.812700	-0.508303	-1.031561
0.230	3.383994	5.962190	700.924552	-7.296941	3.565253	-0.810061	-0.508650	-1.041045
0.240	3.302921	5.892477	700.947936	-7.370195	3.564929	-0.802322	-0.508587	-1.051461
0.250	3.264023	5.796161	700.962602	-7.451829	3.559742	-0.789534	-0.507836	-1.063085
0.260	3.265834	5.683601	700.942415	-7.544045	3.549358	-0.773113	-0.506369	-1.076272
0.270	3.296971	5.565400	700.862417	-7.649003	3.534609	-0.755551	-0.504323	-1.091370
0.280	3.339434	5.449420	700.706434	-7.767835	3.517235	-0.739808	-0.501956	-1.108572
0.290	3.372992	5.339032	700.473016	-7.899891	3.499962	-0.728598	-0.499657	-1.127794
0.300	3.379593	5.233187	700.178118	-8.042897	3.486660	-0.723715	-0.497968	-1.148693
0.310	3.346841	5.128195	699.853967	-8.193952	3.482258	-0.725612	-0.497569	-1.170809
0.320	3.270067	5.020333	699.543972	-8.350617	3.492133	-0.733362	-0.499201	-1.193723
0.330	3.152888	4.907984	699.294267	-8.511344	3.520883	-0.745041	-0.503491	-1.217133
0.340	3.006287	4.792204	699.144036	-8.675066	3.570735	-0.758405	-0.510730	-1.240812
0.350	2.846362	4.675725	699.117776	-8.840460	3.640175	-0.771621	-0.520681	-1.264517
0.360	2.691095	4.561325	699.221982	-9.005535	3.723453	-0.783744	-0.532514	-1.287936
0.370	2.556859	4.450681	699.446377	-9.167870	3.811401	-0.794736	-0.544917	-1.310732
0.380	2.455429	4.344076	699.767362	-9.325254	3.893466	-0.805036	-0.556394	-1.332622
0.390	2.392094	4.240673	700.150952	-9.476265	3.960313	-0.814932	-0.565637	-1.353460
0.400	2.365278	4.139148	700.554969	-9.620444	4.005996	-0.824100	-0.571832	-1.373260
0.410	2.367809	4.038726	700.932551	-9.758005	4.028919	-0.831543	-0.574794	-1.392146
0.420	2.389477	3.940560	701.238525	-9.889207	4.031391	-0.835958	-0.574896	-1.410249
0.430	2.419844	3.848806	701.437447	-10.013719	4.018132	-0.836281	-0.572843	-1.427600
0.440	2.450192	3.770390	701.510207	-10.130258	3.994460	-0.832145	-0.569409	-1.444064
0.450	2.474184	3.713084	701.456572	-10.236698	3.964768	-0.824031	-0.565219	-1.459349
0.460	2.487752	3.682519	701.293355	-10.330618	3.931608	-0.813108	-0.560622	-1.473081
0.470	2.489051	3.679559	701.050227	-10.410125	3.895405	-0.800858	-0.555653	-1.484933
0.480	2.478830	3.699280	700.765428	-10.474606	3.854738	-0.788641	-0.550075	-1.494738
0.490	2.460851	3.732096	700.481707	-10.525043	3.807162	-0.777323	-0.543506	-1.502544
0.500	2.441622	3.766591	700.240949	-10.563693	3.750436	-0.767124	-0.535592	-1.508580
0.510	2.428947	3.792865	700.076681	-10.593228	3.683782	-0.757738	-0.526197	-1.513152
0.520	2.429638	3.805172	700.006267	-10.615741	3.608606	-0.748673	-0.515511	-1.516521
0.530	2.447501	3.803079	700.026633	-10.632078	3.528296	-0.739628	-0.504023	-1.518811
0.540	2.482673	3.791001	700.116414	-10.641791	3.447167	-0.730695	-0.492370	-1.520003
0.550	2.532388	3.776432	700.244038	-10.643677	3.369060	-0.722283	-0.481127	-1.519995
0.560	2.592317	3.767522	700.378311	-10.636597	3.296226	-0.714864	-0.470635	-1.518693
0.570	2.657615	3.770740	700.497496	-10.620235	3.228927	-0.708757	-0.460948	-1.516099
0.580	2.723341	3.789210	700.594099	-10.595670	3.165878	-0.704127	-0.451885	-1.512384
0.590	2.784442	3.822224	700.674150	-10.565655	3.105253	-0.701176	-0.443181	-1.507927
0.600	2.835728	3.866041	700.751018	-10.534410	3.045691	-0.700310	-0.434632	-1.503303
0.610	2.872365	3.915619	700.835444	-10.506753	2.986776	-0.702057	-0.426174	-1.499175
0.620	2.891195	3.966382	700.925879	-10.486758	2.928718	-0.706755	-0.417836	-1.496129
0.630	2.892358	4.015268	701.004750	-10.476510	2.871408	-0.714245	-0.409613	-1.494499
0.640	2.880209	4.060838	701.044244	-10.475520	2.813433	-0.723833	-0.401320	-1.494274
0.650	2.862829	4.102787	701.019333	-10.480998	2.751712	-0.734545	-0.392530	-1.495108
0.660	2.850335	4.141291	700.920531	-10.488814	2.682151	-0.745461	-0.382661	-1.496434
0.670	2.852750	4.176375	700.758881	-10.494825	2.601046	-0.755910	-0.371176	-1.497637
0.680	2.878135	4.207413	700.561069	-10.496178	2.506509	-0.765447	-0.357786	-1.498253
0.690	2.931355	4.232991	700.358816	-10.492126	2.399196	-0.773677	-0.342567	-1.498107
0.700	3.013600	4.251412	700.178948	-10.484067	2.282148	-0.780057	-0.325938	-1.497341
0.710	3.122470	4.261702	700.038370	-10.474825	2.160042	-0.783835	-0.308561	-1.496322
0.720	3.252224	4.264482	699.944660	-10.467427	2.038276	-0.784225	-0.291205	-1.495465
0.730	3.394063	4.262016	699.900264	-10.463770	1.922110	-0.780790	-0.274626	-1.495037
0.740	3.536733	4.257351	699.906857	-10.463672	1.815958	-0.773820	-0.259457	-1.495009
0.750	3.667949	4.253186	699.966562	-10.464783	1.722846	-0.764446	-0.246133	-1.495040
0.760	3.776678	4.251145	700.078683	-10.463506	1.644128	-0.754356	-0.234849	-1.494619
0.770	3.855795	4.251635	700.233772	-10.456531	1.579516	-0.745259	-0.225570	-1.493291
0.780	3.904226	4.254050	700.409308	-10.442275	1.527522	-0.738367	-0.218090	-1.490882
0.790	3.927589	4.257077	700.571034	-10.421608	1.486192	-0.734134	-0.212140	-1.487588
0.800	3.936615	4.259066	700.680805	-10.397664	1.453849	-0.732326	-0.207491	-1.483937
0.810	3.943468	4.258462	700.708231	-10.374838	1.429547	-0.732323	-0.204015	-1.480622
0.820	3.957203	4.254246	700.641819	-10.357282	1.413052	-0.733465	-0.201680	-1.478256
0.830	3.980322	4.246303	700.495422	-10.347381	1.404494	-0.735268	-0.200500	-1.477152
0.840	4.008089	4.235639	700.306683	-10.344838	1.403969	-0.737450	-0.200479	-1.477187
0.850	4.030989	4.224456	700.126147	-10.346823	1.411432	-0.739887	-0.201597	-1.477851
0.860	4.039115	4.216020	699.999610	-10.349169	1.426948	-0.742594	-0.203850	-1.478454
0.870	4.026432	4.214171	699.950828	-10.348024	1.451056	-0.745755	-0.207308	-1.478393
0.880	3.993211	4.222416	699.973540	-10.341186	1.484784	-0.749686	-0.212120	-1.477368
0.890	3.945898	4.242861	700.037933	-10.328623	1.529100	-0.754657	-0.218431	-1.475438
0.900	3.894741	4.275441	700.108417	-10.312069	1.584071	-0.760626	-0.226261	-1.472925
0.910	3.850089	4.317770	700.162202	-10.294000	1.648426	-0.767043	-0.235435	-1.470231
0.920	3.818700	4.365618	700.197686	-10.276509	1.720032	-0.772929	-0.245650	-1.467658
0.930	3.801358	4.413837	700.228966	-10.260634	1.797143	-0.777251	-0.256651	-1.465326
0.940	3.792656	4.457648	700.272089	-10.246363	1.879671	-0.779409	-0.268420	-1.463197
0.950	3.782836	4.494200	700.333228	-10.233061	1.969632	-0.779562	-0.281242	-1.461170
0.960	3.760691	4.523896	700.406076	-10.219917	2.070441	-0.778598	-0.295606	-1.459142
0.970	3.716330	4.550650	700.478314	-10.206167	2.185441	-0.777821	-0.311993	-1.457028
0.980	3.643151	4.580546	700.540433	-10.191090	2.316640	-0.778531	-0.330693	-1.454747
0.990	3.538858	4.619233	700.589019	-10.173893	2.464460	-0.781678	-0.351770	-1.452191
1.000	3.405433	4.669202	700.621965	-10.153627	2.628547	-0.787641	-0.375173	-1.449231
1.010	3.247830	4.728308	700.630468	-10.129235	2.808836	-0.796119	-0.400901	-1.445731
1.020	3.071606	4.790357	700.596061	-10.099748	3.005858	-0.806150	-0.429043	-1.441594
1.030	2.880638	4.847511	700.497316	-10.064581	3.219797	-0.816254	-0.459644	-1.436776
1.040	2.676491	4.893444	700.323565	-10.023897	3.448781	-0.824731	-0.492455	-1.431324
1.050	2.460229	4.925897	700.087440	-9.979027	3.687532	-0.830100	-0.526725	-1.425397
1.060	2.235657	4.947576	699.828058	-9.932781	3.927452	-0.831611	-0.561202	-1.419317
1.070	2.011717	4.965001	699.601865	-9.889396	4.158339	-0.829609	-0.594386	-1.413575
1.080	1.802003	4.985772	699.464749	-9.853954	4.371059	-0.825532	-0.624915	-1.408785
1.090	1.621234	5.015338	699.452992	-9.831354	4.559987	-0.821488	-0.651936	-1.405578
1.100	1.480483	5.054619	699.570867	-9.825088	4.724138	-0.819583	-0.675291	-1.404445
1.110	1.383690	5.099359	699.790040	-9.836117	4.866505	-0.821243	-0.695424	-1.405581
1.120	1.327004	5.141344	700.061072	-9.862289	4.991948	-0.826801	-0.713073	-1.408776
1.130	1.300928	5.170869	700.331072	-9.898705	5.104682	-0.835441	-0.728896	-1.413432
1.140	1.294111	5.179637	700.558340	-9.939074	5.206520	-0.845500	-0.743196	-1.418736
1.150	1.297161	5.163340	700.718135	-9.977563	5.296535	-0.854951	-0.755872	-1.423905
1.160	1.304944	5.123357	700.800593	-10.010321	5.372105	-0.861893	-0.766567	-1.428412
1.170	1.316555	5.067111	700.805897	-10.036161	5.430701	-0.864945	-0.774922	-1.432089
1.180	1.333450	5.006701	700.740915	-10.056343	5.471533	-0.863516	-0.780821	-1.435101
1.190	1.357226	4.955811	700.618563	-10.073737	5.496216	-0.857951	-0.784481	-1.437835
1.200	1.388401	4.925635	700.458911	-10.091721	5.508165	-0.849504	-0.786365	-1.440730
1.210	1.426487	4.921299	700.290021	-10.113108	5.511158	-0.840013	-0.786982	-1.444131
1.220	1.470662	4.940286	700.146215	-10.139488	5.507993	-0.831305	-0.786692	-1.448196
1.230	1.520210	4.973552	700.062212	-10.171188	5.499960	-0.824529	-0.785639	-1.452898
1.240	1.574550	5.008761	700.063856	-10.207768	5.487274	-0.819793	-0.783825	-1.458120
1.250	1.633118	5.034134	700.159132	-10.248624	5.470018	-0.816270	-0.781254	-1.463756
1.260	1.695290	5.041355	700.333887	-10.293312	5.448981	-0.812677	-0.778055	-1.469772
1.270	1.760167	5.026818	700.554029	-10.341514	5.425947	-0.807842	-0.774522	-1.476191
1.280	1.826062	4.991403	700.773042	-10.392832	5.403387	-0.801074	-0.771061	-1.483052
1.290	1.889972	4.939350	700.942993	-10.446614	5.383789	-0.792280	-0.768078	-1.490366
1.300	1.947791	4.876791	701.027119	-10.501986	5.369012	-0.781915	-0.765878	-1.498086
1.310	1.995625	4.810234	701.010390	-10.558196	5.359895	-0.770909	-0.764596	-1.506140
1.320	2.031669	4.745059	700.903176	-10.615207	5.356226	-0.760575	-0.764189	-1.514504
1.330	2.057420	4.684085	700.735519	-10.674210	5.357107	-0.752439	-0.764498	-1.523286
1.340	2.077339	4.626491	700.544914	-10.737612	5.361607	-0.747931	-0.765348	-1.532751
1.350	2.097145	4.567640	700.364466	-10.808414	5.369476	-0.748011	-0.766669	-1.543256
1.360	2.121722	4.500357	700.217150	-10.889231	5.381526	-0.752895	-0.768551	-1.555122
1.370	2.153551	4.417659	700.116842	-10.981435	5.399431	-0.761996	-0.771219	-1.568515
1.380	2.191923	4.316062	700.072323	-11.084696	5.424934	-0.774102	-0.774910	-1.583364
1.390	2.232856	4.198000	700.089718	-11.196947	5.458872	-0.787694	-0.779739	-1.599359
1.400	2.269711	4.071994	700.171104	-11.314678	5.500573	-0.801299	-0.785604	-1.615988
1.410	2.294620	3.950176	700.310189	-11.433456	5.548013	-0.813761	-0.792222	-1.632627
1.420	2.300444	3.844045	700.488094	-11.548580	5.598636	-0.824384	-0.799248	-1.648648
1.430	2.282618	3.760309	700.672190	-11.655682	5.650343	-0.832949	-0.806418	-1.663500
1.440	2.240177	3.698791	700.819555	-11.751208	5.702123	-0.839611	-0.813636	-1.676781
1.450	2.175815	3.653338	700.885236	-11.832778	5.754074	-0.844717	-0.820972	-1.688262
1.460	2.095257	3.615191	700.834240	-11.899428	5.806998	-0.848565	-0.828584	-1.697895
1.470	2.006320	3.577081	700.654281	-11.951619	5.861820	-0.851188	-0.836621	-1.705780
1.480	1.917609	3.536130	700.364306	-11.990934	5.919094	-0.852249	-0.845145	-1.712100
1.490	1.836628	3.494441	700.014098	-12.019437	5.978756	-0.851113	-0.854091	-1.717028
1.500	1.767512	3.457489	699.673524	-12.038910	6.040229	-0.847098	-0.863292	-1.720647
1.510	1.709382	3.431463	699.414486	-12.050265	6.102823	-0.839850	-0.872562	-1.722908
1.520	1.656602	3.420921	699.291598	-12.053451	6.166241	-0.829685	-0.881784	-1.723666
1.530	1.601352	3.427568	699.327846	-12.047895	6.230946	-0.817735	-0.890991	-1.722782
1.540	1.537490	3.450127	699.509399	-12.033230	6.298183	-0.805738	-0.900371	-1.720238
1.550	1.463753	3.484752	699.790007	-12.009881	6.369483	-0.795521	-0.910199	-1.716212
1.560	1.384698	3.525726	700.102634	-11.979298	6.445752	-0.788352	-0.920687	-1.711077
1.570	1.309065	3.566594	700.375367	-11.943837	6.526374	-0.784493	-0.931839	-1.705348
1.580	1.246487	3.601731	700.548987	-11.906468	6.608928	-0.783180	-0.943393	-1.699591
1.590	1.204035	3.627799	700.592836	-11.870336	6.689770	-0.783053	-0.954873	-1.694327
1.600	1.184060	3.644388	700.514454	-11.838183	6.765300	-0.782802	-0.965762	-1.689927
1.610	1.184234	3.653640	700.358569	-11.811663	6.833352	-0.781704	-0.975693	-1.686517
1.620	1.199594	3.659325	700.193530	-11.790824	6.894096	-0.779803	-0.984599	-1.683938
1.630	1.225137	3.665887	700.088397	-11.774100	6.950119	-0.777694	-0.992749	-1.681802
1.640	1.257045	3.677658	700.089200	-11.758938	7.005706	-0.776103	-1.000688	-1.679634
1.650	1.291786	3.698145	700.204339	-11.742761	7.065670	-0.775549	-1.009087	-1.677048
1.660	1.324122	3.729247	700.404735	-11.723764	7.134139	-0.776239	-1.018574	-1.673856
1.670	1.345993	3.770370	700.637476	-11.701243	7.213689	-0.778203	-1.029589	-1.670085
1.680	1.347527	3.817645	700.846110	-11.675405	7.305012	-0.781510	-1.042313	-1.665901
1.690	1.319844	3.863945	700.988857	-11.646814	7.407083	-0.786363	-1.056662	-1.661483
1.700	1.258149	3.900438	701.048016	-11.615697	7.517618	-0.792963	-1.072340	-1.656905
1.710	1.163559	3.919696	701.028729	-11.581426	7.633670	-0.801240	-1.088924	-1.652062
1.720	1.042938	3.919149	700.950056	-11.542454	7.752218	-0.810670	-1.105959	-1.646687
1.730	0.907020	3.903071	700.833900	-11.496861	7.870628	-0.820345	-1.123038	-1.640454
1.740	0.767728	3.881810	700.697238	-11.443328	7.986860	-0.829243	-1.139845	-1.633135
1.750	0.635764	3.868405	700.550657	-11.381999	8.099368	-0.836540	-1.156143	-1.624722
1.760	0.519202	3.874049	700.402299	-11.314681	8.206766	-0.841789	-1.171722	-1.615455
1.770	0.423150	3.904365	700.263110	-11.244269	8.307529	-0.844911	-1.186344	-1.605721
1.780	0.349886	3.957992	700.148917	-11.173710	8.399985	-0.846069	-1.199743	-1.595905
1.790	0.298781	4.027756	700.077436	-11.104975	8.482726	-0.845576	-1.211684	-1.586250
1.800	0.265989	4.103455	700.061369	-11.038427	8.555290	-0.843909	-1.222077	-1.576780
1.810	0.244571	4.174923	700.100918	-10.972835	8.618716	-0.841767	-1.231068	-1.567322
1.820	0.225668	4.234429	700.179886	-10.906062	8.675520	-0.840036	-1.239042	-1.557609
1.830	0.200630	4.278008	700.268599	-10.836215	8.728877	-0.839600	-1.246504	-1.547437
1.840	0.163484	4.305450	700.333594	-10.762787	8.781175	-0.841069	-1.253856	-1.536809
1.850	0.113022	4.319011	700.350096	-10.687285	8.832547	-0.844521	-1.261162	-1.525992
1.860	0.053890	4.321569	700.311824	-10.612963	8.880178	-0.849395	-1.268032	-1.515462
1.870	-0.003909	4.315476	700.234389	-10.543670	8.918882	-0.854616	-1.273700	-1.505734
1.880	-0.047355	4.302900	700.151223	-10.482291	8.942720	-0.858944	-1.277256	-1.497147
1.890	-0.064105	4.287206	700.103059	-10.429532	8.946897	-0.861408	-1.277940	-1.489714
1.900	-0.046303	4.273943	700.123688	-10.383662	8.929081	-0.861606	-1.275358	-1.483118
1.910	0.006933	4.270114	700.226703	-10.341340	8.889768	-0.859764	-1.269556	-1.476856
1.920	0.089435	4.281741	700.398618	-10.299146	8.831793	-0.856555	-1.260967	-1.470469
1.930	0.190391	4.311066	700.601600	-10.255075	8.759307	-0.852784	-1.250255	-1.463753
1.940	0.298146	4.355174	700.784734	-10.209263	8.676589	-0.849088	-1.238125	-1.456833
1.950	0.403698	4.406903	700.899357	-10.163543	8.587078	-0.845785	-1.225151	-1.450072
1.960	0.502452	4.457453	700.913237	-10.120059	8.492962	-0.842920	-1.211700	-1.443839
1.970	0.593868	4.499295	700.819737	-10.079642	8.395317	-0.840378	-1.197928	-1.438265
1.980	0.679722	4.528187	700.639890	-10.040763	8.294474	-0.837937	-1.183843	-1.433085
1.990	0.762325	4.543870	700.416960	-9.999608	8.190278	-0.835216	-1.169343	-1.427665
2.000	0.843713	4.549739	700.204736	-9.951217	8.082150	-0.831633	-1.154255	-1.421187
2.010	0.925991	4.551891	700.052503	-9.891194	7.969113	-0.826457	-1.138359	-1.412922
2.020	1.012094	4.557860	699.991137	-9.817262	7.850059	-0.819002	-1.121451	-1.402484
2.030	1.105850	4.575065	700.025052	-9.730053	7.724385	-0.808893	-1.103444	-1.389958
2.040	1.210648	4.609036	700.132671	-9.632862	7.592827	-0.796348	-1.084484	-1.375862
2.050	1.327124	4.661676	700.274431	-9.530481	7.457924	-0.782339	-1.065000	-1.360964
2.060	1.451242	4.730218	700.404874	-9.427611	7.323594	-0.768507	-1.045623	-1.346023
2.070	1.574266	4.807624	700.485291	-9.327412	7.193890	-0.756782	-1.026987	-1.331564
2.080	1.685176	4.884717	700.493848	-9.230636	7.071578	-0.748802	-1.009513	-1.317733
2.090	1.774636	4.953388	700.430400	-9.135531	6.957290	-0.745431	-0.993288	-1.304274
2.100	1.838557	5.009580	700.314412	-9.038514	6.849570	-0.746564	-0.978071	-1.290637
2.110	1.879550	5.054765	700.177184	-8.935435	6.745651	-0.751289	-0.963421	-1.276168
2.120	1.905833	5.095310	700.052109	-8.823080	6.642508	-0.758235	-0.948859	-1.260346
2.130	1.928415	5.139937	699.966588	-8.700422	6.537774	-0.765916	-0.934012	-1.242977
2.140	1.957830	5.196205	699.936995	-8.569188	6.430277	-0.772951	-0.918694	-1.224280
2.150	2.001364	5.267481	699.966346	-8.433481	6.320210	-0.778182	-0.902930	-1.204841
2.160	2.061303	5.351854	700.044309	-8.298640	6.209081	-0.780830	-0.886955	-1.185445
2.170	2.134440	5.443583	700.149849	-8.169795	6.099579	-0.780783	-0.871182	-1.166864
2.180	2.212970	5.536258	700.256490	-8.050671	5.995305	-0.778912	-0.856158	-1.149675
2.190	2.286661	5.625813	700.338841	-7.942922	5.900205	-0.777131	-0.842479	-1.134154
2.200	2.345764	5.711602	700.377946	-7.845952	5.817658	-0.777954	-0.830646	-1.120245
2.210	2.383791	5.795175	700.363681	-7.757094	5.749366	-0.783581	-0.820912	-1.107581
2.220	2.399468	5.877988	700.294682	-7.672118	5.694403	-0.794904	-0.813144	-1.095556
2.230	2.397492	5.959751	700.177701	-7.586154	5.648871	-0.810921	-0.806777	-1.083461
2.240	2.387798	6.038281	700.027466	-7.494945	5.606487	-0.828884	-0.800895	-1.070664
2.250	2.383236	6.110572	699.866456	-7.396044	5.560015	-0.845139	-0.794439	-1.056779
2.260	2.396092	6.174267	699.723274	-7.289428	5.503135	-0.856306	-0.786473	-1.041759
2.270	2.434597	6.228743	699.628766	-7.177277	5.432179	-0.860314	-0.776437	-1.025869
2.280	2.500663	6.275280	699.610070	-7.063105	5.347239	-0.856921	-0.764317	-1.009577
2.290	2.589561	6.316317	699.684021	-6.950689	5.252277	-0.847585	-0.750664	-0.993404
2.300	2.691360	6.354340	699.852040	-6.843210	5.154121	-0.834836	-0.736459	-0.977808
2.310	2.793384	6.391204	700.098088	-6.742829	5.060628	-0.821491	-0.722846	-0.963126
2.320	2.882866	6.428260	700.390218	-6.650808	4.978576	-0.810012	-0.710829	-0.949586
2.330	2.949292	6.466833	700.685642	-6.568088	4.912004	-0.802171	-0.701028	-0.937380
2.340	2.986253	6.508239	700.938970	-6.495996	4.861465	-0.798959	-0.693565	-0.926756
2.350	2.992749	6.553011	701.112309	-6.436580	4.824300	-0.800599	-0.688092	-0.918053
