Time[s]	Fx[N]	Fy[N]	Fz[N]	Mx[Nm]	My[Nm]	Mz[Nm]	COPx[cm]	COPy[cm]
0.010	5.886655	-0.979575	571.835392	12.052011	-8.064875	-0.588051	1.410349	2.107601
0.020	5.903406	-0.945655	571.252432	11.999733	-8.102454	-0.584259	1.418367	2.100601
0.030	5.911522	-0.915456	570.801224	11.956159	-8.131849	-0.581941	1.424638	2.094627
0.040	5.904682	-0.888664	570.583650	11.928295	-8.147024	-0.582231	1.427840	2.090543
0.050	5.881048	-0.859906	570.655215	11.919946	-8.144941	-0.585588	1.427296	2.088817
0.060	5.844161	-0.820440	571.020460	11.931321	-8.125803	-0.591688	1.423032	2.089473
0.070	5.802186	-0.762140	571.641417	11.959685	-8.092335	-0.599477	1.415631	2.092166
0.080	5.765501	-0.681797	572.453470	12.000681	-8.048482	-0.607333	1.405963	2.096359
0.090	5.743095	-0.583514	573.381726	12.049721	-7.997998	-0.613291	1.394882	2.101518
0.100	5.738744	-0.477928	574.353252	12.102925	-7.943366	-0.615364	1.383011	2.107227
0.110	5.748320	-0.378592	575.304268	12.157462	-7.885331	-0.611960	1.370637	2.113223
0.120	5.759527	-0.297371	576.183879	12.211484	-7.823178	-0.602314	1.357757	2.119373
0.130	5.754669	-0.240999	576.956800	12.263924	-7.755575	-0.586777	1.344221	2.125623
0.140	5.715885	-0.209858	577.606616	12.314366	-7.681699	-0.566840	1.329919	2.131964
0.150	5.631279	-0.198661	578.138147	12.363040	-7.602384	-0.544832	1.314977	2.138423
0.160	5.500014	-0.198175	578.574996	12.410805	-7.521042	-0.523445	1.299925	2.145064
0.170	5.334858	-0.197446	578.949871	12.458899	-7.443941	-0.505274	1.285766	2.151982
0.180	5.161421	-0.186396	579.289908	12.508307	-7.379417	-0.492523	1.273873	2.159248
0.190	5.013810	-0.158606	579.602146	12.558928	-7.335947	-0.486823	1.265687	2.166819
0.200	4.927042	-0.113445	579.864261	12.609022	-7.319689	-0.489043	1.262311	2.174478
0.210	4.927618	-0.056405	580.024670	12.655389	-7.332464	-0.499050	1.264164	2.181871
0.220	5.024921	0.002924	580.014331	12.694361	-7.371039	-0.515582	1.270837	2.188629
0.230	5.206644	0.054565	579.768234	12.723240	-7.428005	-0.536393	1.281203	2.194539
0.240	5.440691	0.092007	579.249145	12.741506	-7.493840	-0.558701	1.293716	2.199659
0.250	5.683804	0.114604	578.464250	12.751255	-7.559316	-0.579778	1.306791	2.204329
0.260	5.894276	0.127628	577.468798	12.756655	-7.617430	-0.597459	1.319107	2.209064
0.270	6.044100	0.140075	576.356231	12.762654	-7.664380	-0.610433	1.329799	2.214369
0.280	6.125856	0.161088	575.238588	12.773424	-7.699612	-0.618315	1.338507	2.220544
0.290	6.152060	0.196260	574.223257	12.791072	-7.725154	-0.621551	1.345322	2.227543
0.300	6.148085	0.245038	573.392682	12.815008	-7.744480	-0.621172	1.350642	2.234945
0.310	6.142316	0.300210	572.791781	12.842093	-7.761019	-0.618447	1.354946	2.242018
0.320	6.157283	0.349863	572.424497	12.867356	-7.776534	-0.614517	1.358526	2.247870
0.330	6.203976	0.381220	572.258166	12.884948	-7.789794	-0.610100	1.361238	2.251597
0.340	6.279849	0.384726	572.233300	12.889015	-7.796027	-0.605300	1.362386	2.252406
0.350	6.370125	0.356571	572.276800	12.874499	-7.787424	-0.599579	1.360779	2.249698
0.360	6.451715	0.298786	572.317602	12.838027	-7.754601	-0.591938	1.354947	2.243165
0.370	6.499024	0.217386	572.303805	12.779000	-7.688768	-0.581339	1.343477	2.232905
0.380	6.490825	0.119881	572.218257	12.700542	-7.584150	-0.567282	1.325395	2.219528
0.390	6.416872	0.013433	572.086993	12.609645	-7.440021	-0.550335	1.300505	2.204148
0.400	6.281953	-0.095675	571.975342	12.515966	-7.261541	-0.532305	1.269555	2.188200
0.410	6.105154	-0.201539	571.971129	12.429341	-7.058819	-0.515836	1.234122	2.173071
0.420	5.913789	-0.298064	572.160235	12.356821	-6.844373	-0.503471	1.196234	2.159678
0.430	5.734201	-0.379287	572.602793	12.300496	-6.629873	-0.496617	1.157849	2.148173
0.440	5.583161	-0.440776	573.316914	12.257070	-6.423395	-0.494979	1.120392	2.137922
0.450	5.463233	-0.481243	574.273049	12.219268	-6.228188	-0.496782	1.084534	2.127780
0.460	5.363609	-0.503206	575.398542	12.178235	-6.043333	-0.499621	1.050286	2.116487
0.470	5.265830	-0.512298	576.590063	12.125829	-5.865833	-0.501422	1.017332	2.103024
0.480	5.152096	-0.515862	577.731185	12.056208	-5.693058	-0.501016	0.985416	2.086820
0.490	5.012969	-0.521732	578.712307	11.966653	-5.524429	-0.498167	0.954607	2.067807
0.500	4.851657	-0.537619	579.449582	11.857870	-5.361741	-0.493211	0.925316	2.046402
0.510	4.683416	-0.570797	579.898892	11.733868	-5.208233	-0.486662	0.898128	2.023433
0.520	4.530279	-0.627406	580.061381	11.601373	-5.067118	-0.479070	0.873549	2.000025
0.530	4.412923	-0.710855	579.978867	11.468693	-4.940375	-0.471118	0.851820	1.977433
0.540	4.342773	-0.819582	579.719626	11.344154	-4.828250	-0.463767	0.832860	1.956835
0.550	4.317676	-0.945179	579.357572	11.234478	-4.729426	-0.458232	0.816322	1.939127
0.560	4.322963	-1.072274	578.951129	11.143637	-4.641480	-0.455729	0.801705	1.924798
0.570	4.337040	-1.181121	578.530055	11.072609	-4.561418	-0.457095	0.788450	1.913921
0.580	4.338698	-1.252757	578.095934	11.020032	-4.486284	-0.462473	0.776045	1.906264
0.590	4.313124	-1.275049	577.635434	10.983355	-4.413931	-0.471229	0.764138	1.901434
0.600	4.254859	-1.247105	577.139166	10.959883	-4.343726	-0.482129	0.752631	1.899002
0.610	4.167472	-1.179934	576.616924	10.947324	-4.276773	-0.493635	0.741701	1.898544
0.620	4.060926	-1.092819	576.102442	10.943863	-4.215364	-0.504216	0.731704	1.899638
0.630	3.948077	-1.006696	575.645988	10.948049	-4.161870	-0.512634	0.722991	1.901872
0.640	3.841591	-0.937135	575.298835	10.958810	-4.117705	-0.518185	0.715751	1.904890
0.650	3.751748	-0.889730	575.097258	10.975604	-4.082937	-0.520873	0.709956	1.908478
0.660	3.685047	-0.859731	575.053542	10.998554	-4.056734	-0.521435	0.705453	1.912614
0.670	3.643619	-0.835788	575.157501	11.028408	-4.038273	-0.521181	0.702116	1.917459
0.680	3.625939	-0.805765	575.386443	11.066253	-4.027537	-0.521675	0.699971	1.923273
0.690	3.629100	-0.761768	575.716962	11.113054	-4.025573	-0.524329	0.699228	1.930298
0.700	3.651658	-0.702411	576.131471	11.169126	-4.034254	-0.530060	0.700231	1.938642
0.710	3.695006	-0.632017	576.616589	11.233693	-4.055898	-0.539083	0.703396	1.948208
0.720	3.761940	-0.557898	577.156499	11.304635	-4.092980	-0.550882	0.709163	1.958678
0.730	3.853416	-0.487456	577.726937	11.378548	-4.147865	-0.564350	0.717963	1.969537
0.740	3.966346	-0.426389	578.293122	11.451109	-4.222322	-0.578052	0.730135	1.980157
0.750	4.094732	-0.378126	578.811014	11.517618	-4.316821	-0.590534	0.745808	1.989875
0.760	4.233556	-0.343901	579.229725	11.573579	-4.429932	-0.600614	0.764797	1.998098
0.770	4.382286	-0.323026	579.494672	11.615293	-4.558263	-0.607606	0.786593	2.004383
0.780	4.544870	-0.313469	579.554082	11.640418	-4.697164	-0.611474	0.810479	2.008513
0.790	4.725769	-0.312707	579.371974	11.648415	-4.842100	-0.612844	0.835750	2.010524
0.800	4.924732	-0.318320	578.946393	11.640733	-4.990267	-0.612884	0.861957	2.010676
0.810	5.134336	-0.327792	578.324924	11.620573	-5.141774	-0.613088	0.889081	2.009350
0.820	5.342702	-0.337723	577.606115	11.592133	-5.299748	-0.615045	0.917537	2.006927
0.830	5.540496	-0.343467	576.919836	11.559332	-5.469135	-0.620212	0.947989	2.003629
0.840	5.728192	-0.340062	576.389594	11.524287	-5.654526	-0.629638	0.981025	1.999392
0.850	5.918768	-0.324273	576.088774	11.486093	-5.857669	-0.643573	1.016800	1.993806
0.860	6.133049	-0.296457	576.005841	11.440575	-6.075328	-0.660994	1.054734	1.986191
0.870	6.388866	-0.260977	576.030952	11.381307	-6.297893	-0.679290	1.093326	1.975815
0.880	6.688933	-0.224967	575.970736	11.301600	-6.509130	-0.694419	1.130115	1.962183
0.890	7.013503	-0.196315	575.590237	11.196641	-6.687370	-0.701690	1.161828	1.945245
0.900	7.321841	-0.181914	574.672730	11.064971	-6.808313	-0.696993	1.184729	1.925439
0.910	7.562464	-0.186702	573.082251	10.908947	-6.849042	-0.678053	1.195124	1.903557
0.920	7.688194	-0.213342	570.812374	10.734411	-6.792314	-0.645227	1.189938	1.880550
0.930	7.670039	-0.262176	568.007745	10.550004	-6.629914	-0.601564	1.167222	1.857370
0.940	7.504518	-0.331301	564.951270	10.366416	-6.364044	-0.552140	1.126477	1.834922
0.950	7.211971	-0.416936	562.018799	10.195484	-6.006305	-0.502919	1.068702	1.814082
0.960	6.827539	-0.514110	559.612819	10.048871	-5.574607	-0.459436	0.996154	1.795683
0.970	6.389506	-0.617452	558.092797	9.936215	-5.089009	-0.425605	0.911857	1.780388
0.980	5.929961	-0.721827	557.718561	9.863075	-4.567758	-0.402924	0.819008	1.768468
0.990	5.470132	-0.822837	558.615603	9.829401	-4.024638	-0.390322	0.720466	1.759600
1.000	5.019761	-0.917321	560.763439	9.829216	-3.468193	-0.384684	0.618477	1.752828
1.010	4.578510	-1.003813	564.004155	9.851858	-2.902739	-0.381942	0.514666	1.746770
1.020	4.138092	-1.082618	568.067511	9.884479	-2.330522	-0.378443	0.410254	1.740018
1.030	3.685247	-1.155133	572.608783	9.914988	-1.754169	-0.372202	0.306347	1.731547
1.040	3.206498	-1.222445	577.254739	9.934489	-1.178646	-0.363619	0.204181	1.720989
1.050	2.694817	-1.283875	581.651529	9.938591	-0.612266	-0.355328	0.105263	1.708685
1.060	2.156394	-1.336316	585.506620	9.927479	-0.066604	-0.351163	0.011375	1.695537
1.070	1.614096	-1.374833	588.616448	9.904942	0.444610	-0.354588	-0.075535	1.682750
1.080	1.104563	-1.394447	590.874337	9.876747	0.907321	-0.367232	-0.153556	1.671548
1.090	0.668693	-1.392542	592.259594	9.848829	1.309325	-0.388173	-0.221073	1.662924
1.100	0.338943	-1.370881	592.815296	9.825761	1.642261	-0.414277	-0.277027	1.657474
1.110	0.128876	-1.336069	592.624004	9.809770	1.902969	-0.441415	-0.321109	1.655311
1.120	0.029317	-1.297803	591.787253	9.800378	2.093810	-0.465936	-0.353811	1.656064
1.130	0.011917	-1.265441	590.410867	9.794595	2.221812	-0.485703	-0.376316	1.658946
1.140	0.037587	-1.244528	588.597628	9.787597	2.296787	-0.500300	-0.390213	1.662867
1.150	0.066197	-1.235166	586.448844	9.773842	2.328874	-0.510485	-0.397115	1.666615
1.160	0.065169	-1.233045	584.073747	9.748407	2.326089	-0.517341	-0.398253	1.669037
1.170	0.016027	-1.232447	581.601169	9.708246	2.292394	-0.521629	-0.394152	1.669227
1.180	-0.081555	-1.229594	579.185619	9.652951	2.226760	-0.523636	-0.384464	1.666642
1.190	-0.208968	-1.224707	577.001252	9.584854	2.123597	-0.523470	-0.368040	1.661150
1.200	-0.331994	-1.222081	575.221578	9.508473	1.974700	-0.521557	-0.343294	1.653010
1.210	-0.408380	-1.228508	573.988428	9.429480	1.772318	-0.518942	-0.308773	1.642800
1.220	-0.398481	-1.250956	573.378457	9.353323	1.512553	-0.517167	-0.263797	1.631265
1.230	-0.276246	-1.294340	573.377617	9.283809	1.198064	-0.517802	-0.208948	1.619144
1.240	-0.037187	-1.359842	573.872949	9.222151	0.839236	-0.521931	-0.146241	1.607002
1.250	0.299395	-1.443913	574.667130	9.166900	0.453377	-0.529883	-0.078894	1.595167
1.260	0.694737	-1.538133	575.515025	9.114785	0.062079	-0.541276	-0.010787	1.583761
1.270	1.100034	-1.630273	576.174227	9.061972	-0.312568	-0.555212	0.054249	1.572783
1.280	1.467774	-1.707002	576.456436	9.005192	-0.651960	-0.570445	0.113098	1.562163
1.290	1.761617	-1.757935	576.265992	8.942371	-0.944126	-0.585512	0.163835	1.551778
1.300	1.962517	-1.779608	575.615620	8.872735	-1.185265	-0.598869	0.205913	1.541434
1.310	2.070295	-1.777363	574.615779	8.796543	-1.379330	-0.609101	0.240044	1.530857
1.320	2.101005	-1.763826	573.442047	8.714721	-1.535909	-0.615120	0.267840	1.519721
1.330	2.081111	-1.754334	572.292266	8.628778	-1.667147	-0.616330	0.291310	1.507757
1.340	2.040151	-1.761308	571.347599	8.541150	-1.784830	-0.612724	0.312389	1.494913
1.350	2.004128	-1.790116	570.747136	8.455692	-1.898543	-0.604932	0.332642	1.481513
1.360	1.991698	-1.838155	570.578007	8.377701	-2.015304	-0.594220	0.353204	1.468283
1.370	2.013835	-1.897340	570.877063	8.313028	-2.140301	-0.582392	0.374915	1.456185
1.380	2.075641	-1.958603	571.638061	8.266470	-2.277931	-0.571555	0.398492	1.446102
1.390	2.177915	-2.016157	572.818921	8.240213	-2.432364	-0.563685	0.424630	1.438537
1.400	2.316991	-2.069555	574.346301	8.233180	-2.607344	-0.560076	0.453967	1.433487
1.410	2.483597	-2.122930	576.118518	8.241584	-2.805546	-0.560870	0.486974	1.430536
1.420	2.663069	-2.182203	578.010500	8.260363	-3.028099	-0.564938	0.523883	1.429103
1.430	2.838863	-2.251691	579.883507	8.284828	-3.274725	-0.570228	0.564721	1.428706
1.440	2.999049	-2.331339	581.598370	8.311945	-3.544404	-0.574504	0.609425	1.429156
1.450	3.142969	-2.415357	583.027942	8.340865	-3.836124	-0.576153	0.657966	1.430611
1.460	3.284305	-2.492792	584.065639	8.372603	-4.149165	-0.574752	0.710394	1.433504
1.470	3.448094	-2.550217	584.631195	8.409091	-4.482725	-0.571163	0.766761	1.438358
1.480	3.661966	-2.575966	584.676731	8.452075	-4.835055	-0.567209	0.826962	1.445598
1.490	3.944715	-2.564231	584.193826	8.502432	-5.202685	-0.565076	0.890575	1.455413
1.500	4.296960	-2.516928	583.218765	8.560158	-5.580328	-0.566667	0.956816	1.467744
1.510	4.698219	-2.442089	581.832665	8.624840	-5.961756	-0.573008	1.024651	1.482357
1.520	5.112231	-2.349643	580.155022	8.696062	-6.341345	-0.583847	1.093043	1.498920
1.530	5.498769	-2.247166	578.330694	8.773304	-6.715539	-0.597552	1.161194	1.517005
1.540	5.827241	-2.138201	576.511108	8.855355	-7.083443	-0.611440	1.228674	1.536025
1.550	6.086478	-2.023874	574.832335	8.939767	-7.446229	-0.622499	1.295374	1.555196
1.560	6.286640	-1.906343	573.395980	9.022954	-7.805730	-0.628263	1.361316	1.573599
1.570	6.452644	-1.791582	572.260571	9.101098	-8.163011	-0.627530	1.426450	1.590377
1.580	6.612313	-1.689549	571.447437	9.171494	-8.517670	-0.620684	1.490543	1.604958
1.590	6.784909	-1.611297	570.956627	9.233653	-8.868027	-0.609568	1.553187	1.617225
1.600	6.975262	-1.564339	570.781865	9.289699	-9.211873	-0.596968	1.613904	1.627539
1.610	7.175632	-1.548651	570.914982	9.343865	-9.547149	-0.585841	1.672254	1.636647
1.620	7.373374	-1.555404	571.338291	9.401187	-9.872166	-0.578511	1.727902	1.645468
1.630	7.559726	-1.569132	572.011344	9.465741	-10.185286	-0.576080	1.780609	1.654817
1.640	7.734891	-1.572483	572.861229	9.539043	-10.484319	-0.578240	1.830167	1.665158
1.650	7.907076	-1.551778	573.782660	9.619342	-10.765947	-0.583515	1.876311	1.676478
1.660	8.086665	-1.501382	574.648752	9.702153	-11.025485	-0.589838	1.918648	1.688362
1.670	8.279204	-1.425295	575.329248	9.781769	-11.257069	-0.595204	1.956631	1.700204
1.680	8.481019	-1.335352	575.711567	9.852956	-11.454270	-0.598170	1.989585	1.711440
1.690	8.679211	-1.246811	575.720545	9.912035	-11.611040	-0.598038	2.016784	1.721675
1.700	8.855234	-1.173138	575.333339	9.957117	-11.722794	-0.594745	2.037565	1.730669
1.710	8.989840	-1.121956	574.586035	9.987818	-11.787345	-0.588607	2.051450	1.738263
1.720	9.067310	-1.093488	573.569365	10.004971	-11.805341	-0.580061	2.058224	1.744335
1.730	9.077758	-1.081767	572.413980	10.010613	-11.780026	-0.569549	2.057956	1.748841
1.740	9.017210	-1.077852	571.269773	10.008129	-11.716536	-0.557502	2.050964	1.751909
1.750	8.886074	-1.073512	570.285642	10.002299	-11.621108	-0.544356	2.037770	1.753910
1.760	8.687224	-1.063690	569.594196	9.999091	-11.500468	-0.530545	2.019063	1.755476
1.770	8.425009	-1.046823	569.302051	10.005185	-11.361475	-0.516494	1.995685	1.757447
1.780	8.105734	-1.023415	569.483403	10.027266	-11.210982	-0.502622	1.968623	1.760765
1.790	7.739313	-0.994300	570.174196	10.071116	-11.055936	-0.489351	1.939045	1.766323
1.800	7.341008	-0.959973	571.366387	10.140539	-10.903662	-0.477116	1.908348	1.774787
1.810	6.932066	-0.921176	573.004291	10.236309	-10.762026	-0.466407	1.878176	1.786428
1.820	6.538616	-0.879771	574.985495	10.355478	-10.639098	-0.457801	1.850325	1.800998
1.830	6.188985	-0.838822	577.167245	10.491388	-10.542035	-0.451895	1.826513	1.817738
1.840	5.909994	-0.801742	579.377355	10.634614	-10.475400	-0.449122	1.808044	1.835525
1.850	5.722639	-0.771172	581.428492	10.774735	-10.439556	-0.449578	1.795501	1.853149
1.860	5.637514	-0.748170	583.135837	10.902500	-10.429983	-0.452954	1.788603	1.869633
1.870	5.650661	-0.731920	584.338474	11.011727	-10.438121	-0.458611	1.786314	1.884477
1.880	5.741324	-0.719927	584.922702	11.100350	-10.453686	-0.465760	1.787191	1.897747
1.890	5.873585	-0.708603	584.842208	11.170330	-10.467633	-0.473654	1.789822	1.909973
1.900	6.003079	-0.694049	584.128711	11.226486	-10.474688	-0.481740	1.793216	1.921920
1.910	6.087791	-0.672698	582.888750	11.274729	-10.474618	-0.489728	1.797018	1.934285
1.920	6.099584	-0.641570	581.286466	11.320376	-10.471957	-0.497599	1.801514	1.947469
1.930	6.032188	-0.598171	579.516139	11.366988	-10.474423	-0.505577	1.807443	1.961462
1.940	5.902667	-0.540392	577.770973	11.415804	-10.490571	-0.514013	1.815697	1.975836
1.950	5.745956	-0.466873	576.215422	11.465692	-10.527431	-0.523201	1.826996	1.989827
1.960	5.604487	-0.378019	574.966862	11.513710	-10.588853	-0.533162	1.841646	2.002500
1.970	5.516277	-0.277376	574.088806	11.556353	-10.675007	-0.543542	1.859470	2.012990
1.980	5.505100	-0.172657	573.593913	11.591098	-10.782976	-0.553736	1.879897	2.020785
1.990	5.575652	-0.075570	573.452648	11.617481	-10.907923	-0.563183	1.902149	2.025883
2.000	5.715060	0.000096	573.603360	11.637098	-11.044190	-0.571650	1.925405	2.028771
2.010	5.899840	0.041880	573.961124	11.652448	-11.185982	-0.579307	1.948909	2.030181
2.020	6.105283	0.042411	574.424715	11.665117	-11.327615	-0.586562	1.971993	2.030748
2.030	6.313291	0.001957	574.882850	11.674122	-11.463410	-0.593773	1.994043	2.030696
2.040	6.515481	-0.071366	575.221932	11.675358	-11.587370	-0.600972	2.014417	2.029714
2.050	6.710709	-0.163927	575.337953	11.662657	-11.692867	-0.607698	2.032348	2.027097
2.060	6.898916	-0.260653	575.154316	11.630200	-11.772739	-0.613008	2.046884	2.022101
2.070	7.074877	-0.349378	574.643870	11.575227	-11.820119	-0.615676	2.056947	2.014330
2.080	7.225180	-0.423852	573.848224	11.499850	-11.829939	-0.614589	2.061510	2.003988
2.090	7.329931	-0.484212	572.884187	11.411193	-11.800511	-0.609262	2.059842	1.991885
2.100	7.368232	-0.534897	571.929330	11.319809	-11.734431	-0.600260	2.051727	1.979232
2.110	7.324900	-0.581264	571.185743	11.236884	-11.638317	-0.589284	2.037571	1.967291
2.120	7.195761	-0.626774	570.830711	11.171195	-11.521451	-0.578769	2.018366	1.957007
2.130	6.990044	-0.672003	570.970967	11.126906	-11.393865	-0.571110	1.995524	1.948769
2.140	6.729798	-0.715415	571.617691	11.102939	-11.264635	-0.567826	1.970659	1.942371
2.150	6.446935	-0.754919	572.690303	11.093888	-11.140900	-0.569035	1.945362	1.937153
2.160	6.178429	-0.789223	574.043754	11.091746	-11.027537	-0.573475	1.921027	1.932213
2.170	5.959968	-0.818597	575.505128	11.087630	-10.927025	-0.579069	1.898684	1.926591
2.180	5.818705	-0.845087	576.905023	11.072984	-10.839084	-0.583789	1.878833	1.919377
2.190	5.766644	-0.872452	578.095729	11.040267	-10.760155	-0.586449	1.861310	1.909765
2.200	5.796674	-0.906157	578.956936	10.983425	-10.683207	-0.587014	1.845251	1.897106
2.210	5.882849	-0.953608	579.396388	10.898484	-10.598418	-0.586254	1.829217	1.881007
2.220	5.985373	-1.024158	579.354644	10.784373	-10.494942	-0.584926	1.811488	1.861446
2.230	6.059346	-1.127904	578.818732	10.643756	-10.363414	-0.582965	1.790442	1.838875
2.240	6.065129	-1.272630	577.840670	10.483462	-10.198439	-0.579243	1.764922	1.814248
2.250	5.977453	-1.459629	576.549067	10.314168	-10.000328	-0.572114	1.734515	1.788949
2.260	5.790551	-1.680443	575.141576	10.149164	-9.775537	-0.560425	1.699675	1.764638
2.270	5.517819	-1.916673	573.854522	10.002358	-9.535700	-0.544387	1.661693	1.743013
2.280	5.186631	-2.143502	572.917782	9.886011	-9.295486	-0.525791	1.622482	1.725555
2.290	4.830727	-2.335758	572.509850	9.808880	-9.069951	-0.507445	1.584244	1.713312
2.300	4.483089	-2.474184	572.726496	9.775212	-8.872074	-0.492175	1.549094	1.706785
2.310	4.171175	-2.549834	573.568961	9.784627	-8.710998	-0.481899	1.518736	1.705920
2.320	3.914849	-2.565403	574.949567	9.832601	-8.591037	-0.477174	1.494224	1.710168
2.330	3.726218	-2.533412	576.708235	9.911251	-8.511353	-0.477343	1.475851	1.718590
2.340	3.610227	-2.472121	578.634481	10.010354	-8.466296	-0.481065	1.463151	1.729996
2.350	3.565113	-2.400617	580.493279	10.118641	-8.446508	-0.486906	1.455057	1.743111
2.360	3.582445	-2.334575	582.055098	10.225362	-8.440843	-0.493735	1.450179	1.756769
2.370	3.647277	-2.283683	583.128340	10.321914	-8.438825	-0.500827	1.447164	1.770093
