Time[s]	Fx[N]	Fy[N]	Fz[N]	Mx[Nm]	My[Nm]	Mz[Nm]	COPx[cm]	COPy[cm]
0.010	5.291339	0.858909	598.507797	-3.242348	23.035617	-0.514864	-3.848842	-0.541739
0.020	5.269233	0.915587	598.475900	-3.247104	23.000233	-0.498468	-3.843134	-0.542562
0.030	5.271776	0.955784	598.474592	-3.258901	22.955437	-0.483804	-3.835658	-0.544534
0.040	5.315613	0.966095	598.526720	-3.283334	22.894075	-0.471917	-3.825072	-0.548569
0.050	5.402296	0.939481	598.636814	-3.322817	22.812434	-0.462948	-3.810730	-0.555064
0.060	5.520441	0.878831	598.790218	-3.375979	22.710133	-0.456172	-3.792669	-0.563800
0.070	5.653518	0.798469	598.959538	-3.438095	22.589165	-0.450338	-3.771401	-0.574011
0.080	5.788987	0.721653	599.114321	-3.502392	22.452914	-0.444109	-3.747684	-0.584595
0.090	5.923834	0.673668	599.227136	-3.561853	22.305755	-0.436492	-3.722421	-0.594408
0.100	6.063253	0.672465	599.272667	-3.611045	22.153142	-0.427180	-3.696672	-0.602571
0.110	6.212872	0.720419	599.223975	-3.647592	22.001692	-0.416782	-3.671698	-0.608719
0.120	6.368998	0.800739	599.053782	-3.673075	21.858741	-0.406856	-3.648878	-0.613146
0.130	6.513335	0.880523	598.744578	-3.693256	21.731208	-0.399633	-3.629462	-0.616833
0.140	6.616735	0.920048	598.303531	-3.717424	21.624137	-0.397427	-3.614242	-0.621327
0.150	6.651293	0.885434	597.773130	-3.756699	21.539636	-0.401853	-3.603313	-0.628449
0.160	6.604596	0.760260	597.229413	-3.821381	21.476802	-0.413164	-3.596072	-0.639851
0.170	6.487987	0.551893	596.765852	-3.917950	21.432655	-0.430018	-3.591468	-0.656531
0.180	6.333951	0.290362	596.468800	-4.046697	21.403447	-0.449848	-3.588360	-0.678442
0.190	6.184070	0.020205	596.394949	-4.201023	21.385522	-0.469662	-3.585799	-0.704403
0.200	6.074251	-0.212017	596.559614	-4.369011	21.375369	-0.486950	-3.583107	-0.732368
0.210	6.024508	-0.370584	596.938568	-4.536922	21.369147	-0.500310	-3.579790	-0.760032
0.220	6.036827	-0.439728	597.479595	-4.693383	21.362371	-0.509560	-3.575414	-0.785530
0.230	6.099727	-0.426177	598.116627	-4.832647	21.350225	-0.515349	-3.569576	-0.807977
0.240	6.195166	-0.354730	598.780738	-4.955724	21.328532	-0.518526	-3.561994	-0.827636
0.250	6.303785	-0.259151	599.406811	-5.069050	21.294909	-0.519602	-3.552664	-0.845678
0.260	6.406948	-0.172240	599.938187	-5.181288	21.249500	-0.518548	-3.541948	-0.863637
0.270	6.486840	-0.118606	600.331179	-5.299627	21.194823	-0.514980	-3.530522	-0.882784
0.280	6.527218	-0.111586	600.558727	-5.427092	21.134735	-0.508591	-3.519179	-0.903674
0.290	6.516598	-0.153397	600.611290	-5.561781	21.073019	-0.499588	-3.508595	-0.926020
0.300	6.453074	-0.236683	600.494446	-5.697964	21.012285	-0.488879	-3.499164	-0.948879
0.310	6.347573	-0.346352	600.224536	-5.828275	20.953652	-0.477898	-3.490969	-0.971016
0.320	6.222067	-0.462062	599.824393	-5.946027	20.897225	-0.468178	-3.483890	-0.991295
0.330	6.102037	-0.562145	599.320793	-6.046925	20.843011	-0.460897	-3.477772	-1.008963
0.340	6.006363	-0.628659	598.744365	-6.129818	20.791732	-0.456577	-3.472556	-1.023779
0.350	5.940091	-0.651807	598.131480	-6.196444	20.745041	-0.455012	-3.468308	-1.035967
0.360	5.894340	-0.631833	597.526081	-6.250425	20.704985	-0.455408	-3.465118	-1.046051
0.370	5.853594	-0.577769	596.978495	-6.295954	20.673000	-0.456665	-3.462939	-1.054637
0.380	5.806158	-0.503969	596.539259	-6.336691	20.649081	-0.457672	-3.461479	-1.062242
0.390	5.751611	-0.425978	596.249296	-6.375205	20.631657	-0.457554	-3.460240	-1.069218
0.400	5.700922	-0.357076	596.130943	-6.412966	20.618249	-0.455847	-3.458678	-1.075765
0.410	5.669383	-0.306219	596.184681	-6.450601	20.606551	-0.452585	-3.456404	-1.081980
0.420	5.666713	-0.277498	596.393192	-6.488093	20.595392	-0.448300	-3.453324	-1.087888
0.430	5.690161	-0.270730	596.730033	-6.524743	20.585039	-0.443873	-3.449640	-1.093416
0.440	5.724607	-0.282491	597.167683	-6.558955	20.576655	-0.440325	-3.445708	-1.098344
0.450	5.749542	-0.307023	597.680833	-6.588029	20.571161	-0.438625	-3.441831	-1.102265
0.460	5.748899	-0.336943	598.244236	-6.608244	20.568161	-0.439576	-3.438088	-1.104606
0.470	5.718162	-0.363954	598.827731	-6.615487	20.565545	-0.443702	-3.434301	-1.104740
0.480	5.665070	-0.379676	599.392431	-6.606377	20.560016	-0.451051	-3.430143	-1.102179
0.490	5.603980	-0.376455	599.891586	-6.579536	20.548308	-0.460971	-3.425337	-1.096788
0.500	5.547480	-0.348146	600.277554	-6.536361	20.528542	-0.472029	-3.419842	-1.088890
0.510	5.500115	-0.291105	600.513093	-6.480851	20.500993	-0.482226	-3.413913	-1.079219
0.520	5.457565	-0.205569	600.582118	-6.418571	20.467762	-0.489522	-3.407987	-1.068725
0.530	5.411269	-0.096914	600.494284	-6.355291	20.431404	-0.492495	-3.402431	-1.058343
0.540	5.355369	0.024272	600.280615	-6.295871	20.393268	-0.490858	-3.397289	-1.048821
0.550	5.291924	0.144058	599.982156	-6.243605	20.352525	-0.485614	-3.392188	-1.040632
0.560	5.231793	0.248723	599.636943	-6.199934	20.306433	-0.478752	-3.386455	-1.033948
0.570	5.191065	0.328645	599.271129	-6.164436	20.251605	-0.472654	-3.379373	-1.028656
0.580	5.184988	0.380847	598.898012	-6.135045	20.185481	-0.469416	-3.370437	-1.024389
0.590	5.222084	0.409079	598.524873	-6.108486	20.107164	-0.470346	-3.359453	-1.020590
0.600	5.300643	0.421546	598.163168	-6.080926	20.017270	-0.475770	-3.346456	-1.016600
0.610	5.408632	0.427441	597.835515	-6.048886	19.916970	-0.485147	-3.331513	-1.011798
0.620	5.526954	0.433747	597.575185	-6.010268	19.806816	-0.497387	-3.314531	-1.005776
0.630	5.635282	0.443360	597.419284	-5.965145	19.685879	-0.511238	-3.295153	-0.998485
0.640	5.719162	0.455117	597.400566	-5.915919	19.551416	-0.525555	-3.272748	-0.990277
0.650	5.776494	0.465797	597.541595	-5.866682	19.399010	-0.539397	-3.246470	-0.981803
0.660	5.821011	0.473351	597.850851	-5.821959	19.223127	-0.551959	-3.215372	-0.973815
0.670	5.880489	0.479929	598.318341	-5.785267	19.018129	-0.562483	-3.178597	-0.966921
0.680	5.988693	0.493180	598.910223	-5.758036	18.779852	-0.570261	-3.135671	-0.961419
0.690	6.172562	0.525015	599.565158	-5.739287	18.507604	-0.574742	-3.086838	-0.957242
0.700	6.438876	0.587964	600.196093	-5.726194	18.206037	-0.575646	-3.033348	-0.954054
0.710	6.766056	0.690158	600.699545	-5.715292	17.886037	-0.573023	-2.977535	-0.951439
0.720	7.105606	0.830480	600.972079	-5.703928	17.563895	-0.567268	-2.922581	-0.949117
0.730	7.394195	0.995613	600.931577	-5.691549	17.258657	-0.559108	-2.871984	-0.947121
0.740	7.573112	1.160254	600.538717	-5.680532	16.988210	-0.549543	-2.828828	-0.945906
0.750	7.608620	1.291012	599.812405	-5.676252	16.765215	-0.539701	-2.795076	-0.946338
0.760	7.505843	1.353664	598.833255	-5.686161	16.594237	-0.530622	-2.771095	-0.949540
0.770	7.310341	1.322413	597.732393	-5.717858	16.471136	-0.523082	-2.755604	-0.956592
0.780	7.095599	1.188686	596.667384	-5.776542	16.385104	-0.517553	-2.746103	-0.968134
0.790	6.940021	0.966374	595.790778	-5.862705	16.322642	-0.514296	-2.739660	-0.984021
0.800	6.901503	0.691143	595.218677	-5.971136	16.272092	-0.513490	-2.733801	-1.003184
0.810	6.998605	0.413235	595.007127	-6.092095	16.227081	-0.515279	-2.727208	-1.023869
0.820	7.204547	0.185274	595.142768	-6.214637	16.187835	-0.519680	-2.719992	-1.044226
0.830	7.455394	0.048178	595.550928	-6.331007	16.160164	-0.526342	-2.713481	-1.063051
0.840	7.669284	0.019076	596.119181	-6.440170	16.152761	-0.534198	-2.709653	-1.080349
0.850	7.770386	0.085009	596.728910	-6.548816	16.173903	-0.541178	-2.710427	-1.097452
0.860	7.709954	0.204930	597.284273	-6.669320	16.228621	-0.544181	-2.717068	-1.116607
0.870	7.477882	0.320290	597.729593	-6.815566	16.316995	-0.539492	-2.729829	-1.140242
0.880	7.101851	0.371559	598.052060	-6.998371	16.433798	-0.523663	-2.747887	-1.170194
0.890	6.635913	0.315456	598.272964	-7.222151	16.569396	-0.494713	-2.769538	-1.207167
0.900	6.143894	0.136889	598.433854	-7.483787	16.711630	-0.453270	-2.792561	-1.250562
0.910	5.683759	-0.148498	598.582928	-7.773677	16.848205	-0.403133	-2.814682	-1.298680
0.920	5.297285	-0.501268	598.764101	-8.078170	16.968942	-0.350874	-2.833995	-1.349141
0.930	5.006391	-0.870885	599.008952	-8.382247	17.067281	-0.304449	-2.849253	-1.399353
0.940	4.814817	-1.208693	599.330947	-8.671605	17.140694	-0.271261	-2.859971	-1.446881
0.950	4.712688	-1.476753	599.721617	-8.933883	17.190010	-0.256322	-2.866332	-1.489672
0.960	4.681677	-1.651062	600.149724	-9.159268	17.218028	-0.261143	-2.868955	-1.526164
0.970	4.699699	-1.720664	600.565206	-9.340862	17.228004	-0.283696	-2.868632	-1.555345
0.980	4.745226	-1.685434	600.908562	-9.475038	17.222544	-0.319349	-2.866084	-1.576785
0.990	4.801535	-1.554608	601.123884	-9.561749	17.203149	-0.362354	-2.861831	-1.590645
1.000	4.860371	-1.346276	601.171868	-9.604587	17.170225	-0.407273	-2.856126	-1.597644
1.010	4.923558	-1.086634	601.038594	-9.610456	17.123306	-0.449893	-2.848953	-1.598975
1.020	5.001040	-0.807708	600.736908	-9.588831	17.061476	-0.487447	-2.840091	-1.596178
1.030	5.105137	-0.543314	600.300147	-9.550517	16.984181	-0.518307	-2.829281	-1.590957
1.040	5.242760	-0.324223	599.771360	-9.505832	16.892363	-0.541533	-2.816467	-1.584909
1.050	5.408943	-0.173783	599.192917	-9.462493	16.789317	-0.556640	-2.801989	-1.579206
1.060	5.585227	-0.104648	598.600651	-9.424014	16.680601	-0.563737	-2.786599	-1.574341
1.070	5.744527	-0.116642	598.024074	-9.389574	16.572880	-0.563864	-2.771273	-1.570100
1.080	5.860765	-0.195971	597.491195	-9.355622	16.472199	-0.559169	-2.756894	-1.565817
1.090	5.918802	-0.316663	597.034378	-9.318457	16.382523	-0.552693	-2.743983	-1.560791
1.100	5.919890	-0.445156	596.693083	-9.276438	16.305107	-0.547730	-2.732579	-1.554641
1.110	5.880294	-0.547709	596.510050	-9.230843	16.238872	-0.546964	-2.722313	-1.547475
1.120	5.824195	-0.598575	596.519907	-9.185288	16.181517	-0.551662	-2.712653	-1.539812
1.130	5.774366	-0.586113	596.733404	-9.144302	16.130923	-0.561226	-2.703204	-1.532393
1.140	5.744267	-0.514781	597.124875	-9.111830	16.086260	-0.573329	-2.693952	-1.525951
1.150	5.733883	-0.402772	597.631429	-9.090225	16.048382	-0.584659	-2.685331	-1.521042
1.160	5.730022	-0.276484	598.167552	-9.079976	16.019391	-0.592069	-2.678078	-1.517965
1.170	5.710653	-0.163698	598.650649	-9.080181	16.001574	-0.593713	-2.672940	-1.516775
1.180	5.652150	-0.087303	599.026642	-9.089627	15.996009	-0.589657	-2.670333	-1.517399
1.190	5.537746	-0.060942	599.284554	-9.108084	16.001225	-0.581660	-2.670055	-1.519826
1.200	5.364911	-0.087229	599.454891	-9.137225	16.012424	-0.572207	-2.671164	-1.524256
1.210	5.149197	-0.158565	599.594224	-9.180570	16.021720	-0.563284	-2.672094	-1.531130
1.220	4.922590	-0.260237	599.762899	-9.242320	16.019504	-0.555503	-2.670973	-1.540996
1.230	4.725936	-0.375227	600.003655	-9.325606	15.996520	-0.547949	-2.666070	-1.554258
1.240	4.597229	-0.489666	600.327591	-9.431077	15.945902	-0.538713	-2.656200	-1.570988
1.250	4.559721	-0.597468	600.711241	-9.556616	15.864495	-0.525778	-2.640952	-1.590884
1.260	4.614485	-0.702776	601.104478	-9.698313	15.753082	-0.507852	-2.620690	-1.613416
1.270	4.740592	-0.819336	601.445146	-9.852192	15.615587	-0.484818	-2.596344	-1.638087
1.280	4.903012	-0.966651	601.675047	-10.015821	15.457615	-0.457692	-2.569097	-1.664656
1.290	5.065072	-1.163752	601.752930	-10.188927	15.284941	-0.428181	-2.540069	-1.693208
1.300	5.200280	-1.422309	601.661748	-10.372582	15.102489	-0.398101	-2.510130	-1.723989
1.310	5.298485	-1.741034	601.408888	-10.567223	14.914135	-0.368954	-2.479866	-1.757078
1.320	5.364156	-2.102940	601.020091	-10.770362	14.723132	-0.341859	-2.449691	-1.792014
1.330	5.408713	-2.476286	600.530109	-10.975054	14.532549	-0.317843	-2.419954	-1.827561
1.340	5.441959	-2.819236	599.974591	-11.169822	14.345139	-0.298284	-2.390958	-1.861716
1.350	5.467740	-3.087350	599.386644	-11.340225	14.162493	-0.285150	-2.362831	-1.891972
1.360	5.485784	-3.242251	598.798045	-11.471615	13.983947	-0.280786	-2.335336	-1.915774
1.370	5.497342	-3.259518	598.241404	-11.552295	13.806001	-0.287261	-2.307764	-1.931042
1.380	5.509719	-3.134073	597.749099	-11.576219	13.622989	-0.305550	-2.279048	-1.936635
1.390	5.535950	-2.882000	597.347905	-11.544561	13.429117	-0.334887	-2.248123	-1.932636
1.400	5.589661	-2.538357	597.052154	-11.465765	13.221185	-0.372523	-2.214410	-1.920396
1.410	5.678519	-2.151075	596.859812	-11.353956	13.000633	-0.413983	-2.178172	-1.902282
1.420	5.800341	-1.771790	596.754902	-11.225954	12.773805	-0.453768	-2.140545	-1.881167
1.430	5.943748	-1.445625	596.716788	-11.097579	12.550187	-0.486340	-2.103207	-1.859773
1.440	6.092456	-1.202765	596.733139	-10.980311	12.339376	-0.507175	-2.067821	-1.840071
1.450	6.230843	-1.054311	596.810097	-10.879256	12.148071	-0.513609	-2.035500	-1.822901
1.460	6.348657	-0.993258	596.972868	-10.792914	11.978249	-0.505272	-2.006498	-1.807940
1.470	6.443613	-0.999582	597.254172	-10.714620	11.827082	-0.484007	-1.980243	-1.793980
1.480	6.521292	-1.047067	597.675003	-10.635033	11.688401	-0.453394	-1.955645	-1.779401
1.490	6.592607	-1.109417	598.227010	-10.544770	11.554951	-0.418005	-1.931533	-1.762670
1.500	6.669953	-1.164273	598.865290	-10.436433	11.420559	-0.382591	-1.907033	-1.742701
1.510	6.763516	-1.195201	599.515481	-10.305891	11.281635	-0.351290	-1.881792	-1.719037
1.520	6.878566	-1.192723	600.092668	-10.153031	11.137811	-0.326993	-1.856015	-1.691911
1.530	7.013559	-1.155245	600.524099	-9.982136	10.991768	-0.310984	-1.830362	-1.662237
1.540	7.158726	-1.089681	600.766204	-9.801567	10.848382	-0.302960	-1.805758	-1.631511
1.550	7.295956	-1.010445	600.810557	-9.622324	10.713349	-0.301441	-1.783149	-1.601557
1.560	7.401710	-0.935772	600.680216	-9.455510	10.591543	-0.304465	-1.763258	-1.574134
1.570	7.453967	-0.882011	600.421955	-9.309410	10.485407	-0.310410	-1.746340	-1.550478
1.580	7.441650	-0.858200	600.099229	-9.187278	10.393748	-0.318629	-1.732005	-1.530960
1.590	7.372357	-0.863518	599.786650	-9.086643	10.311352	-0.329602	-1.719170	-1.514979
1.600	7.273650	-0.888698	599.562471	-9.000317	10.229796	-0.344481	-1.706210	-1.501147
1.610	7.185661	-0.920393	599.495057	-8.918678	10.139449	-0.364183	-1.691332	-1.487698
1.620	7.147176	-0.946060	599.624318	-8.832390	10.032094	-0.388505	-1.673063	-1.472987
1.630	7.181119	-0.957079	599.945775	-8.734596	9.903152	-0.415723	-1.650674	-1.455898
1.640	7.286001	-0.949228	600.406855	-8.621841	9.752590	-0.442890	-1.624330	-1.436000
1.650	7.437190	-0.921046	600.919685	-8.493503	9.584218	-0.466662	-1.594925	-1.413417
1.660	7.597429	-0.871397	601.385952	-8.350288	9.403737	-0.484178	-1.563678	-1.388507
1.670	7.731960	-0.797603	601.723385	-8.192766	9.216419	-0.493614	-1.531670	-1.361550
1.680	7.821697	-0.695092	601.883482	-8.020762	9.025390	-0.494299	-1.499524	-1.332610
1.690	7.869044	-0.558935	601.855014	-7.833786	8.831258	-0.486617	-1.467340	-1.301607
1.700	7.894528	-0.386866	601.654920	-7.632098	8.633078	-0.471898	-1.434889	-1.268518
1.710	7.926681	-0.182504	601.313916	-7.417694	8.430015	-0.452372	-1.401932	-1.233581
1.720	7.990244	0.043010	600.864947	-7.194618	8.222806	-0.431072	-1.368495	-1.197377
1.730	8.097824	0.272308	600.337929	-6.968402	8.014454	-0.411562	-1.334990	-1.160747
1.740	8.247709	0.486042	599.758886	-6.744840	7.810043	-0.397401	-1.302197	-1.124592
1.750	8.427150	0.668644	599.150138	-6.528607	7.615894	-0.391437	-1.271116	-1.089645
1.760	8.618080	0.813250	598.530190	-6.322203	7.438482	-0.395080	-1.242791	-1.056288
1.770	8.802066	0.923531	597.913998	-6.125556	7.283451	-0.407812	-1.218144	-1.024488
1.780	8.962940	1.011278	597.314678	-5.936469	7.154940	-0.427170	-1.197851	-0.993860
1.790	9.087424	1.090452	596.746644	-5.751976	7.055213	-0.449349	-1.182279	-0.963889
1.800	9.165244	1.170055	596.228908	-5.570397	6.984560	-0.470289	-1.171456	-0.934272
1.810	9.190034	1.248789	595.786700	-5.393456	6.941557	-0.486885	-1.165108	-0.905266
1.820	9.161277	1.313733	595.450242	-5.227525	6.923776	-0.497794	-1.162780	-0.877911
1.830	9.086328	1.343737	595.250757	-5.083238	6.928829	-0.503496	-1.164018	-0.853966
1.840	8.980956	1.316464	595.214715	-4.973353	6.955279	-0.505603	-1.168533	-0.835556
1.850	8.867133	1.216610	595.357720	-4.909476	7.002920	-0.505770	-1.176254	-0.824626
1.860	8.767861	1.042422	595.679746	-4.898636	7.072231	-0.504741	-1.187254	-0.822361
1.870	8.700253	0.808296	596.163296	-4.940719	7.163407	-0.501985	-1.201585	-0.828753
1.880	8.669219	0.542618	596.774645	-5.027486	7.275640	-0.496133	-1.219160	-0.842443
1.890	8.664233	0.281509	597.466276	-5.143584	7.407220	-0.485946	-1.239772	-0.860899
1.900	8.660770	0.060515	598.178601	-5.269519	7.556367	-0.471320	-1.263229	-0.880927
1.910	8.626479	-0.093038	598.842103	-5.385928	7.722162	-0.453804	-1.289516	-0.899390
1.920	8.530660	-0.164777	599.383902	-5.477784	7.904770	-0.436409	-1.318816	-0.913902
1.930	8.354270	-0.154201	599.741544	-5.536991	8.104639	-0.422773	-1.351355	-0.923230
1.940	8.096968	-0.072300	599.881525	-5.562452	8.321150	-0.416040	-1.387132	-0.927258
1.950	7.778232	0.062772	599.814850	-5.557946	8.551568	-0.417863	-1.425701	-0.926610
1.960	7.431743	0.230291	599.600529	-5.529297	8.790954	-0.427868	-1.466135	-0.922163
1.970	7.095241	0.410299	599.331895	-5.482455	9.033063	-0.443744	-1.507189	-0.914761
1.980	6.800213	0.584931	599.108638	-5.423137	9.271807	-0.461902	-1.547600	-0.905201
1.990	6.565433	0.738231	599.004684	-5.357366	9.502726	-0.478506	-1.586419	-0.894378
2.000	6.395928	0.855857	599.044456	-5.291772	9.723962	-0.490510	-1.623246	-0.883369
2.010	6.286105	0.926041	599.197030	-5.232913	9.936327	-0.496339	-1.658274	-0.873321
2.020	6.224302	0.942147	599.390798	-5.185709	10.142343	-0.496022	-1.692109	-0.865163
2.030	6.196356	0.905805	599.542994	-5.151783	10.344622	-0.490832	-1.725418	-0.859285
2.040	6.187513	0.828665	599.592219	-5.128735	10.544323	-0.482681	-1.758582	-0.855370
2.050	6.183472	0.731156	599.520818	-5.110991	10.740467	-0.473525	-1.791509	-0.852513
2.060	6.171758	0.637880	599.358306	-5.091953	10.930377	-0.464919	-1.823680	-0.849568
2.070	6.143768	0.571018	599.165469	-5.066410	11.110922	-0.457738	-1.854400	-0.845578
2.080	6.096687	0.544206	599.007635	-5.032056	11.279874	-0.452057	-1.883094	-0.840065
2.090	6.034000	0.559372	598.929985	-4.989580	11.436753	-0.447239	-1.909531	-0.833082
2.100	5.963735	0.607785	598.945098	-4.941566	11.582882	-0.442281	-1.933880	-0.825045
2.110	5.894829	0.674693	599.035434	-4.890993	11.720804	-0.436313	-1.956613	-0.816478
2.120	5.833346	0.745261	599.165959	-4.840127	11.853487	-0.429045	-1.978331	-0.807811
2.130	5.780621	0.808922	599.298819	-4.790210	11.983728	-0.420939	-1.999625	-0.799302
2.140	5.734233	0.860245	599.403703	-4.741873	12.114027	-0.413065	-2.021013	-0.791098
2.150	5.690674	0.896459	599.462451	-4.695944	12.246916	-0.406720	-2.042983	-0.783359
2.160	5.647463	0.913657	599.470441	-4.654285	12.385484	-0.402987	-2.066071	-0.776399
2.170	5.603214	0.904408	599.437275	-4.620157	12.533609	-0.402401	-2.090896	-0.770749
2.180	5.556212	0.858805	599.386017	-4.597635	12.695552	-0.404774	-2.118093	-0.767057
2.190	5.503359	0.769071	599.347887	-4.590017	12.874903	-0.409194	-2.148152	-0.765835
2.200	5.440853	0.635652	599.351493	-4.597872	13.073327	-0.414220	-2.181245	-0.767141
2.210	5.366212	0.471422	599.410911	-4.617765	13.289674	-0.418298	-2.217122	-0.770384
2.220	5.280011	0.301052	599.519589	-4.642510	13.519877	-0.420315	-2.255118	-0.774372
2.230	5.186045	0.154783	599.653549	-4.663075	13.757602	-0.420090	-2.294258	-0.777628
2.240	5.089970	0.058754	599.780839	-4.671492	13.995355	-0.418479	-2.333412	-0.778867
2.250	4.997640	0.026114	599.870646	-4.663518	14.225712	-0.416931	-2.371463	-0.777421
2.260	4.914247	0.052936	599.897591	-4.639844	14.442413	-0.416707	-2.407480	-0.773439
2.270	4.844310	0.120485	599.842092	-4.605331	14.641210	-0.418248	-2.440844	-0.767757
2.280	4.791523	0.202357	599.691265	-4.566704	14.820270	-0.421138	-2.471317	-0.761509
2.290	4.757697	0.273298	599.443019	-4.529804	14.980121	-0.424635	-2.499007	-0.755669
2.300	4.741387	0.316450	599.110680	-4.497622	15.123224	-0.428333	-2.524279	-0.750716
2.310	4.737575	0.326901	598.722684	-4.469829	15.253502	-0.432517	-2.547674	-0.746561
2.320	4.739002	0.310835	598.315074	-4.443750	15.376000	-0.438073	-2.569883	-0.742711
2.330	4.738131	0.281128	597.920523	-4.415985	15.496590	-0.446113	-2.591748	-0.738557
