Time[s]	Fx[N]	Fy[N]	Fz[N]	Mx[Nm]	My[Nm]	Mz[Nm]	COPx[cm]	COPy[cm]
0.010	0.636132	1.735455	716.603853	8.511506	1.462866	-0.339498	-0.204139	1.187756
0.020	0.680616	1.747206	713.223563	8.474711	1.727789	-0.356101	-0.242251	1.188226
0.030	0.591834	1.748427	709.668543	8.419187	2.043719	-0.368061	-0.287982	1.186355
0.040	0.283620	1.727188	705.892114	8.331051	2.448402	-0.371709	-0.346852	1.180216
0.050	-0.255349	1.671400	702.062175	8.204958	2.958099	-0.365308	-0.421344	1.168694
0.060	-0.953462	1.572313	698.565719	8.045819	3.563624	-0.349481	-0.510134	1.151763
0.070	-1.675362	1.428830	695.928545	7.867929	4.233331	-0.327140	-0.608300	1.130566
0.080	-2.264500	1.250159	694.673009	7.691536	4.922513	-0.302903	-0.708609	1.107217
0.090	-2.596646	1.055163	695.159755	7.537593	5.586501	-0.282119	-0.803628	1.084296
0.100	-2.626002	0.868297	697.467218	7.422178	6.193259	-0.269685	-0.887964	1.064162
0.110	-2.405836	0.713515	701.351465	7.352369	6.731204	-0.268984	-0.959748	1.048314
0.120	-2.074089	0.608561	706.301161	7.324988	7.209751	-0.281222	-1.020776	1.037091
0.130	-1.808305	0.561748	711.667742	7.328565	7.652886	-0.305274	-1.075345	1.029773
0.140	-1.766919	0.571833	716.823326	7.347543	8.088638	-0.338036	-1.128400	1.025014
0.150	-2.038921	0.629870	721.291839	7.367011	8.538555	-0.375161	-1.183786	1.021363
0.160	-2.619244	0.721348	724.815023	7.376242	9.010819	-0.412037	-1.243189	1.017672
0.170	-3.416344	0.827767	727.343883	7.370122	9.498874	-0.444764	-1.305967	1.013293
0.180	-4.286726	0.928130	728.972749	7.348553	9.985327	-0.470832	-1.369781	1.008070
0.190	-5.082609	1.001452	729.848613	7.314688	10.449091	-0.489263	-1.431679	1.002220
0.200	-5.695700	1.030592	730.091325	7.272957	10.872859	-0.500240	-1.489246	0.996171
0.210	-6.082759	1.006238	729.751727	7.227438	11.248264	-0.504438	-1.541382	0.990397
0.220	-6.266551	0.928922	728.817135	7.180748	11.577232	-0.502486	-1.588496	0.985261
0.230	-6.315360	0.807593	727.253533	7.133548	11.869634	-0.494866	-1.632118	0.980889
0.240	-6.311337	0.655384	725.061164	7.084883	12.138705	-0.482236	-1.674163	0.977143
0.250	-6.320070	0.485097	722.319727	7.033476	12.396192	-0.465860	-1.716164	0.973734
0.260	-6.371207	0.307009	719.207545	6.979571	12.648916	-0.447733	-1.758730	0.970453
0.270	-6.454633	0.129645	715.988698	6.926474	12.897567	-0.430256	-1.801365	0.967400
0.280	-6.531074	-0.038108	712.970490	6.880794	13.137683	-0.415582	-1.842669	0.965088
0.290	-6.551831	-0.185806	710.442047	6.850900	13.362160	-0.404958	-1.880823	0.964315
0.300	-6.480308	-0.302160	708.612861	6.844019	13.564328	-0.398311	-1.914209	0.965833
0.310	-6.307867	-0.376911	707.572883	6.863360	13.740575	-0.394181	-1.941931	0.969986
0.320	-6.058353	-0.402420	707.288312	6.906820	13.891684	-0.390027	-1.964077	0.976521
0.330	-5.779735	-0.373958	707.631796	6.968122	14.022567	-0.382918	-1.981619	0.984710
0.340	-5.526948	-0.288815	708.431527	7.039867	14.140719	-0.370500	-1.996060	0.993726
0.350	-5.344411	-0.145539	709.518737	7.116902	14.254191	-0.351934	-2.008994	1.003060
0.360	-5.256265	0.055065	710.758409	7.198287	14.369832	-0.328360	-2.021760	1.012761
0.370	-5.266891	0.306842	712.058559	7.287045	14.492154	-0.302588	-2.035247	1.023377
0.380	-5.367810	0.594831	713.363118	7.388104	14.622800	-0.278112	-2.049840	1.035672
0.390	-5.544475	0.894099	714.637914	7.505573	14.760511	-0.257957	-2.065453	1.050262
0.400	-5.779104	1.172559	715.857795	7.640494	14.901566	-0.243872	-2.081638	1.067320
0.410	-6.050122	1.397624	716.998188	7.789925	15.040738	-0.236133	-2.097737	1.086464
0.420	-6.331344	1.544765	718.030411	7.947553	15.172593	-0.233875	-2.113085	1.106855
0.430	-6.593459	1.604971	718.919430	8.105431	15.292678	-0.235624	-2.127175	1.127446
0.440	-6.808069	1.588079	719.624609	8.256100	15.398102	-0.239740	-2.139741	1.147279
0.450	-6.952664	1.520274	720.104744	8.394465	15.487363	-0.244673	-2.150710	1.165728
0.460	-7.014634	1.436416	720.326375	8.519005	15.559722	-0.249110	-2.160093	1.182659
0.470	-6.993368	1.370021	720.271143	8.632065	15.614689	-0.252126	-2.167890	1.198447
0.480	-6.900387	1.344516	719.937602	8.739006	15.651935	-0.253353	-2.174068	1.213856
0.490	-6.757629	1.368472	719.337164	8.846300	15.671707	-0.253099	-2.178632	1.229785
0.500	-6.593803	1.435609	718.489375	8.959107	15.675468	-0.252351	-2.181726	1.246937
0.510	-6.438868	1.528823	717.422912	9.079226	15.666385	-0.252620	-2.183703	1.265533
0.520	-6.317510	1.626792	716.183045	9.204312	15.649362	-0.255626	-2.185106	1.285190
0.530	-6.243401	1.711422	714.838648	9.328732	15.630515	-0.262875	-2.186579	1.305012
0.540	-6.216301	1.774053	713.479987	9.445715	15.616255	-0.275260	-2.188745	1.323893
0.550	-6.223133	1.818257	712.205007	9.549902	15.612279	-0.292798	-2.192105	1.340892
0.560	-6.242702	1.857852	711.100813	9.639165	15.622824	-0.314589	-2.196991	1.355527
0.570	-6.252569	1.910534	710.230392	9.714920	15.650329	-0.338964	-2.203557	1.367855
0.580	-6.236094	1.989441	709.629966	9.780880	15.695457	-0.363772	-2.211780	1.378307
0.590	-6.187538	2.096074	709.314560	9.840942	15.757264	-0.386733	-2.221478	1.387388
0.600	-6.113410	2.217614	709.285170	9.897338	15.833465	-0.405779	-2.232313	1.395396
0.610	-6.029368	2.330089	709.532702	9.949979	15.920794	-0.419313	-2.243842	1.402329
0.620	-5.953836	2.406388	710.038229	9.997195	16.015418	-0.426396	-2.255571	1.407980
0.630	-5.901086	2.425917	710.771859	10.037229	16.113273	-0.426920	-2.267010	1.412159
0.640	-5.876954	2.381985	711.692510	10.069529	16.210293	-0.421784	-2.277710	1.414871
0.650	-5.878876	2.284274	712.749703	10.095190	16.302643	-0.412927	-2.287289	1.416372
0.660	-5.899408	2.155986	713.887601	10.116557	16.386966	-0.403035	-2.295455	1.417108
0.670	-5.930392	2.026996	715.050968	10.136406	16.460444	-0.394862	-2.301996	1.417578
0.680	-5.964830	1.925341	716.192166	10.157171	16.520383	-0.390385	-2.306697	1.418219
0.690	-5.995376	1.869745	717.277606	10.180464	16.563301	-0.390168	-2.309190	1.419320
0.700	-6.010930	1.865454	718.290919	10.206964	16.583950	-0.393160	-2.308807	1.421007
0.710	-5.994504	1.904497	719.229177	10.236594	16.575038	-0.396944	-2.304556	1.423273
0.720	-5.925268	1.969903	720.090078	10.268894	16.528299	-0.398355	-2.295310	1.426057
0.730	-5.785550	2.042040	720.853184	10.303421	16.436867	-0.394373	-2.280196	1.429337
0.740	-5.570331	2.104581	721.464464	10.340046	16.298067	-0.383164	-2.259026	1.433202
0.750	-5.294376	2.147982	721.835364	10.379027	16.115362	-0.364923	-2.232554	1.437866
0.760	-4.992214	2.169730	721.861797	10.420800	15.898571	-0.342091	-2.202440	1.443600
0.770	-4.709608	2.172176	721.456624	10.465415	15.662243	-0.318727	-2.170920	1.450595
0.780	-4.489822	2.159554	720.579823	10.511740	15.422838	-0.299197	-2.140337	1.458789
0.790	-4.360908	2.135641	719.251655	10.556756	15.195702	-0.286736	-2.112710	1.467742
0.800	-4.329222	2.102782	717.545442	10.595486	14.992761	-0.282528	-2.089451	1.476629
0.810	-4.380609	2.062156	715.568873	10.622001	14.821364	-0.285690	-2.071270	1.484414
0.820	-4.487001	2.014657	713.447130	10.631355	14.684245	-0.294113	-2.058211	1.490139
0.830	-4.614781	1.961647	711.315696	10.621578	14.580338	-0.305601	-2.049770	1.493230
0.840	-4.732112	1.905197	709.320350	10.594598	14.506007	-0.318682	-2.045057	1.493627
0.850	-4.813941	1.847876	707.614766	10.555521	14.456345	-0.332749	-2.042968	1.491704
0.860	-4.844359	1.792433	706.347163	10.510705	14.426240	-0.347635	-2.042372	1.488037
0.870	-4.816649	1.741535	705.635827	10.465673	14.411105	-0.363052	-2.042287	1.483155
0.880	-4.731897	1.697409	705.542675	10.423840	14.407211	-0.378273	-2.042004	1.477422
0.890	-4.597187	1.661278	706.057840	10.386465	14.411671	-0.392249	-2.041146	1.471050
0.900	-4.424031	1.632870	707.103629	10.353610	14.422183	-0.404058	-2.039614	1.464228
0.910	-4.227030	1.610413	708.556142	10.325407	14.436595	-0.413377	-2.037467	1.457246
0.920	-4.022642	1.591076	710.274043	10.302887	14.452418	-0.420721	-2.034767	1.450551
0.930	-3.828132	1.571448	712.121824	10.287872	14.466539	-0.427323	-2.031470	1.444679
0.940	-3.660952	1.547844	713.980340	10.282044	14.475450	-0.434661	-2.027430	1.440102
0.950	-3.538412	1.516561	715.746077	10.285716	14.476101	-0.443775	-2.022519	1.437062
0.960	-3.476872	1.474260	717.326716	10.297004	14.467064	-0.454681	-2.016803	1.435469
0.970	-3.489417	1.418535	718.640528	10.311888	14.449399	-0.466224	-2.010657	1.434916
0.980	-3.581699	1.348604	719.622513	10.325227	14.426539	-0.476485	-2.004737	1.434812
0.990	-3.747077	1.265981	720.234714	10.332385	14.402907	-0.483562	-1.999752	1.434586
1.000	-3.963392	1.174858	720.474912	10.330782	14.381563	-0.486313	-1.996123	1.433885
1.010	-4.193807	1.081842	720.377991	10.320752	14.361930	-0.484696	-1.993666	1.432686
1.020	-4.392785	0.994844	720.007241	10.305451	14.338809	-0.479613	-1.991481	1.431298
1.030	-4.516304	0.921340	719.437783	10.289996	14.303434	-0.472462	-1.988141	1.430283
1.040	-4.533485	0.866596	718.738735	10.280132	14.246276	-0.464686	-1.982122	1.430302
1.050	-4.435768	0.832648	717.961510	10.280741	14.160343	-0.457475	-1.972298	1.431935
1.060	-4.239950	0.818506	717.137761	10.294473	14.043560	-0.451635	-1.958279	1.435495
1.070	-3.983234	0.821247	716.285143	10.321004	13.899323	-0.447552	-1.940473	1.440907
1.080	-3.711589	0.837075	715.416134	10.357266	13.735243	-0.445256	-1.919896	1.447726
1.090	-3.465766	0.861730	714.545650	10.398665	13.560854	-0.444543	-1.897829	1.455283
1.100	-3.270545	0.890505	713.695368	10.440733	13.385383	-0.445103	-1.875504	1.462912
1.110	-3.131280	0.918589	712.894272	10.480470	13.216425	-0.446542	-1.853911	1.470130
1.120	-3.038471	0.942057	712.175553	10.516826	13.059632	-0.448290	-1.833766	1.476718
1.130	-2.977325	0.959094	711.570478	10.550296	12.918928	-0.449538	-1.815551	1.482678
1.140	-2.937029	0.970581	711.101069	10.582042	12.796718	-0.449342	-1.799564	1.488121
1.150	-2.914939	0.979488	710.774974	10.613064	12.694019	-0.446920	-1.785941	1.493168
1.160	-2.914219	0.989143	710.586218	10.643786	12.610644	-0.442017	-1.774682	1.497888
1.170	-2.937583	1.001068	710.522919	10.674102	12.545528	-0.435105	-1.765675	1.502288
1.180	-2.981939	1.013349	710.578323	10.703764	12.497001	-0.427328	-1.758708	1.506345
1.190	-3.037307	1.020453	710.758182	10.732893	12.462897	-0.420180	-1.753465	1.510063
1.200	-3.090123	1.015005	711.078977	10.762401	12.440525	-0.415106	-1.749528	1.513531
1.210	-3.128293	0.991196	711.557103	10.794132	12.426702	-0.413185	-1.746410	1.516973
1.220	-3.144923	0.948512	712.194660	10.830619	12.417949	-0.414976	-1.743617	1.520739
1.230	-3.139078	0.893976	712.969355	10.874498	12.410818	-0.420462	-1.740723	1.525241
1.240	-3.114104	0.841470	713.833754	10.927685	12.402173	-0.428957	-1.737404	1.530845
1.250	-3.075108	0.807888	714.724353	10.990649	12.389267	-0.438992	-1.733433	1.537747
1.260	-3.026839	0.807362	715.576131	11.062134	12.369598	-0.448322	-1.728621	1.545906
1.270	-2.972377	0.845870	716.335773	11.139492	12.340696	-0.454276	-1.722753	1.555066
1.280	-2.912714	0.918626	716.968200	11.219447	12.300044	-0.454454	-1.715563	1.564846
1.290	-2.847452	1.011505	717.455427	11.299036	12.245257	-0.447551	-1.706762	1.574876
1.300	-2.776365	1.105947	717.790909	11.376532	12.174492	-0.433917	-1.696106	1.584937
1.310	-2.700760	1.185165	717.973566	11.452234	12.086949	-0.415598	-1.683481	1.595077
1.320	-2.623430	1.239160	718.003703	11.528790	11.983285	-0.395805	-1.668973	1.605673
1.330	-2.547174	1.266979	717.880942	11.610648	11.865760	-0.378048	-1.652887	1.617350
1.340	-2.473342	1.275949	717.604077	11.702558	11.738054	-0.365214	-1.635728	1.630782
1.350	-2.401911	1.278583	717.173457	11.807589	11.604732	-0.358880	-1.618121	1.646406
1.360	-2.333027	1.288208	716.595812	11.925568	11.470535	-0.358945	-1.600698	1.664197
1.370	-2.268409	1.314553	715.889298	12.052685	11.339740	-0.363706	-1.584007	1.683596
1.380	-2.211137	1.360605	715.085214	12.182460	11.215807	-0.370388	-1.568457	1.703638
1.390	-2.163789	1.421807	714.224292	12.307578	11.101367	-0.376031	-1.554325	1.723209
1.400	-2.126290	1.487917	713.349390	12.421885	10.998425	-0.378427	-1.541801	1.741346
1.410	-2.094993	1.546769	712.499587	12.521876	10.908646	-0.376765	-1.531039	1.757457
1.420	-2.063767	1.588374	711.709635	12.607286	10.833600	-0.371764	-1.522194	1.771409
1.430	-2.026705	1.607834	711.014050	12.680736	10.774803	-0.365269	-1.515414	1.783472
1.440	-1.980998	1.606266	710.451658	12.746748	10.733418	-0.359514	-1.510788	1.794175
1.450	-1.928290	1.589872	710.066587	12.810560	10.709600	-0.356342	-1.508253	1.804135
1.460	-1.873866	1.568139	709.903997	12.877064	10.701805	-0.356698	-1.507500	1.813916
1.470	-1.824540	1.552180	710.000810	12.950018	10.706486	-0.360524	-1.507954	1.823944
1.480	-1.786872	1.553573	710.373542	13.031575	10.718520	-0.367004	-1.508857	1.834468
1.490	-1.766689	1.583249	711.007427	13.122246	10.732368	-0.374995	-1.509459	1.845585
1.500	-1.769527	1.649858	711.852223	13.221249	10.743586	-0.383422	-1.509244	1.857302
1.510	-1.800691	1.757635	712.828295	13.327133	10.750035	-0.391512	-1.508082	1.869613
1.520	-1.863909	1.904322	713.841722	13.438345	10.752223	-0.398833	-1.506247	1.882538
1.530	-1.958812	2.080039	714.802410	13.553466	10.752649	-0.405200	-1.504283	1.896114
1.540	-2.078621	2.267899	715.637885	13.671055	10.754539	-0.410551	-1.502791	1.910331
1.550	-2.209570	2.446721	716.298436	13.789373	10.760565	-0.414826	-1.502246	1.925088
1.560	-2.332873	2.595450	716.754162	13.906315	10.772085	-0.417918	-1.502898	1.940179
1.570	-2.429016	2.698172	716.988457	14.019682	10.789128	-0.419725	-1.504784	1.955357
1.580	-2.483125	2.748157	716.993710	14.127586	10.810943	-0.420291	-1.507816	1.970392
1.590	-2.489433	2.749469	716.772557	14.228649	10.836684	-0.419929	-1.511872	1.985100
1.600	-2.452805	2.715460	716.343217	14.321919	10.865791	-0.419177	-1.516841	1.999310
1.610	-2.386509	2.664656	715.744125	14.406766	10.897984	-0.418577	-1.522609	2.012837
1.620	-2.307286	2.615512	715.033842	14.483162	10.933055	-0.418430	-1.529026	2.025521
1.630	-2.229975	2.581831	714.285398	14.552305	10.970705	-0.418706	-1.535899	2.037324
1.640	-2.163933	2.570226	713.576397	14.617080	11.010476	-0.419184	-1.542999	2.048425
1.650	-2.112520	2.580052	712.976775	14.681718	11.051718	-0.419727	-1.550081	2.059214
1.660	-2.075639	2.605102	712.536743	14.750359	11.093672	-0.420432	-1.556926	2.070119
1.670	-2.053737	2.635843	712.278542	14.824967	11.135806	-0.421521	-1.563406	2.081344
1.680	-2.050668	2.661376	712.195241	14.903576	11.178380	-0.422995	-1.569567	2.092625
1.690	-2.073322	2.671140	712.256895	14.979938	11.222895	-0.424338	-1.575681	2.103165
1.700	-2.127993	2.656812	712.420898	15.045044	11.271971	-0.424554	-1.582207	2.111820
1.710	-2.215598	2.614517	712.642368	15.090044	11.328492	-0.422588	-1.589646	2.117478
1.720	-2.328729	2.546470	712.882607	15.109334	11.394360	-0.417951	-1.598350	2.119470
1.730	-2.452471	2.460667	713.116051	15.102430	11.469479	-0.411174	-1.608361	2.117808
1.740	-2.568650	2.368034	713.335657	15.073848	11.551494	-0.403786	-1.619363	2.113149
1.750	-2.661160	2.278167	713.554258	15.031100	11.636327	-0.397795	-1.630756	2.106511
1.760	-2.719928	2.195728	713.799037	14.981743	11.719148	-0.394877	-1.641799	2.098874
1.770	-2.742631	2.119041	714.099163	14.930683	11.795310	-0.395703	-1.651775	2.090842
1.780	-2.734739	2.041120	714.470738	14.878778	11.861043	-0.399658	-1.660116	2.082490
1.790	-2.708551	1.952576	714.905045	14.823170	11.913998	-0.405045	-1.666515	2.073446
1.800	-2.681156	1.845347	715.364933	14.758963	11.953687	-0.409664	-1.670991	2.063138
1.810	-2.671004	1.715838	715.791262	14.681320	11.981617	-0.411552	-1.673898	2.051062
1.820	-2.693181	1.566049	716.117929	14.587046	12.000862	-0.409657	-1.675822	2.036961
1.830	-2.754475	1.402261	716.290807	14.475315	12.015040	-0.404176	-1.677397	2.020871
1.840	-2.850117	1.232276	716.284312	14.347719	12.027128	-0.396466	-1.679100	2.003076
1.850	-2.963971	1.062843	716.110017	14.207937	12.038709	-0.388569	-1.681126	1.984044
1.860	-3.072632	0.898409	715.814267	14.061111	12.049961	-0.382531	-1.683392	1.964352
1.870	-3.152294	0.741252	715.464790	13.912943	12.060235	-0.379763	-1.685650	1.944602
1.880	-3.186063	0.592457	715.129862	13.768700	12.068837	-0.380619	-1.687643	1.925343
1.890	-3.169154	0.453175	714.857209	13.632434	12.075653	-0.384347	-1.689240	1.907015
1.900	-3.110220	0.325779	714.661160	13.506605	12.081380	-0.389378	-1.690505	1.889931
1.910	-3.028500	0.214428	714.523211	13.392193	12.087307	-0.393821	-1.691661	1.874284
1.920	-2.947855	0.124580	714.404592	13.289212	12.094832	-0.396019	-1.692995	1.860180
1.930	-2.889550	0.061393	714.264466	13.197474	12.105023	-0.395050	-1.694754	1.847701
1.940	-2.866008	0.027635	714.076679	13.117369	12.118491	-0.391047	-1.697085	1.836969
1.950	-2.877514	0.022071	713.840001	13.050366	12.135585	-0.385212	-1.700043	1.828192
1.960	-2.912940	0.039066	713.579417	12.998983	12.156694	-0.379444	-1.703622	1.821659
1.970	-2.954211	0.069725	713.338574	12.966145	12.182386	-0.375644	-1.707799	1.817670
1.980	-2.982913	0.104271	713.166020	12.954096	12.213191	-0.374952	-1.712531	1.816421
1.990	-2.986573	0.134728	713.099656	12.963324	12.249141	-0.377228	-1.717732	1.817884
2.000	-2.962325	0.156726	713.154627	12.992045	12.289389	-0.381038	-1.723243	1.821771
2.010	-2.916930	0.169776	713.319022	13.036610	12.332216	-0.384185	-1.728850	1.827599
2.020	-2.863757	0.176234	713.558915	13.092678	12.375565	-0.384552	-1.734344	1.834842
2.030	-2.818306	0.179695	713.830198	13.156621	12.417948	-0.380871	-1.739622	1.843102
2.040	-2.793881	0.183640	714.091696	13.226592	12.459346	-0.373058	-1.744782	1.852226
2.050	-2.798558	0.190872	714.314302	13.302974	12.501567	-0.362031	-1.750149	1.862342
2.060	-2.833969	0.203884	714.484130	13.388137	12.547735	-0.349222	-1.756195	1.873819
2.070	-2.895694	0.225825	714.601223	13.485584	12.601034	-0.336163	-1.763366	1.887148
2.080	-2.974611	0.261353	714.676227	13.598717	12.663324	-0.324355	-1.771897	1.902780
2.090	-3.058680	0.316486	714.726141	13.729732	12.734316	-0.315306	-1.781706	1.920978
2.100	-3.135017	0.397065	714.769262	13.879176	12.811697	-0.310507	-1.792424	1.941770
2.110	-3.192327	0.506409	714.820187	14.046363	12.892180	-0.311176	-1.803556	1.965020
2.120	-3.223651	0.643635	714.886680	14.230348	12.973023	-0.317870	-1.814696	1.990574
2.130	-3.228972	0.803878	714.969786	14.430902	13.053455	-0.330186	-1.825735	2.018393
2.140	-3.216819	0.980577	715.066639	14.649013	13.135405	-0.346787	-1.836948	2.048622
2.150	-3.203849	1.168701	715.173713	14.886725	13.223186	-0.365756	-1.848947	2.081554
2.160	-3.211744	1.367180	715.288320	15.146395	13.322170	-0.385167	-1.862490	2.117523
2.170	-3.261732	1.579063	715.408076	15.429575	13.436940	-0.403590	-1.878220	2.156752
2.180	-3.368212	1.808855	715.529662	15.735900	13.569618	-0.420313	-1.896444	2.199196
2.190	-3.533829	2.057942	715.647841	16.062345	13.718959	-0.435187	-1.916999	2.244448
2.200	-3.748020	2.320251	715.754128	16.403073	13.880448	-0.448233	-1.939276	2.291719
2.210	-3.989505	2.580653	715.834341	16.749790	14.047321	-0.459223	-1.962370	2.339897
2.220	-4.231419	2.817615	715.866124	17.092537	14.212121	-0.467455	-1.985304	2.387672
2.230	-4.446905	3.009576	715.819423	17.421080	14.368323	-0.471845	-2.007255	2.433726
2.240	-4.613505	3.142561	715.662339	17.726888	14.511514	-0.471341	-2.027704	2.476991
2.250	-4.716029	3.215746	715.371643	18.005119	14.639808	-0.465515	-2.046462	2.516890
2.260	-4.748476	3.242649	714.943915	18.255596	14.753385	-0.455095	-2.063572	2.553431
2.270	-4.715326	3.247649	714.402260	18.482112	14.853517	-0.442174	-2.079153	2.587073
2.280	-4.631616	3.259299	713.795278	18.690337	14.941641	-0.429860	-2.093267	2.618445
2.290	-4.520746	3.302719	713.187933	18.885466	15.018965	-0.421441	-2.105892	2.648035
2.300	-4.409665	3.393397	712.647209	19.070772	15.086588	-0.419390	-2.116978	2.676047
2.310	-4.322545	3.534140	712.227835	19.247553	15.145722	-0.424662	-2.126528	2.702443
2.320	-4.275194	3.715770	711.963613	19.415963	15.197605	-0.436537	-2.134604	2.727101
2.330	-4.272277	3.920910	711.867382	19.575906	15.242978	-0.452936	-2.141267	2.749937
2.340	-4.308144	4.129464	711.938589	19.727564	15.281412	-0.471012	-2.146451	2.770964
2.350	-4.370505	4.324168	712.173768	19.871767	15.310960	-0.487843	-2.149891	2.790297
