Time[s]	Fx[N]	Fy[N]	Fz[N]	Mx[Nm]	My[Nm]	Mz[Nm]	COPx[cm]	COPy[cm]
0.010	5.171285	-2.186016	592.183504	-2.438374	4.149818	-0.433335	-0.700766	-0.411760
0.020	5.037454	-2.137593	592.252011	-2.391937	4.153808	-0.436950	-0.701358	-0.403871
0.030	4.907443	-2.093583	592.317838	-2.354238	4.167779	-0.438756	-0.703639	-0.397462
0.040	4.787085	-2.057539	592.383553	-2.331649	4.198386	-0.437691	-0.708728	-0.393605
0.050	4.683262	-2.032379	592.458270	-2.326952	4.247184	-0.433819	-0.716875	-0.392762
0.060	4.602483	-2.019510	592.547009	-2.338736	4.311108	-0.428325	-0.727555	-0.394692
0.070	4.548481	-2.017902	592.639632	-2.361874	4.384823	-0.423057	-0.739880	-0.398535
0.080	4.519882	-2.023825	592.710767	-2.389032	4.463620	-0.419827	-0.753086	-0.403069
0.090	4.509178	-2.031695	592.733675	-2.412814	4.545402	-0.419758	-0.766854	-0.407065
0.100	4.503788	-2.035834	592.699285	-2.427817	4.630980	-0.422980	-0.781337	-0.409620
0.110	4.489009	-2.032375	592.626966	-2.431884	4.722799	-0.428773	-0.796926	-0.410357
0.120	4.451773	-2.020352	592.559548	-2.426271	4.822935	-0.436023	-0.813916	-0.409456
0.130	4.383928	-2.001426	592.545165	-2.414886	4.931367	-0.443727	-0.832235	-0.407545
0.140	4.284154	-1.978411	592.614947	-2.402904	5.045281	-0.451310	-0.851359	-0.405475
0.150	4.158069	-1.953353	592.766575	-2.395088	5.159713	-0.458693	-0.870446	-0.404053
0.160	4.016362	-1.926237	592.961286	-2.394306	5.269297	-0.466154	-0.888641	-0.403788
0.170	3.871204	-1.895127	593.136756	-2.400762	5.370388	-0.474071	-0.905422	-0.404757
0.180	3.731844	-1.857832	593.230900	-2.412337	5.462606	-0.482643	-0.920823	-0.406644
0.190	3.601116	-1.814174	593.205785	-2.425781	5.549161	-0.491681	-0.935453	-0.408927
0.200	3.474653	-1.767476	593.061053	-2.438091	5.635873	-0.500600	-0.950302	-0.411103
0.210	3.343468	-1.724281	592.832262	-2.447399	5.729295	-0.508652	-0.966428	-0.412832
0.220	3.198730	-1.692377	592.577205	-2.453207	5.834520	-0.515318	-0.984601	-0.413989
0.230	3.036595	-1.677904	592.357695	-2.456146	5.953356	-0.520627	-1.005027	-0.414639
0.240	2.861188	-1.682683	592.223580	-2.457581	6.083424	-0.525198	-1.027217	-0.414975
0.250	2.684728	-1.702859	592.202225	-2.459283	6.218546	-0.529955	-1.050071	-0.415278
0.260	2.524666	-1.729681	592.294014	-2.463259	6.350338	-0.535668	-1.072160	-0.415885
0.270	2.398630	-1.752261	592.473786	-2.471632	6.470549	-0.542611	-1.092124	-0.417172
0.280	2.318972	-1.761320	592.697579	-2.486469	6.573348	-0.550496	-1.109056	-0.419517
0.290	2.289023	-1.752508	592.912713	-2.509492	6.656771	-0.558672	-1.122724	-0.423248
0.300	2.302243	-1.728191	593.068769	-2.541633	6.722853	-0.566449	-1.133571	-0.428556
0.310	2.344115	-1.696986	593.128077	-2.582538	6.776544	-0.573349	-1.142509	-0.435410
0.320	2.395726	-1.670923	593.075158	-2.630320	6.823980	-0.579214	-1.150610	-0.443505
0.330	2.437985	-1.661005	592.923375	-2.681887	6.870848	-0.584151	-1.158809	-0.452316
0.340	2.455651	-1.672906	592.715260	-2.733833	6.921381	-0.588369	-1.167741	-0.461239
0.350	2.440398	-1.704948	592.513422	-2.783490	6.978028	-0.592022	-1.177700	-0.469777
0.360	2.392153	-1.749403	592.382611	-2.829663	7.041507	-0.595137	-1.188675	-0.477675
0.370	2.318141	-1.796250	592.368431	-2.872780	7.110942	-0.597663	-1.200426	-0.484965
0.380	2.229813	-1.837229	592.481255	-2.914441	7.184095	-0.599616	-1.212544	-0.491904
0.390	2.138811	-1.868277	592.692700	-2.956594	7.257861	-0.601217	-1.224557	-0.498841
0.400	2.053722	-1.889666	592.946593	-3.000723	7.328997	-0.602933	-1.236030	-0.506070
0.410	1.978935	-1.904276	593.179271	-3.047455	7.394796	-0.605392	-1.246638	-0.513749
0.420	1.915669	-1.915087	593.340111	-3.096681	7.453406	-0.609193	-1.256178	-0.521907
0.430	1.864218	-1.923256	593.404611	-3.147983	7.503750	-0.614660	-1.264525	-0.530495
0.440	1.826251	-1.927845	593.377139	-3.201031	7.545210	-0.621627	-1.271571	-0.539460
0.450	1.806021	-1.927326	593.284512	-3.255786	7.577285	-0.629332	-1.277176	-0.548773
0.460	1.809617	-1.921916	593.163609	-3.312524	7.599373	-0.636521	-1.281160	-0.558450
0.470	1.842094	-1.915245	593.047141	-3.371680	7.610804	-0.641779	-1.283339	-0.568535
0.480	1.903618	-1.914165	592.952124	-3.433564	7.611149	-0.643968	-1.283603	-0.579063
0.490	1.986674	-1.926451	592.875078	-3.498040	7.600748	-0.642575	-1.282015	-0.590013
0.500	2.075965	-1.957248	592.795843	-3.564312	7.581288	-0.637848	-1.278904	-0.601271
0.510	2.151173	-2.005930	592.688873	-3.630890	7.556202	-0.630745	-1.274902	-0.612613
0.520	2.191605	-2.065151	592.537951	-3.695741	7.530595	-0.622780	-1.270905	-0.623714
0.530	2.181329	-2.122980	592.348206	-3.756574	7.510520	-0.615779	-1.267923	-0.634183
0.540	2.113513	-2.167447	592.149480	-3.811222	7.501665	-0.611472	-1.266853	-0.643625
0.550	1.992867	-2.191400	591.988559	-3.858137	7.507816	-0.610949	-1.268237	-0.651725
0.560	1.835342	-2.195282	591.913299	-3.896940	7.529612	-0.614179	-1.272080	-0.658363
0.570	1.664846	-2.186588	591.955740	-3.928808	7.564107	-0.619873	-1.277816	-0.663700
0.580	1.507591	-2.176354	592.121137	-3.956426	7.605332	-0.625854	-1.284422	-0.668179
0.590	1.385735	-2.174352	592.386366	-3.983354	7.645682	-0.629828	-1.290658	-0.672425
0.600	1.312538	-2.185228	592.707041	-4.012970	7.677594	-0.630201	-1.295344	-0.677058
0.610	1.290650	-2.207365	593.029849	-4.047374	7.694946	-0.626543	-1.297565	-0.682491
0.620	1.313696	-2.234821	593.305224	-4.086697	7.693830	-0.619534	-1.296774	-0.688802
0.630	1.369819	-2.261081	593.495975	-4.129162	7.672724	-0.610557	-1.292801	-0.695735
0.640	1.445380	-2.282598	593.579974	-4.171920	7.632338	-0.601212	-1.285815	-0.702841
0.650	1.527477	-2.300412	593.548339	-4.212300	7.575467	-0.592925	-1.276302	-0.709681
0.660	1.604992	-2.319194	593.402767	-4.248764	7.506958	-0.586655	-1.265070	-0.716000
0.670	1.668673	-2.344266	593.155078	-4.281053	7.433642	-0.582729	-1.253237	-0.721743
0.680	1.711025	-2.378010	592.829088	-4.309532	7.363885	-0.580896	-1.242160	-0.726943
0.690	1.726626	-2.417430	592.462382	-4.334340	7.306504	-0.580640	-1.233244	-0.731581
0.700	1.713054	-2.454129	592.105390	-4.355005	7.268993	-0.581591	-1.227652	-0.735512
0.710	1.672047	-2.476794	591.816608	-4.370725	7.255431	-0.583839	-1.225959	-0.738527
0.720	1.610187	-2.475160	591.653900	-4.381078	7.264791	-0.587955	-1.227879	-0.740480
0.730	1.538589	-2.443901	591.662143	-4.386712	7.290432	-0.594715	-1.232195	-0.741422
0.740	1.471537	-2.385035	591.858648	-4.389671	7.321184	-0.604623	-1.236982	-0.741676
0.750	1.424229	-2.308080	592.220680	-4.393157	7.343796	-0.617491	-1.240044	-0.741811
0.760	1.409846	-2.227821	592.681796	-4.400773	7.345914	-0.632284	-1.239436	-0.742519
0.770	1.436406	-2.160236	593.142301	-4.415542	7.318669	-0.647312	-1.233881	-0.744432
0.780	1.504460	-2.117843	593.493168	-4.439087	7.258149	-0.660625	-1.222954	-0.747959
0.790	1.606876	-2.106237	593.645903	-4.471286	7.165539	-0.670432	-1.207039	-0.753191
0.800	1.731306	-2.123207	593.557871	-4.510558	7.046110	-0.675449	-1.187097	-0.759919
0.810	1.864488	-2.160593	593.244874	-4.554727	6.907600	-0.675155	-1.164376	-0.767765
0.820	1.996464	-2.207810	592.777649	-4.602174	6.758511	-0.669898	-1.140143	-0.776374
0.830	2.122802	-2.255554	592.263465	-4.652667	6.606731	-0.660791	-1.115505	-0.785574
0.840	2.243881	-2.298518	591.817655	-4.707381	6.458589	-0.649398	-1.091314	-0.795411
0.850	2.361852	-2.336447	591.532916	-4.768019	6.318430	-0.637353	-1.068145	-0.806045
0.860	2.477175	-2.373344	591.455832	-4.835548	6.188741	-0.626068	-1.046357	-0.817567
0.870	2.586845	-2.415075	591.578453	-4.909227	6.070783	-0.616568	-1.026201	-0.829852
0.880	2.685188	-2.466198	591.847193	-4.986386	5.965435	-0.609428	-1.007935	-0.842512
0.890	2.766597	-2.527250	592.184393	-5.063044	5.873880	-0.604752	-0.991901	-0.854978
0.900	2.828605	-2.593749	592.513548	-5.135025	5.797720	-0.602195	-0.978496	-0.866651
0.910	2.873733	-2.657582	592.779274	-5.199117	5.738434	-0.601035	-0.968056	-0.877075
0.920	2.909204	-2.710400	592.956165	-5.253857	5.696463	-0.600316	-0.960689	-0.886045
0.930	2.944535	-2.747534	593.045267	-5.299750	5.670471	-0.599018	-0.956162	-0.893650
0.940	2.987955	-2.770348	593.062020	-5.338867	5.657242	-0.596252	-0.953904	-0.900221
0.950	3.043044	-2.785573	593.023073	-5.373946	5.652280	-0.591454	-0.953130	-0.906195
0.960	3.106923	-2.801889	592.938964	-5.407367	5.650847	-0.584521	-0.953023	-0.911960
0.970	3.170719	-2.825657	592.815254	-5.440488	5.649052	-0.575859	-0.952920	-0.917737
0.980	3.222259	-2.858067	592.659466	-5.473643	5.644599	-0.566295	-0.952419	-0.923573
0.990	3.250150	-2.894863	592.488292	-5.506697	5.636931	-0.556854	-0.951400	-0.929419
1.000	3.247837	-2.928364	592.330046	-5.539714	5.626716	-0.548449	-0.949929	-0.935241
1.010	3.216354	-2.950544	592.220217	-5.573274	5.614910	-0.541617	-0.948112	-0.941081
1.020	3.164873	-2.955969	592.191430	-5.608278	5.601907	-0.536459	-0.945962	-0.947038
1.030	3.108721	-2.943818	592.262034	-5.645423	5.587258	-0.532754	-0.943376	-0.953197
1.040	3.065177	-2.918512	592.428454	-5.684661	5.570113	-0.530142	-0.940217	-0.959552
1.050	3.048259	-2.888662	592.664476	-5.724789	5.550037	-0.528237	-0.936455	-0.965941
1.060	3.064446	-2.864604	592.927339	-5.763216	5.527594	-0.526632	-0.932255	-0.971994
1.070	3.111137	-2.855411	593.168503	-5.796112	5.504307	-0.524865	-0.927950	-0.977144
1.080	3.178373	-2.866350	593.346288	-5.819197	5.482011	-0.522393	-0.923914	-0.980742
1.090	3.252723	-2.897230	593.436753	-5.829146	5.462006	-0.518647	-0.920402	-0.982269
1.100	3.321482	-2.941811	593.438839	-5.825072	5.444484	-0.513161	-0.917446	-0.981579
1.110	3.375642	-2.988685	593.371980	-5.809214	5.428576	-0.505780	-0.914869	-0.979017
1.120	3.411087	-3.023954	593.267972	-5.786315	5.412951	-0.496878	-0.912396	-0.975329
1.130	3.428299	-3.035275	593.160884	-5.761818	5.396600	-0.487477	-0.909804	-0.971375
1.140	3.431210	-3.015895	593.078159	-5.739724	5.379306	-0.479120	-0.907015	-0.967785
1.150	3.425722	-2.967111	593.034670	-5.721152	5.361525	-0.473439	-0.904083	-0.964725
1.160	3.418179	-2.898144	593.030738	-5.704390	5.343815	-0.471554	-0.901102	-0.961905
1.170	3.414072	-2.823405	593.054269	-5.686434	5.326327	-0.473586	-0.898118	-0.958839
1.180	3.417148	-2.758179	593.085893	-5.665291	5.308764	-0.478513	-0.895109	-0.955223
1.190	3.428868	-2.714395	593.105045	-5.641796	5.290833	-0.484505	-0.892057	-0.951231
1.200	3.448154	-2.697900	593.095320	-5.619942	5.272863	-0.489657	-0.889041	-0.947561
1.210	3.471509	-2.707688	593.048508	-5.605474	5.256167	-0.492861	-0.886296	-0.945197
1.220	3.493717	-2.736560	592.967263	-5.603463	5.242949	-0.494431	-0.884189	-0.944987
1.230	3.509192	-2.772640	592.865732	-5.616032	5.235775	-0.496105	-0.883130	-0.947269
1.240	3.513764	-2.801713	592.766998	-5.641308	5.236853	-0.500319	-0.883459	-0.951691
1.250	3.506293	-2.810532	592.696934	-5.673952	5.247467	-0.509064	-0.885354	-0.957311
1.260	3.489344	-2.790531	592.676039	-5.706906	5.267777	-0.522861	-0.888812	-0.962905
1.270	3.468379	-2.740670	592.712289	-5.733550	5.297007	-0.540397	-0.893689	-0.967341
1.280	3.449558	-2.668183	592.797930	-5.749388	5.333827	-0.558975	-0.899772	-0.969873
1.290	3.437098	-2.586928	592.911744	-5.752713	5.376749	-0.575595	-0.906838	-0.970248
1.300	3.431621	-2.513937	593.026460	-5.744212	5.424418	-0.588165	-0.914701	-0.968627
1.310	3.430297	-2.465153	593.118837	-5.725937	5.475785	-0.596310	-0.923219	-0.965395
1.320	3.428335	-2.451424	593.177936	-5.700251	5.530177	-0.601364	-0.932297	-0.960968
1.330	3.420646	-2.475777	593.207277	-5.669203	5.587321	-0.605549	-0.941883	-0.955687
1.340	3.403003	-2.532835	593.219707	-5.634509	5.647340	-0.610736	-0.951981	-0.949818
1.350	3.372791	-2.610767	593.227919	-5.597924	5.710685	-0.617413	-0.962646	-0.943638
1.360	3.329616	-2.695174	593.235827	-5.561553	5.777906	-0.624326	-0.973964	-0.937494
1.370	3.275581	-2.773479	593.235423	-5.527674	5.849234	-0.628958	-0.985989	-0.931784
1.380	3.214917	-2.838089	593.211331	-5.497990	5.924121	-0.628631	-0.998653	-0.926818
1.390	3.153070	-2.887078	593.151445	-5.472635	6.001063	-0.621788	-1.011725	-0.922637
1.400	3.095722	-2.922351	593.057983	-5.449533	6.077845	-0.608899	-1.024832	-0.918887
1.410	3.047926	-2.946513	592.951797	-5.424651	6.152165	-0.592557	-1.037549	-0.914855
1.420	3.013133	-2.960265	592.866178	-5.393229	6.222404	-0.576618	-1.049546	-0.909687
1.430	2.992003	-2.961729	592.832944	-5.351461	6.288282	-0.564724	-1.060717	-0.902693
1.440	2.981506	-2.948041	592.868472	-5.297811	6.351152	-0.558907	-1.071258	-0.893590
1.450	2.975087	-2.918286	592.966968	-5.233312	6.413749	-0.558951	-1.081637	-0.882564
1.460	2.964214	-2.875990	593.103518	-5.160711	6.479436	-0.562792	-1.092463	-0.870120
1.470	2.940810	-2.829318	593.244021	-5.082906	6.551172	-0.567651	-1.104296	-0.856799
1.480	2.899522	-2.788264	593.356229	-5.001438	6.630573	-0.571283	-1.117469	-0.842906
1.490	2.839037	-2.759977	593.416848	-4.915791	6.717388	-0.572779	-1.131985	-0.828387
1.500	2.762274	-2.744644	593.412931	-4.823840	6.809593	-0.572712	-1.147530	-0.812898
1.510	2.675786	-2.734160	593.339188	-4.723235	6.904133	-0.572699	-1.163606	-0.796043
1.520	2.588526	-2.714249	593.194761	-4.612995	6.998097	-0.574670	-1.179730	-0.777653
1.530	2.509799	-2.669082	592.982864	-4.494466	7.089961	-0.580170	-1.195643	-0.757942
1.540	2.446287	-2.586533	592.714208	-4.371128	7.180448	-0.589959	-1.211452	-0.737477
1.550	2.398864	-2.462330	592.411423	-4.247406	7.272646	-0.603961	-1.227634	-0.716969
1.560	2.360673	-2.301941	592.109719	-4.127131	7.371314	-0.621476	-1.244924	-0.697021
1.570	2.317916	-2.119752	591.851180	-4.012396	7.481665	-0.641421	-1.264112	-0.677940
1.580	2.253702	-1.935734	591.674415	-3.903269	7.608087	-0.662514	-1.285857	-0.659699
1.590	2.153804	-1.770488	591.604225	-3.798461	7.753116	-0.683411	-1.310524	-0.642061
1.600	2.012176	-1.640183	591.645978	-3.696657	7.916750	-0.702842	-1.338089	-0.624809
1.610	1.834071	-1.553085	591.787030	-3.597902	8.096083	-0.719731	-1.368074	-0.607972
1.620	1.635574	-1.508755	592.003823	-3.504330	8.285348	-0.733276	-1.399543	-0.591944
1.630	1.439651	-1.499807	592.270115	-3.419729	8.476545	-0.743000	-1.431196	-0.577393
1.640	1.269999	-1.515073	592.561553	-3.348089	8.660704	-0.748782	-1.461570	-0.565020
1.650	1.144636	-1.542844	592.854737	-3.291917	8.829511	-0.750812	-1.489321	-0.555265
1.660	1.071350	-1.573263	593.123087	-3.251248	8.976796	-0.749494	-1.513479	-0.548157
1.670	1.046506	-1.599511	593.334532	-3.223745	9.099461	-0.745343	-1.533614	-0.543327
1.680	1.057366	-1.617896	593.455412	-3.205558	9.197681	-0.738896	-1.549852	-0.540151
1.690	1.086715	-1.627236	593.460700	-3.192356	9.274416	-0.730619	-1.562768	-0.537922
1.700	1.117898	-1.628177	593.345759	-3.180170	9.334438	-0.720857	-1.573187	-0.535973
1.710	1.138588	-1.622771	593.133180	-3.166014	9.383098	-0.709865	-1.581955	-0.533778
1.720	1.142504	-1.614038	592.870885	-3.148235	9.425107	-0.697943	-1.589740	-0.531015
1.730	1.129278	-1.605086	592.621703	-3.126447	9.463643	-0.685578	-1.596911	-0.527562
1.740	1.103153	-1.597911	592.447799	-3.101034	9.500061	-0.673471	-1.603527	-0.523427
1.750	1.071134	-1.592551	592.394695	-3.072508	9.534258	-0.662404	-1.609443	-0.518659
1.760	1.040953	-1.587177	592.479228	-3.041163	9.565480	-0.653035	-1.614484	-0.513294
1.770	1.019004	-1.578952	592.684347	-3.007257	9.593172	-0.645717	-1.618597	-0.507396
1.780	1.008526	-1.565030	592.962359	-2.971489	9.617503	-0.640435	-1.621942	-0.501126
1.790	1.008625	-1.543230	593.246396	-2.935291	9.639366	-0.636844	-1.624850	-0.494784
1.800	1.014815	-1.512433	593.467280	-2.900631	9.659898	-0.634404	-1.627705	-0.488760
1.810	1.021203	-1.472988	593.571036	-2.869422	9.679774	-0.632548	-1.630769	-0.483417
1.820	1.023393	-1.427149	593.532332	-2.842918	9.698605	-0.630811	-1.634048	-0.478983
1.830	1.020642	-1.379201	593.360476	-2.821472	9.714728	-0.628923	-1.637239	-0.475507
1.840	1.016286	-1.334936	593.096133	-2.804715	9.725519	-0.626853	-1.639788	-0.472894
1.850	1.016431	-1.300499	592.799060	-2.791946	9.728185	-0.624752	-1.641059	-0.470977
1.860	1.027661	-1.281103	592.530183	-2.782456	9.720757	-0.622749	-1.640550	-0.469589
1.870	1.054574	-1.280206	592.334361	-2.775690	9.702922	-0.620682	-1.638082	-0.468602
1.880	1.097732	-1.299235	592.230418	-2.771320	9.676411	-0.617999	-1.633893	-0.467946
1.890	1.152487	-1.337415	592.211495	-2.769318	9.644810	-0.613978	-1.628609	-0.467623
1.900	1.209192	-1.391436	592.253570	-2.770096	9.612784	-0.608132	-1.623086	-0.467721
1.910	1.255222	-1.455415	592.327090	-2.774556	9.584900	-0.600485	-1.618177	-0.468416
1.920	1.278596	-1.521875	592.407191	-2.783906	9.564450	-0.591574	-1.614506	-0.469931
1.930	1.272117	-1.583748	592.480063	-2.799225	9.552717	-0.582230	-1.612327	-0.472459
1.940	1.236315	-1.636510	592.544765	-2.820944	9.548871	-0.573304	-1.611502	-0.476073
1.950	1.179799	-1.679423	592.610495	-2.848553	9.550391	-0.565476	-1.611580	-0.480679
1.960	1.116855	-1.715380	592.689877	-2.880701	9.553723	-0.559213	-1.611926	-0.486039
1.970	1.063399	-1.749531	592.790222	-2.915664	9.554976	-0.554854	-1.611865	-0.491854
1.980	1.032806	-1.787211	592.906697	-2.951954	9.550501	-0.552739	-1.610793	-0.497878
1.990	1.032872	-1.831907	593.021541	-2.988798	9.537280	-0.553208	-1.608252	-0.503995
2.000	1.064474	-1.884052	593.110597	-3.026242	9.513147	-0.556444	-1.603942	-0.510232
2.010	1.121919	-1.941050	593.153974	-3.064780	9.476969	-0.562246	-1.597725	-0.516692
2.020	1.194653	-1.998343	593.144946	-3.104645	9.428866	-0.569886	-1.589640	-0.523421
2.030	1.269988	-2.050802	593.092113	-3.145175	9.370365	-0.578158	-1.579917	-0.530301
2.040	1.336390	-2.093868	593.014422	-3.184697	9.304218	-0.585652	-1.568970	-0.537035
2.050	1.386573	-2.124311	592.933405	-3.221056	9.233732	-0.591145	-1.557297	-0.543241
2.060	1.419453	-2.140905	592.867654	-3.252500	9.161731	-0.594005	-1.545325	-0.548605
2.070	1.440255	-2.145120	592.830764	-3.278386	9.089550	-0.594440	-1.533245	-0.553005
2.080	1.458665	-2.141417	592.830513	-3.299246	9.016565	-0.593438	-1.520935	-0.556524
2.090	1.485753	-2.136516	592.867490	-3.316136	8.940539	-0.592394	-1.508016	-0.559338
2.100	1.530889	-2.137471	592.933841	-3.329702	8.858669	-0.592555	-1.494040	-0.561564
2.110	1.599584	-2.149165	593.013934	-3.339567	8.768867	-0.594551	-1.478695	-0.563151
2.120	1.692483	-2.172344	593.088061	-3.344400	8.670685	-0.598233	-1.461956	-0.563896
2.130	1.805282	-2.203018	593.138760	-3.342714	8.565449	-0.602799	-1.444089	-0.563564
2.140	1.929565	-2.233457	593.157469	-3.333935	8.455533	-0.607096	-1.425512	-0.562066
2.150	2.054706	-2.254370	593.147832	-3.319044	8.343098	-0.609902	-1.406580	-0.559564
2.160	2.170709	-2.257439	593.123164	-3.300191	8.228969	-0.610155	-1.387396	-0.556409
2.170	2.271170	-2.237351	593.099154	-3.279429	8.112240	-0.607114	-1.367771	-0.552931
2.180	2.355201	-2.192803	593.085873	-3.257365	7.990810	-0.600462	-1.347328	-0.549223
2.190	2.427300	-2.126520	593.083037	-3.232610	7.862501	-0.590353	-1.325700	-0.545052
2.200	2.494915	-2.044528	593.080094	-3.202334	7.726171	-0.577411	-1.302720	-0.539950
2.210	2.564564	-1.954834	593.060415	-3.163509	7.582383	-0.562706	-1.278518	-0.533421
2.220	2.638360	-1.865457	593.007839	-3.114187	7.433439	-0.547647	-1.253514	-0.525151
2.230	2.712817	-1.782162	592.913309	-3.054237	7.282899	-0.533756	-1.228324	-0.515124
2.240	2.780740	-1.706841	592.779014	-2.985340	7.134797	-0.522335	-1.203618	-0.503618
2.250	2.835238	-1.637590	592.618246	-2.910367	6.992816	-0.514135	-1.179987	-0.491103
2.260	2.873777	-1.570644	592.451357	-2.832595	6.859677	-0.509173	-1.157846	-0.478114
2.270	2.900240	-1.503200	592.300224	-2.755183	6.736849	-0.506813	-1.137404	-0.465167
2.280	2.924142	-1.435606	592.183595	-2.681038	6.624638	-0.506109	-1.118680	-0.452738
2.290	2.957495	-1.371854	592.114342	-2.612813	6.522530	-0.506294	-1.101566	-0.441268
2.300	3.010641	-1.318228	592.098723	-2.552770	6.429699	-0.507175	-1.085917	-0.431139
2.310	3.088464	-1.280911	592.137224	-2.502434	6.345603	-0.509203	-1.071644	-0.422611
2.320	3.188058	-1.263766	592.225793	-2.462214	6.270600	-0.513139	-1.058819	-0.415756
2.330	3.298569	-1.267274	592.356278	-2.431233	6.206413	-0.519517	-1.047750	-0.410434
2.340	3.403464	-1.288750	592.516389	-2.407570	6.156083	-0.528210	-1.038973	-0.406330
