Time[s]	Fx[N]	Fy[N]	Fz[N]	Mx[Nm]	My[Nm]	Mz[Nm]	COPx[cm]	COPy[cm]
0.010	6.229365	-0.529944	727.443274	-10.003153	8.605785	-0.558818	-1.183018	-1.375111
0.020	6.405447	-0.467655	727.069051	-9.907598	8.458249	-0.560991	-1.163335	-1.362676
0.030	6.565263	-0.405829	726.737880	-9.810254	8.321356	-0.561710	-1.145029	-1.349903
0.040	6.695467	-0.343563	726.480469	-9.709877	8.203042	-0.559946	-1.129148	-1.336564
0.050	6.787598	-0.278017	726.304683	-9.606223	8.107510	-0.555521	-1.116268	-1.322616
0.060	6.839465	-0.206200	726.198388	-9.499971	8.035358	-0.549323	-1.106496	-1.308178
0.070	6.855231	-0.127627	726.139651	-9.392348	7.984918	-0.543154	-1.099639	-1.293463
0.080	6.843578	-0.045934	726.107592	-9.284769	7.953993	-0.539184	-1.095429	-1.278704
0.090	6.813934	0.031750	726.088250	-9.178684	7.941232	-0.539224	-1.093701	-1.264128
0.100	6.772120	0.097386	726.074133	-9.075625	7.946827	-0.544120	-1.094492	-1.249958
0.110	6.717730	0.145099	726.060436	-8.977226	7.972496	-0.553505	-1.098048	-1.236430
0.120	6.644883	0.173213	726.042051	-8.885111	8.020920	-0.565966	-1.104746	-1.223774
0.130	6.546150	0.184368	726.013576	-8.800660	8.094837	-0.579501	-1.114971	-1.212189
0.140	6.417600	0.183783	725.971748	-8.724761	8.196003	-0.592080	-1.128970	-1.201804
0.150	6.262223	0.176721	725.918110	-8.657543	8.324317	-0.602136	-1.146729	-1.192634
0.160	6.089726	0.166687	725.859707	-8.598007	8.477481	-0.608818	-1.167923	-1.184527
0.170	5.912700	0.155367	725.806557	-8.543580	8.651485	-0.611988	-1.191982	-1.177115
0.180	5.741061	0.143923	725.766466	-8.489896	8.841946	-0.612035	-1.218291	-1.169783
0.190	5.577644	0.134338	725.739942	-8.431250	9.045833	-0.609697	-1.246429	-1.161745
0.200	5.417242	0.129743	725.719084	-8.361934	9.262698	-0.605933	-1.276348	-1.152227
0.210	5.249738	0.133770	725.692580	-8.278096	9.494556	-0.601833	-1.308344	-1.140717
0.220	5.065887	0.149582	725.654442	-8.179299	9.744149	-0.598451	-1.342808	-1.127162
0.230	4.862834	0.179123	725.610327	-8.068963	10.012277	-0.596530	-1.379842	-1.112024
0.240	4.646542	0.222578	725.576076	-7.953414	10.295473	-0.596227	-1.418938	-1.096152
0.250	4.429934	0.277922	725.568424	-7.839912	10.585309	-0.597033	-1.458899	-1.080520
0.260	4.227885	0.340791	725.593531	-7.734405	10.869830	-0.598010	-1.498061	-1.065942
0.270	4.051729	0.405164	725.640691	-7.639846	11.136611	-0.598275	-1.534728	-1.052841
0.280	3.905853	0.464960	725.685489	-7.555610	11.376137	-0.597511	-1.567640	-1.041169
0.290	3.787396	0.515815	725.700798	-7.478157	11.584113	-0.596221	-1.596266	-1.030474
0.300	3.688396	0.556147	725.669369	-7.402543	11.761851	-0.595603	-1.620828	-1.020099
0.310	3.599073	0.587282	725.591210	-7.324087	11.914761	-0.597069	-1.642076	-1.009396
0.320	3.511134	0.612900	725.482789	-7.239550	12.049794	-0.601567	-1.660934	-0.997894
0.330	3.420293	0.637914	725.369833	-7.147561	12.172954	-0.609011	-1.678172	-0.985368
0.340	3.327261	0.666741	725.278041	-7.048489	12.287842	-0.618078	-1.694225	-0.971833
0.350	3.236824	0.701456	725.225569	-6.944085	12.395562	-0.626524	-1.709201	-0.957507
0.360	3.155448	0.740753	725.219250	-6.837121	12.495632	-0.631918	-1.723014	-0.942766
0.370	3.088768	0.780246	725.254961	-6.731083	12.587059	-0.632514	-1.735536	-0.928099
0.380	3.040290	0.813853	725.321473	-6.629809	12.668759	-0.627965	-1.746641	-0.914051
0.390	3.011781	0.835736	725.405921	-6.536882	12.739124	-0.619626	-1.756137	-0.901134
0.400	3.004701	0.842410	725.498033	-6.454717	12.795227	-0.610304	-1.763647	-0.889695
0.410	3.021546	0.834590	725.591024	-6.383538	12.832454	-0.603458	-1.768552	-0.879771
0.420	3.066127	0.818082	725.679455	-6.320802	12.845185	-0.602030	-1.770091	-0.871019
0.430	3.142401	0.802956	725.756363	-6.261560	12.828590	-0.607337	-1.767617	-0.862763
0.440	3.252255	0.800811	725.812199	-6.199869	12.780960	-0.618500	-1.760918	-0.854197
0.450	3.393324	0.820844	725.837104	-6.130780	12.705611	-0.632724	-1.750477	-0.844650
0.460	3.557974	0.866230	725.826481	-6.052129	12.611430	-0.646327	-1.737527	-0.833826
0.470	3.733986	0.932334	725.787691	-5.965356	12.511652	-0.656060	-1.723872	-0.821915
0.480	3.906574	1.007790	725.743749	-5.874953	12.421135	-0.660130	-1.711504	-0.809508
0.490	4.060821	1.078434	725.730218	-5.786658	12.352932	-0.658565	-1.702138	-0.797357
0.500	4.183815	1.132799	725.784549	-5.705070	12.315221	-0.652882	-1.696815	-0.786056
0.510	4.266294	1.166784	725.931240	-5.631633	12.309527	-0.645347	-1.695688	-0.775780
0.520	4.303949	1.185306	726.168903	-5.563772	12.330743	-0.638186	-1.698054	-0.766182
0.530	4.298453	1.200302	726.464937	-5.495519	12.368850	-0.633054	-1.702608	-0.756474
0.540	4.257852	1.226279	726.760411	-5.419468	12.411732	-0.630871	-1.707816	-0.745702
0.550	4.195809	1.275514	726.983788	-5.329353	12.448278	-0.631908	-1.712319	-0.733077
0.560	4.129249	1.354544	727.069551	-5.222217	12.470999	-0.635905	-1.715242	-0.718256
0.570	4.074588	1.462632	726.976770	-5.099310	12.477495	-0.642062	-1.716354	-0.701441
0.580	4.043427	1.592131	726.702689	-4.965429	12.470348	-0.649006	-1.716018	-0.683282
0.590	4.039260	1.730329	726.287245	-4.827200	12.455540	-0.654970	-1.714961	-0.664641
0.600	4.056539	1.862299	725.806334	-4.691178	12.440065	-0.658306	-1.713965	-0.646340
0.610	4.082680	1.974307	725.354516	-4.562656	12.429659	-0.658194	-1.713598	-0.629024
0.620	4.102459	2.057243	725.021229	-4.445498	12.427370	-0.655148	-1.714070	-0.613154
0.630	4.103351	2.109127	724.867492	-4.342670	12.433198	-0.650951	-1.715237	-0.599098
0.640	4.079923	2.135503	724.910922	-4.256696	12.444593	-0.647955	-1.716707	-0.587203
0.650	4.035632	2.146953	725.124317	-4.189599	12.457436	-0.648040	-1.717972	-0.577777
0.660	3.981519	2.154310	725.447640	-4.142507	12.467071	-0.651762	-1.718535	-0.571028
0.670	3.932490	2.163501	725.807964	-4.115476	12.468960	-0.658096	-1.717942	-0.567020
0.680	3.902777	2.172450	726.139472	-4.107788	12.458732	-0.664908	-1.715749	-0.565702
0.690	3.902250	2.171712	726.396757	-4.118510	12.431797	-0.669920	-1.711433	-0.566978
0.700	3.934763	2.148724	726.558570	-4.146871	12.383161	-0.671722	-1.704358	-0.570755
0.710	3.998744	2.093804	726.623475	-4.192165	12.308001	-0.670346	-1.693862	-0.576938
0.720	4.089317	2.005057	726.601483	-4.253305	12.203034	-0.667141	-1.679467	-0.585370
0.730	4.200845	1.889882	726.505998	-4.328409	12.067977	-0.664092	-1.661098	-0.595784
0.740	4.328804	1.762444	726.349197	-4.414802	11.906171	-0.662953	-1.639180	-0.607807
0.750	4.470355	1.638496	726.142142	-4.509586	11.723873	-0.664618	-1.614542	-0.621033
0.760	4.623650	1.529931	725.898955	-4.610574	11.528592	-0.668921	-1.588181	-0.635154
0.770	4.786567	1.441010	725.642223	-4.717107	11.327376	-0.674839	-1.561014	-0.650060
0.780	4.955603	1.367235	725.405323	-4.830349	11.125878	-0.680931	-1.533746	-0.665883
0.790	5.125227	1.297060	725.228212	-4.952986	10.928437	-0.685846	-1.506896	-0.682955
0.800	5.287674	1.215947	725.146878	-5.088568	10.738790	-0.688731	-1.480912	-0.701729
0.810	5.433395	1.111268	725.180509	-5.240757	10.560709	-0.689412	-1.456287	-0.722683
0.820	5.552711	0.976050	725.322110	-5.412518	10.397967	-0.688257	-1.433565	-0.746223
0.830	5.638737	0.810139	725.537083	-5.605248	10.253549	-0.685794	-1.413236	-0.772565
0.840	5.690585	0.618817	725.771102	-5.818005	10.128509	-0.682295	-1.395551	-0.801631
0.850	5.715095	0.410110	725.964754	-6.047227	10.021202	-0.677569	-1.380398	-0.832992
0.860	5.725721	0.192247	726.069963	-6.287233	9.927423	-0.671051	-1.367282	-0.865927
0.870	5.738552	-0.027818	726.062987	-6.531405	9.841529	-0.662097	-1.355465	-0.899564
0.880	5.767057	-0.244696	725.950170	-6.773524	9.758162	-0.650267	-1.344192	-0.933056
0.890	5.817768	-0.454091	725.765023	-7.008691	9.673946	-0.635498	-1.332931	-0.965697
0.900	5.888410	-0.652213	725.558195	-7.233603	9.588597	-0.618151	-1.321548	-0.996971
0.910	5.968634	-0.835528	725.384021	-7.446384	9.505204	-0.599011	-1.310369	-1.026544
0.920	6.042716	-1.000933	725.287484	-7.646312	9.429757	-0.579215	-1.300141	-1.054246
0.930	6.093467	-1.146096	725.294598	-7.833558	9.370113	-0.560052	-1.291904	-1.080052
0.940	6.106674	-1.269716	725.408222	-8.008840	9.334605	-0.542651	-1.286807	-1.104046
0.950	6.075198	-1.371637	725.610218	-8.172773	9.330399	-0.527661	-1.285869	-1.126331
0.960	6.001570	-1.452896	725.868928	-8.324990	9.361772	-0.515074	-1.289733	-1.146900
0.970	5.897997	-1.515718	726.148950	-8.463443	9.428628	-0.504312	-1.298443	-1.165524
0.980	5.783388	-1.563280	726.419569	-8.584446	9.525715	-0.494535	-1.311324	-1.181748
0.990	5.678115	-1.599105	726.659714	-8.683721	9.643061	-0.485051	-1.327039	-1.195019
1.000	5.598242	-1.626250	726.859133	-8.758213	9.767832	-0.475635	-1.343841	-1.204940
1.010	5.551329	-1.646837	727.015784	-8.807907	9.887248	-0.466597	-1.359977	-1.211515
1.020	5.535276	-1.662264	727.129439	-8.836714	9.991610	-0.458554	-1.374117	-1.215288
1.030	5.540346	-1.673869	727.193527	-8.851709	10.076310	-0.452002	-1.385644	-1.217243
1.040	5.553399	-1.683274	727.190000	-8.860834	10.142095	-0.446942	-1.394697	-1.218503
1.050	5.562714	-1.691883	727.091979	-8.870002	10.193697	-0.442799	-1.401982	-1.219928
1.060	5.561536	-1.699777	726.874892	-8.880885	10.237669	-0.438666	-1.408450	-1.221790
1.070	5.548825	-1.704719	726.531819	-8.890301	10.280559	-0.433769	-1.415018	-1.223663
1.080	5.526728	-1.701832	726.086232	-8.891396	10.328117	-0.427884	-1.422437	-1.224565
1.090	5.495983	-1.684225	725.596127	-8.875999	10.385566	-0.421532	-1.431315	-1.223270
1.100	5.451710	-1.644585	725.146538	-8.837084	10.458342	-0.415894	-1.442238	-1.218662
1.110	5.382227	-1.577410	724.831393	-8.770438	10.552551	-0.412481	-1.455863	-1.209997
1.120	5.272227	-1.481172	724.729369	-8.675199	10.674524	-0.412645	-1.472898	-1.197026
1.130	5.109409	-1.359554	724.880934	-8.553394	10.829290	-0.417083	-1.493941	-1.179972
1.140	4.891598	-1.221037	725.273775	-8.408796	11.018334	-0.425525	-1.519196	-1.159396
1.150	4.630842	-1.076633	725.841107	-8.245517	11.237604	-0.436730	-1.548218	-1.135995
1.160	4.352180	-0.936357	726.473359	-8.066921	11.476942	-0.448786	-1.579816	-1.110422
1.170	4.087206	-0.805980	727.040571	-7.875334	11.721614	-0.459609	-1.612237	-1.083204
1.180	3.864787	-0.685632	727.421076	-7.672539	11.955646	-0.467512	-1.643566	-1.054759
1.190	3.702503	-0.570921	727.530297	-7.460508	12.165764	-0.471719	-1.672200	-1.025457
1.200	3.602001	-0.455966	727.341480	-7.241830	12.344480	-0.472634	-1.697206	-0.995657
1.210	3.549966	-0.336846	726.890701	-7.019750	12.491266	-0.471686	-1.718452	-0.965723
1.220	3.524107	-0.213982	726.264082	-6.798079	12.611543	-0.470737	-1.736495	-0.936034
1.230	3.501446	-0.092512	725.573466	-6.581116	12.713962	-0.471286	-1.752264	-0.907023
1.240	3.465499	0.019480	724.931302	-6.373334	12.807043	-0.473885	-1.766656	-0.879164
1.250	3.410070	0.114197	724.432304	-6.178596	12.896358	-0.478075	-1.780202	-0.852888
1.260	3.339345	0.187504	724.142580	-5.999029	12.983205	-0.482851	-1.792907	-0.828432
1.270	3.265175	0.240928	724.093325	-5.834131	13.065061	-0.487411	-1.804334	-0.805715
1.280	3.202626	0.281403	724.277577	-5.680633	13.137419	-0.491769	-1.813865	-0.784317
1.290	3.164899	0.318971	724.651249	-5.533406	13.196167	-0.496924	-1.821037	-0.763596
1.300	3.158809	0.363544	725.140313	-5.387212	13.239591	-0.504478	-1.825797	-0.742920
1.310	3.182173	0.421969	725.654533	-5.238764	13.269313	-0.515867	-1.828599	-0.721936
1.320	3.224197	0.496164	726.105636	-5.088282	13.289902	-0.531532	-1.830299	-0.700763
1.330	3.269062	0.582777	726.425486	-4.939726	13.307370	-0.550474	-1.831897	-0.680004
1.340	3.301437	0.674597	726.579053	-4.799314	13.327166	-0.570394	-1.834235	-0.660536
1.350	3.311599	0.763429	726.568815	-4.672786	13.352408	-0.588412	-1.837735	-0.643130
1.360	3.298087	0.843253	726.430533	-4.562631	13.382874	-0.602062	-1.842278	-0.628089
1.370	3.267289	0.912061	726.222355	-4.466671	13.414943	-0.610134	-1.847223	-0.615056
1.380	3.230879	0.971595	726.009898	-4.378694	13.442387	-0.613076	-1.851543	-0.603118
1.390	3.202680	1.025497	725.850788	-4.290760	13.457741	-0.612787	-1.854064	-0.591135
1.400	3.196067	1.077247	725.782972	-4.196067	13.453899	-0.611899	-1.853708	-0.578144
1.410	3.222062	1.128949	725.820026	-4.091266	13.425484	-0.612840	-1.849699	-0.563675
1.420	3.287732	1.181359	725.953576	-3.977576	13.369669	-0.617060	-1.841670	-0.547911
1.430	3.394840	1.234712	726.159778	-3.860536	13.286298	-0.624744	-1.829666	-0.531637
1.440	3.539198	1.289450	726.405917	-3.748514	13.177358	-0.635036	-1.814049	-0.516036
1.450	3.711445	1.346120	726.655061	-3.650457	13.046149	-0.646578	-1.795370	-0.502365
1.460	3.899528	1.404464	726.869649	-3.573517	12.896468	-0.658042	-1.774248	-0.491631
1.470	4.092258	1.462412	727.016204	-3.521226	12.732023	-0.668430	-1.751271	-0.484339
1.480	4.282510	1.515600	727.071667	-3.492790	12.556114	-0.677097	-1.726943	-0.480391
1.490	4.468613	1.557793	727.029331	-3.483801	12.371636	-0.683602	-1.701669	-0.479183
1.500	4.653236	1.582405	726.901544	-3.488191	12.181453	-0.687552	-1.675805	-0.479871
1.510	4.840169	1.584979	726.717667	-3.500571	11.988941	-0.688597	-1.649738	-0.481696
1.520	5.030339	1.565628	726.517642	-3.517802	11.798327	-0.686605	-1.623956	-0.484201
1.530	5.218901	1.530037	726.342891	-3.539126	11.614417	-0.681926	-1.599027	-0.487253
1.540	5.395101	1.488156	726.226881	-3.565077	11.441667	-0.675529	-1.575495	-0.490904
1.550	5.545457	1.450846	726.188089	-3.596049	11.282961	-0.668858	-1.553724	-0.495195
1.560	5.659090	1.425657	726.227813	-3.631405	11.138648	-0.663384	-1.533768	-0.500037
1.570	5.732792	1.413589	726.333611	-3.669430	11.006266	-0.659998	-1.515318	-0.505199
1.580	5.773416	1.408567	726.486184	-3.707916	10.881031	-0.658551	-1.497762	-0.510390
1.590	5.796547	1.400266	726.665464	-3.744889	10.756926	-0.657817	-1.480313	-0.515353
1.600	5.822158	1.379031	726.852607	-3.779095	10.628195	-0.655994	-1.462221	-0.519926
1.610	5.869092	1.340326	727.028156	-3.810179	10.490981	-0.651505	-1.442995	-0.524076
1.620	5.950177	1.286362	727.170086	-3.838729	10.344698	-0.643728	-1.422597	-0.527900
1.630	6.069075	1.224278	727.255668	-3.866266	10.192593	-0.633291	-1.401514	-0.531624
1.640	6.219264	1.162264	727.267698	-3.895125	10.041198	-0.621834	-1.380674	-0.535583
1.650	6.385094	1.106069	727.201147	-3.928037	9.898860	-0.611368	-1.361227	-0.540158
1.660	6.544502	1.057507	727.064762	-3.967293	9.774017	-0.603512	-1.344312	-0.545659
1.670	6.672860	1.014997	726.875663	-4.013682	9.673906	-0.598967	-1.330889	-0.552183
1.680	6.747490	0.975183	726.650799	-4.065835	9.603964	-0.597438	-1.321675	-0.559531
1.690	6.752408	0.934772	726.402286	-4.120660	9.567772	-0.597959	-1.317145	-0.567270
1.700	6.682409	0.892075	726.140913	-4.174877	9.567236	-0.599368	-1.317545	-0.574940
1.710	6.545128	0.847775	725.885415	-4.226761	9.602666	-0.600672	-1.322890	-0.582290
1.720	6.359850	0.804427	725.669571	-4.276921	9.672551	-0.601197	-1.332914	-0.589376
1.730	6.152857	0.764631	725.539207	-4.327591	9.773000	-0.600610	-1.346998	-0.596466
1.740	5.950524	0.728599	725.537186	-4.381020	9.897257	-0.598857	-1.364128	-0.603831
1.750	5.772670	0.692528	725.682835	-4.438049	10.035931	-0.596095	-1.382964	-0.611569
1.760	5.628814	0.649186	725.957340	-4.497744	10.178302	-0.592595	-1.402052	-0.619560
1.770	5.518709	0.590997	726.304035	-4.558166	10.314488	-0.588677	-1.420134	-0.627584
1.780	5.436239	0.514368	726.643737	-4.617707	10.437717	-0.584687	-1.436428	-0.635484
1.790	5.374118	0.422934	726.897454	-4.676054	10.545792	-0.581013	-1.450795	-0.643289
1.800	5.326976	0.327626	727.007379	-4.734131	10.641072	-0.578078	-1.463681	-0.651181
1.810	5.291869	0.243075	726.950565	-4.793005	10.728890	-0.576252	-1.475876	-0.659330
1.820	5.266947	0.181978	726.743043	-4.852513	10.815042	-0.575712	-1.488152	-0.667707
1.830	5.249763	0.150272	726.434042	-4.910538	10.903367	-0.576332	-1.500944	-0.675979
1.840	5.236366	0.145415	726.091672	-4.963337	10.994421	-0.577657	-1.514192	-0.683569
1.850	5.221537	0.158371	725.784067	-5.006619	11.085775	-0.579012	-1.527420	-0.689822
1.860	5.199809	0.178214	725.562035	-5.036752	11.173821	-0.579695	-1.540023	-0.694186
1.870	5.166512	0.197254	725.448493	-5.051580	11.256206	-0.579228	-1.551620	-0.696339
1.880	5.118089	0.214291	725.436721	-5.050733	11.333649	-0.577592	-1.562321	-0.696233
1.890	5.051657	0.234430	725.496514	-5.035529	11.410223	-0.575333	-1.572747	-0.694080
1.900	4.964677	0.265600	725.586183	-5.008616	11.492006	-0.573433	-1.583824	-0.690285
1.910	4.855737	0.313694	725.667428	-4.973361	11.584785	-0.572960	-1.596432	-0.685350
1.920	4.726321	0.379112	725.718564	-4.933015	11.691746	-0.574625	-1.611058	-0.679742
1.930	4.582426	0.456639	725.741106	-4.889844	11.811960	-0.578476	-1.627572	-0.673772
1.940	4.434888	0.538513	725.756959	-4.844624	11.940170	-0.583840	-1.645202	-0.667527
1.950	4.298079	0.618509	725.796896	-4.796754	12.067975	-0.589499	-1.662721	-0.660895
1.960	4.187371	0.694492	725.884259	-4.744872	12.186078	-0.593977	-1.678791	-0.653668
1.970	4.115849	0.768238	726.020405	-4.687565	12.286893	-0.595865	-1.692362	-0.645652
1.980	4.090840	0.843242	726.179163	-4.623880	12.366667	-0.594105	-1.702977	-0.636741
1.990	4.111131	0.922256	726.314607	-4.553622	12.426443	-0.588204	-1.710890	-0.626949
2.000	4.166063	1.005899	726.380157	-4.477502	12.471593	-0.578325	-1.716951	-0.616413
2.010	4.237440	1.092708	726.350195	-4.397123	12.510186	-0.565309	-1.722335	-0.605372
2.020	4.304014	1.180155	726.232609	-4.314757	12.550820	-0.550620	-1.728209	-0.594129
2.030	4.347053	1.265814	726.065161	-4.232984	12.600601	-0.536160	-1.735464	-0.583003
2.040	4.354904	1.347966	725.898280	-4.154364	12.663798	-0.523881	-1.744569	-0.572307
2.050	4.325128	1.425246	725.774411	-4.081214	12.741448	-0.515258	-1.755566	-0.562325
2.060	4.263835	1.495563	725.714049	-4.015476	12.831827	-0.510860	-1.768166	-0.553314
2.070	4.182721	1.555178	725.712766	-3.958716	12.931473	-0.510281	-1.781900	-0.545493
2.080	4.094872	1.599008	725.747675	-3.912303	13.036286	-0.512445	-1.796256	-0.539072
2.090	4.010755	1.622635	725.789257	-3.877722	13.142348	-0.516099	-1.810766	-0.534277
2.100	3.935812	1.625151	725.814293	-3.856749	13.246296	-0.520248	-1.825026	-0.531369
2.110	3.870520	1.610903	725.815696	-3.851261	13.345285	-0.524380	-1.838660	-0.530611
2.120	3.812680	1.588405	725.805784	-3.862687	13.436701	-0.528507	-1.851281	-0.532193
2.130	3.760586	1.566406	725.811694	-3.891392	13.517916	-0.533070	-1.862455	-0.536144
2.140	3.715332	1.549142	725.864339	-3.936418	13.586333	-0.538751	-1.871746	-0.542308
2.150	3.681131	1.533625	725.984188	-3.995722	13.639846	-0.546193	-1.878808	-0.550387
2.160	3.663600	1.510797	726.168642	-4.066723	13.677430	-0.555704	-1.883506	-0.560025
2.170	3.666971	1.470143	726.386749	-4.146760	13.699399	-0.567060	-1.885965	-0.570875
2.180	3.691595	1.405350	726.585424	-4.233351	13.707036	-0.579513	-1.886500	-0.582636
2.190	3.733054	1.318037	726.706192	-4.324432	13.701782	-0.592017	-1.885464	-0.595073
2.200	3.783411	1.217746	726.705803	-4.418740	13.684593	-0.603564	-1.883099	-0.608051
2.210	3.833976	1.118403	726.572134	-4.516202	13.655906	-0.613505	-1.879498	-0.621577
2.220	3.878214	1.033123	726.329438	-4.617950	13.616171	-0.621703	-1.874655	-0.635793
2.230	3.913519	0.969622	726.031492	-4.725766	13.566525	-0.628445	-1.868586	-0.650904
2.240	3.941322	0.927759	725.745294	-4.841119	13.509195	-0.634147	-1.861424	-0.667055
2.250	3.965624	0.899677	725.530961	-4.964260	13.447539	-0.639011	-1.853476	-0.684224
2.260	3.990397	0.872299	725.424546	-5.093805	13.385725	-0.642852	-1.845226	-0.702183
2.270	4.016739	0.831464	725.429445	-5.227002	13.328087	-0.645199	-1.837268	-0.720539
2.280	4.041092	0.766469	725.519163	-5.360702	13.278236	-0.645616	-1.830170	-0.738878
2.290	4.055764	0.673496	725.650004	-5.492693	13.238171	-0.644099	-1.824319	-0.756934
2.300	4.052006	0.556576	725.778106	-5.622858	13.207747	-0.641304	-1.819805	-0.774735
2.310	4.024391	0.425693	725.873767	-5.753515	13.184789	-0.638466	-1.816402	-0.792633
2.320	3.974343	0.292835	725.928446	-5.888597	13.165795	-0.636936	-1.813649	-0.811182
2.330	3.911115	0.167807	725.953778	-6.031936	13.146888	-0.637500	-1.810981	-0.830898
2.340	3.849822	0.055623	725.974048	-6.185392	13.124608	-0.639802	-1.807862	-0.852013
