Time[s]	Fx[N]	Fy[N]	Fz[N]	Mx[Nm]	My[Nm]	Mz[Nm]	COPx[cm]	COPy[cm]
0.010	2.645115	-0.471533	447.211152	2.580217	10.038865	-0.741133	-2.244771	0.576957
0.020	2.769111	-0.514131	446.857709	2.452646	9.775831	-0.714499	-2.187683	0.548865
0.030	2.900783	-0.549476	446.549828	2.328059	9.507656	-0.686825	-2.129137	0.521344
0.040	3.055490	-0.575747	446.331847	2.208309	9.229073	-0.657547	-2.067760	0.494768
0.050	3.256227	-0.600526	446.234236	2.092968	8.934402	-0.626578	-2.002178	0.469029
0.060	3.527383	-0.640593	446.262626	1.979202	8.618567	-0.594048	-1.931277	0.443506
0.070	3.883733	-0.717818	446.386245	1.862569	8.278890	-0.560035	-1.854647	0.417255
0.080	4.320182	-0.852283	446.533200	1.738556	7.917049	-0.524619	-1.773003	0.389345
0.090	4.808011	-1.054916	446.599533	1.604388	7.540296	-0.488299	-1.688380	0.359245
0.100	5.300642	-1.322501	446.472236	1.460342	7.161231	-0.452502	-1.603959	0.327085
0.110	5.747115	-1.637190	446.058245	1.309973	6.795999	-0.419753	-1.523568	0.293677
0.120	6.107135	-1.970770	445.308153	1.159259	6.461453	-0.393331	-1.451007	0.260327
0.130	6.360803	-2.291823	444.227191	1.015307	6.172211	-0.376533	-1.389427	0.228556
0.140	6.509809	-2.572929	442.873247	0.885268	5.938480	-0.371880	-1.340898	0.199892
0.150	6.571926	-2.795537	441.346906	0.775583	5.765135	-0.380538	-1.306259	0.175731
0.160	6.573122	-2.951540	439.778788	0.691235	5.652108	-0.402023	-1.285216	0.157178
0.170	6.540204	-3.041907	438.316376	0.634823	5.595716	-0.434165	-1.276639	0.144832
0.180	6.494349	-3.073553	437.109395	0.605832	5.590380	-0.473327	-1.278943	0.138600
0.190	6.445372	-3.055844	436.292562	0.600621	5.630140	-0.514959	-1.290451	0.137665
0.200	6.388232	-2.997940	435.967083	0.613371	5.709634	-0.554518	-1.309648	0.140692
0.210	6.304345	-2.907638	436.185023	0.637662	5.824388	-0.588539	-1.335302	0.146191
0.220	6.168736	-2.791784	436.941061	0.668014	5.970437	-0.615456	-1.366417	0.152884
0.230	5.960680	-2.657633	438.173678	0.700836	6.143477	-0.635789	-1.402064	0.159945
0.240	5.673012	-2.514161	439.774681	0.734651	6.337885	-0.651558	-1.441166	0.167052
0.250	5.315597	-2.372401	441.604618	0.769820	6.546127	-0.665176	-1.482350	0.174323
0.260	4.911467	-2.244454	443.512011	0.807944	6.758986	-0.678333	-1.523969	0.182170
0.270	4.487981	-2.141423	445.354110	0.850988	6.966643	-0.691374	-1.564293	0.191081
0.280	4.067999	-2.070912	447.015547	0.900246	7.160155	-0.703388	-1.601769	0.201390
0.290	3.665646	-2.035006	448.420753	0.955557	7.332630	-0.712877	-1.635212	0.213094
0.300	3.288076	-2.029621	449.537641	1.015139	7.479512	-0.718652	-1.663823	0.225818
0.310	2.941090	-2.045735	450.372837	1.076042	7.597945	-0.720522	-1.687034	0.238922
0.320	2.634884	-2.072140	450.960601	1.134989	7.685591	-0.719470	-1.704271	0.251683
0.330	2.386999	-2.098511	451.348148	1.189334	7.739581	-0.717258	-1.714770	0.263507
0.340	2.221145	-2.117461	451.580013	1.237912	7.756196	-0.715639	-1.717568	0.274129
0.350	2.162044	-2.124894	451.684421	1.281546	7.731506	-0.715579	-1.711705	0.283726
0.360	2.227851	-2.118989	451.665151	1.322946	7.662689	-0.716937	-1.696542	0.292904
0.370	2.422999	-2.098896	451.501869	1.365927	7.549461	-0.718755	-1.672077	0.302530
0.380	2.734620	-2.064130	451.159188	1.414259	7.395067	-0.719945	-1.639126	0.313472
0.390	3.134318	-2.014934	450.601131	1.470678	7.206513	-0.719928	-1.599311	0.326381
0.400	3.584673	-1.953092	449.805778	1.536401	6.993907	-0.718853	-1.554873	0.341570
0.410	4.047859	-1.882365	448.775837	1.611189	6.769017	-0.717349	-1.508329	0.359019
0.420	4.493215	-1.807882	447.543253	1.693722	6.543346	-0.716031	-1.462059	0.378449
0.430	4.901439	-1.734352	446.167586	1.782062	6.326297	-0.715087	-1.417919	0.399415
0.440	5.264767	-1.663883	444.728055	1.874048	6.124110	-0.714166	-1.377046	0.421392
0.450	5.584051	-1.594905	443.309377	1.967502	5.940018	-0.712633	-1.339926	0.443821
0.460	5.864397	-1.523244	441.983837	2.060251	5.775490	-0.709988	-1.306720	0.466137
0.470	6.110884	-1.444954	440.795654	2.150069	5.631904	-0.706167	-1.277668	0.487770
0.480	6.325382	-1.359159	439.755712	2.234741	5.511871	-0.701466	-1.253394	0.508178
0.490	6.505269	-1.269199	438.851824	2.312418	5.419616	-0.696143	-1.234953	0.526925
0.500	6.644605	-1.181585	438.071542	2.382198	5.360306	-0.689952	-1.223614	0.543792
0.510	6.737574	-1.103705	437.425663	2.444653	5.338740	-0.681964	-1.220491	0.558873
0.520	6.782671	-1.041786	436.958397	2.501980	5.358046	-0.670850	-1.226214	0.572590
0.530	6.785318	-0.999988	436.737632	2.557542	5.418969	-0.655526	-1.240784	0.585601
0.540	6.757152	-0.980361	436.830336	2.614910	5.519897	-0.635795	-1.263625	0.598610
0.550	6.711942	-0.982880	437.275311	2.676845	5.657471	-0.612677	-1.293801	0.612165
0.560	6.659991	-1.005268	438.064333	2.744816	5.827455	-0.588303	-1.330274	0.626578
0.570	6.603899	-1.042941	439.136215	2.819453	6.025646	-0.565412	-1.372159	0.642045
0.580	6.537947	-1.089462	440.382599	2.901678	6.248716	-0.546577	-1.418929	0.658899
0.590	6.451357	-1.137217	441.662833	2.993694	6.494886	-0.533426	-1.470553	0.677823
0.600	6.333442	-1.177748	442.826162	3.098921	6.764308	-0.526174	-1.527531	0.699805
0.610	6.177630	-1.201518	443.739200	3.220724	7.059022	-0.523727	-1.590804	0.725815
0.620	5.982423	-1.197705	444.314125	3.360663	7.382401	-0.524321	-1.661527	0.756371
0.630	5.749602	-1.154957	444.530389	3.517312	7.738085	-0.526398	-1.740732	0.791242
0.640	5.481847	-1.063566	444.442498	3.686252	8.128437	-0.529303	-1.828906	0.829410
0.650	5.181979	-0.918521	444.169989	3.861072	8.552846	-0.533454	-1.925579	0.869278
0.660	4.854466	-0.722162	443.871455	4.034862	9.006428	-0.539875	-2.029062	0.909016
0.670	4.507857	-0.485187	443.709028	4.201659	9.479793	-0.549367	-2.136489	0.946940
0.680	4.155737	-0.225521	443.811864	4.357538	9.960212	-0.561797	-2.244242	0.981844
0.690	3.814383	0.034596	444.247419	4.501163	10.434022	-0.575954	-2.348696	1.013211
0.700	3.497354	0.272657	445.007710	4.633737	10.889510	-0.589971	-2.447039	1.041271
0.710	3.209561	0.470457	446.013326	4.758480	11.319274	-0.602001	-2.537878	1.066892
0.720	2.944060	0.618495	447.132359	4.879845	11.721241	-0.610821	-2.621425	1.091365
0.730	2.683442	0.719025	448.207669	5.002676	12.098160	-0.616254	-2.699231	1.116151
0.740	2.405249	0.786189	449.085668	5.131338	12.455939	-0.619418	-2.773622	1.142619
0.750	2.089223	0.842306	449.642095	5.268783	12.801541	-0.622690	-2.847051	1.171773
0.760	1.724094	0.911007	449.802497	5.415556	13.141089	-0.629198	-2.921524	1.203985
0.770	1.312340	1.009634	449.555682	5.568972	13.478582	-0.641803	-2.998201	1.238772
0.780	0.871941	1.143880	448.957493	5.722884	13.815269	-0.661890	-3.077189	1.274705
0.790	0.434347	1.306643	448.121812	5.868421	14.149622	-0.688490	-3.157539	1.309559
0.800	0.038443	1.481114	447.197512	5.995782	14.477870	-0.718224	-3.237467	1.340746
0.810	-0.278566	1.646333	446.334853	6.096706	14.795117	-0.746206	-3.314802	1.365949
0.820	-0.491063	1.782983	445.650867	6.166791	15.096915	-0.767563	-3.387610	1.383772
0.830	-0.592717	1.877748	445.206440	6.206662	15.380863	-0.778926	-3.454771	1.394109
0.840	-0.599255	1.925462	445.003852	6.221421	15.647544	-0.779310	-3.516271	1.398060
0.850	-0.544952	1.929018	445.003231	6.218608	15.900207	-0.770115	-3.573054	1.397430
0.860	-0.473578	1.897444	445.146927	6.205626	16.143248	-0.754415	-3.626499	1.394062
0.870	-0.426816	1.842803	445.379434	6.187645	16.380199	-0.735897	-3.677808	1.389297
0.880	-0.434413	1.776748	445.657293	6.166521	16.612287	-0.717860	-3.727592	1.383691
0.890	-0.509384	1.707554	445.951230	6.140685	16.838072	-0.702498	-3.775765	1.376986
0.900	-0.648868	1.638426	446.245207	6.105775	17.053987	-0.690544	-3.821663	1.368256
0.910	-0.838696	1.567642	446.534449	6.055939	17.255249	-0.681283	-3.864259	1.356209
0.920	-1.059186	1.490515	446.821704	5.985684	17.436790	-0.672955	-3.902404	1.339613
0.930	-1.290629	1.402282	447.111170	5.891877	17.594124	-0.663510	-3.935067	1.317766
0.940	-1.517767	1.300507	447.401612	5.775202	17.724079	-0.651501	-3.961559	1.290832
0.950	-1.732355	1.185872	447.681532	5.640432	17.825210	-0.636749	-3.981672	1.259921
0.960	-1.932549	1.061339	447.928392	5.495427	17.897766	-0.620469	-3.995676	1.226854
0.970	-2.118815	0.930518	448.111551	5.349267	17.943304	-0.604814	-4.004205	1.193736
0.980	-2.288323	0.796110	448.197002	5.210107	17.964263	-0.592046	-4.008118	1.162459
0.990	-2.431196	0.659066	448.152653	5.083260	17.963752	-0.583772	-4.008400	1.134270
1.000	-2.531137	0.518822	447.954225	4.969944	17.945583	-0.580535	-4.006120	1.109476
1.010	-2.570261	0.374624	447.591422	4.867151	17.914259	-0.581852	-4.002369	1.087409
1.020	-2.535750	0.227361	447.072295	4.768888	17.874689	-0.586586	-3.998165	1.066693
1.030	-2.425443	0.080989	446.423648	4.668382	17.831563	-0.593487	-3.994314	1.045729
1.040	-2.250384	-0.057192	445.687400	4.560228	17.788579	-0.601738	-3.991268	1.023190
1.050	-2.033528	-0.177709	444.914961	4.441415	17.747830	-0.611300	-3.989039	0.998262
1.060	-1.804866	-0.271439	444.162184	4.310927	17.709632	-0.622895	-3.987199	0.970575
1.070	-1.594346	-0.332984	443.486364	4.168449	17.672883	-0.637556	-3.984989	0.939927
1.080	-1.424744	-0.363860	442.944826	4.013184	17.635804	-0.655890	-3.981490	0.906024
1.090	-1.306710	-0.374010	442.593130	3.843598	17.596694	-0.677367	-3.975817	0.868427
1.100	-1.237398	-0.380590	442.480827	3.658223	17.554415	-0.699985	-3.967271	0.826753
1.110	-1.202934	-0.404189	442.644104	3.456981	17.508488	-0.720518	-3.955432	0.780984
1.120	-1.183917	-0.463834	443.096690	3.242212	17.458792	-0.735344	-3.940177	0.731717
1.130	-1.162130	-0.572449	443.821949	3.018842	17.404934	-0.741559	-3.921603	0.680192
1.140	-1.125932	-0.733998	444.769112	2.793561	17.345489	-0.737951	-3.899886	0.628092
1.150	-1.072254	-0.942898	445.855368	2.573371	17.277511	-0.725386	-3.875138	0.577176
1.160	-1.004813	-1.185575	446.974401	2.364155	17.196737	-0.706512	-3.847365	0.528924
1.170	-0.930101	-1.443447	448.011238	2.169963	17.098619	-0.684900	-3.816560	0.484355
1.180	-0.853192	-1.696373	448.861809	1.993245	16.979755	-0.664010	-3.782847	0.444066
1.190	-0.774719	-1.925948	449.452563	1.835647	16.838897	-0.646348	-3.746535	0.408418
1.200	-0.689493	-2.118302	449.753013	1.698694	16.676962	-0.633128	-3.708027	0.377695
1.210	-0.586933	-2.265983	449.775173	1.583830	16.496165	-0.624435	-3.667647	0.352138
1.220	-0.453328	-2.368404	449.559326	1.491828	16.298899	-0.619652	-3.625528	0.331842
1.230	-0.275609	-2.430650	449.152724	1.422053	16.086973	-0.617797	-3.581626	0.316608
1.240	-0.045809	-2.461031	448.591924	1.372170	15.861478	-0.617643	-3.535837	0.305884
1.250	0.235080	-2.468306	447.897585	1.338552	15.623229	-0.617746	-3.488125	0.298852
1.260	0.555606	-2.459524	447.083325	1.317155	15.373525	-0.616613	-3.438626	0.294611
1.270	0.896151	-2.439106	446.172016	1.304423	15.114848	-0.613103	-3.387673	0.292359
1.280	1.234594	-2.409300	445.208578	1.297841	14.851169	-0.606856	-3.335778	0.291513
1.290	1.552737	-2.371615	444.260769	1.295928	14.587669	-0.598482	-3.283583	0.291704
1.300	1.840285	-2.328378	443.407103	1.297701	14.330035	-0.589307	-3.231801	0.292666
1.310	2.094968	-2.283550	442.718456	1.301823	14.083618	-0.580794	-3.181168	0.294052
1.320	2.319713	-2.242566	442.242324	1.305871	13.852680	-0.573898	-3.132373	0.295284
1.330	2.518953	-2.211595	441.995827	1.306108	13.639802	-0.568671	-3.085957	0.295502
1.340	2.695959	-2.196642	441.968843	1.298095	13.445508	-0.564266	-3.042185	0.293707
1.350	2.852097	-2.202517	442.134565	1.278121	13.268260	-0.559330	-3.000955	0.289080
1.360	2.987821	-2.231559	442.462478	1.244969	13.104865	-0.552586	-2.961803	0.281373
1.370	3.104288	-2.282289	442.928351	1.201136	12.951180	-0.543315	-2.923990	0.271181
1.380	3.204343	-2.348603	443.517146	1.152769	12.802835	-0.531558	-2.886661	0.259915
1.390	3.292186	-2.420244	444.217868	1.108178	12.655867	-0.518057	-2.849022	0.249467
1.400	3.372015	-2.484953	445.013423	1.075422	12.507188	-0.504041	-2.810519	0.241661
1.410	3.446790	-2.531876	445.871490	1.059792	12.354753	-0.490951	-2.770923	0.237690
1.420	3.518351	-2.554984	446.742141	1.062060	12.197216	-0.480128	-2.730259	0.237734
1.430	3.589232	-2.555020	447.564375	1.078253	12.033165	-0.472494	-2.688589	0.240916
1.440	3.665022	-2.538905	448.278768	1.101229	11.860411	-0.468322	-2.645767	0.245657
1.450	3.755421	-2.516571	448.839827	1.123554	11.675856	-0.467224	-2.601341	0.250324
1.460	3.872637	-2.496400	449.221431	1.140466	11.476143	-0.468415	-2.554674	0.253876
1.470	4.027412	-2.481310	449.412325	1.151601	11.258840	-0.471144	-2.505236	0.256246
1.480	4.224594	-2.467417	449.404220	1.160739	11.023733	-0.475090	-2.452966	0.258284
1.490	4.460657	-2.445961	449.179691	1.173712	10.773690	-0.480558	-2.398526	0.261301
1.500	4.724389	-2.407609	448.708037	1.195541	10.514739	-0.488381	-2.343336	0.266441
1.510	5.000163	-2.347100	447.953494	1.228146	10.255352	-0.499535	-2.289379	0.274168
1.520	5.272054	-2.266166	446.893656	1.269638	10.005277	-0.514550	-2.238850	0.284103
1.530	5.527328	-2.173481	445.540487	1.315199	9.774267	-0.532960	-2.193800	0.295192
1.540	5.758557	-2.081831	443.954199	1.358895	9.570903	-0.553103	-2.155831	0.306089
1.550	5.964111	-2.003898	442.242185	1.395600	9.401655	-0.572480	-2.125907	0.315574
1.560	6.146732	-1.948568	440.541231	1.422553	9.270459	-0.588610	-2.104334	0.322910
1.570	6.310083	-1.919113	438.989620	1.440257	9.179066	-0.599973	-2.090953	0.328085
1.580	6.454104	-1.913452	437.701249	1.452566	9.128085	-0.606574	-2.085460	0.331862
1.590	6.571428	-1.925836	436.752009	1.465865	9.118152	-0.609826	-2.087718	0.335629
1.600	6.647451	-1.948922	436.180465	1.487484	9.150536	-0.611798	-2.097879	0.341025
1.610	6.664936	-1.975435	435.996678	1.523727	9.226793	-0.614231	-2.116253	0.349481
1.620	6.610989	-1.999130	436.190664	1.578110	9.347703	-0.617783	-2.143031	0.361794
1.630	6.482475	-2.015359	436.736070	1.650427	9.512169	-0.621836	-2.178013	0.377900
1.640	6.286798	-2.021577	437.590506	1.736975	9.716682	-0.624844	-2.220497	0.396941
1.650	6.037885	-2.017833	438.696679	1.831785	9.955571	-0.625034	-2.269352	0.417552
1.660	5.750061	-2.006856	439.986983	1.928420	10.221846	-0.621111	-2.323216	0.438290
1.670	5.433553	-1.993268	441.391024	2.021837	10.508243	-0.612727	-2.380711	0.458060
1.680	5.094121	-1.981786	442.843491	2.109763	10.808070	-0.600502	-2.440607	0.476413
1.690	4.736524	-1.975029	444.289820	2.193101	11.115541	-0.585692	-2.501867	0.493619
1.700	4.369065	-1.972074	445.688024	2.275163	11.425532	-0.569717	-2.563572	0.510483
1.710	4.005725	-1.968703	447.006013	2.360136	11.732997	-0.553800	-2.624796	0.527988
1.720	3.663976	-1.959333	448.215269	2.451511	12.032553	-0.538821	-2.684548	0.546950
1.730	3.359257	-1.939638	449.284054	2.551240	12.318569	-0.525317	-2.741822	0.567846
1.740	3.099510	-1.908341	450.174685	2.659920	12.585649	-0.513573	-2.795726	0.590864
1.750	2.883259	-1.867054	450.847778	2.777838	12.829106	-0.503759	-2.845552	0.616137
1.760	2.702491	-1.818051	451.272042	2.906231	13.045154	-0.496165	-2.890752	0.644009
1.770	2.548489	-1.761119	451.434291	3.047948	13.230915	-0.491467	-2.930862	0.675170
1.780	2.417186	-1.691341	451.344173	3.206972	13.384471	-0.490906	-2.965469	0.710538
1.790	2.311410	-1.599378	451.031923	3.386872	13.505065	-0.496180	-2.994259	0.750916
1.800	2.239606	-1.474471	450.541527	3.588834	13.593403	-0.508963	-3.017125	0.796560
1.810	2.212371	-1.308789	449.922501	3.810212	13.651921	-0.530163	-3.034283	0.846860
1.820	2.238387	-1.100956	449.221607	4.044337	13.684918	-0.559191	-3.046362	0.900299
1.830	2.320679	-0.857175	448.474148	4.281776	13.698425	-0.593681	-3.054452	0.954743
1.840	2.453599	-0.589825	447.695227	4.512544	13.699728	-0.629895	-3.060057	1.007950
1.850	2.621135	-0.314756	446.874310	4.728333	13.696609	-0.663764	-3.064980	1.058090
1.860	2.797549	-0.048570	445.978496	4.923945	13.696565	-0.692112	-3.071127	1.104077
1.870	2.951315	0.193519	444.967567	5.097542	13.706199	-0.713542	-3.080269	1.145599
1.880	3.052211	0.399359	443.817574	5.249941	13.730873	-0.728590	-3.093810	1.182905
1.890	3.079616	0.561137	442.544114	5.383485	13.774585	-0.739171	-3.112590	1.216486
1.900	3.028685	0.676250	441.215398	5.501052	13.840056	-0.747654	-3.136803	1.246795
1.910	2.911456	0.747743	439.949016	5.605510	13.929070	-0.755973	-3.166065	1.274127
1.920	2.752260	0.784165	438.892251	5.699658	14.042989	-0.765043	-3.199644	1.298646
1.930	2.579689	0.798472	438.191049	5.786499	14.183153	-0.774563	-3.236751	1.320543
1.940	2.418667	0.805823	437.955575	5.869550	14.350873	-0.783225	-3.276787	1.340216
1.950	2.285140	0.820805	438.231131	5.952917	14.547010	-0.789365	-3.319484	1.358397
1.960	2.183670	0.855076	438.982684	6.040989	14.771474	-0.791873	-3.364933	1.376134
1.970	2.106981	0.916113	440.098828	6.137750	15.022992	-0.790978	-3.413550	1.394630
1.980	2.036995	1.006972	441.415574	6.245831	15.299253	-0.788438	-3.465952	1.414955
1.990	1.947987	1.126443	442.753144	6.365511	15.597308	-0.786968	-3.522800	1.437711
2.000	1.812373	1.269171	443.953714	6.493997	15.914003	-0.789119	-3.584609	1.462765
2.010	1.608306	1.425863	444.908752	6.625367	16.246274	-0.796145	-3.651597	1.489152
2.020	1.326863	1.583993	445.571166	6.751436	16.591227	-0.807380	-3.723586	1.515232
2.030	0.976361	1.729394	445.954735	6.863518	16.945949	-0.820379	-3.799926	1.539062
2.040	0.582085	1.848619	446.125661	6.954612	17.306970	-0.831768	-3.879394	1.558891
2.050	0.181245	1.931376	446.187906	7.021264	17.669480	-0.838384	-3.960098	1.573611
2.060	-0.185336	1.972058	446.260812	7.064352	18.026742	-0.838215	-4.039508	1.583010
2.070	-0.482515	1.969971	446.449812	7.088437	18.370342	-0.830772	-4.114761	1.587734
2.080	-0.689114	1.928757	446.817372	7.099839	18.691534	-0.816861	-4.183260	1.588980
2.090	-0.803866	1.855801	447.365061	7.104189	18.983188	-0.798011	-4.243333	1.588007
2.100	-0.847435	1.761895	448.034249	7.104524	19.241383	-0.775930	-4.294623	1.585710
2.110	-0.858647	1.660526	448.725007	7.100750	19.465792	-0.752268	-4.338023	1.582428
2.120	-0.884305	1.565963	449.325735	7.090565	19.658729	-0.728678	-4.375162	1.578046
2.130	-0.964921	1.490091	449.743155	7.071178	19.823448	-0.706986	-4.407727	1.572270
2.140	-1.121515	1.439105	449.923234	7.040878	19.962634	-0.689129	-4.436898	1.564906
2.150	-1.349144	1.411558	449.857381	6.999834	20.077693	-0.676729	-4.463124	1.556012
2.160	-1.620181	1.398732	449.573887	6.950021	20.168936	-0.670447	-4.486234	1.545913
2.170	-1.895700	1.387297	449.120700	6.894491	20.236260	-0.669518	-4.505751	1.535109
2.180	-2.139369	1.363324	448.548907	6.836315	20.279870	-0.671785	-4.521217	1.524096
2.190	-2.327615	1.316307	447.904429	6.777568	20.300774	-0.674284	-4.532390	1.513173
2.200	-2.452762	1.242035	447.228989	6.718715	20.300990	-0.674139	-4.539283	1.502299
2.210	-2.519944	1.143784	446.565174	6.658606	20.283526	-0.669394	-4.542120	1.491072
2.220	-2.540996	1.031663	445.958964	6.594927	20.252081	-0.659481	-4.541243	1.478819
2.230	-2.528425	0.920116	445.456612	6.524760	20.210495	-0.645230	-4.537029	1.464735
2.240	-2.491366	0.823792	445.097420	6.445003	20.162039	-0.628435	-4.529804	1.447998
2.250	-2.434352	0.752608	444.906322	6.352581	20.108747	-0.611219	-4.519771	1.427847
2.260	-2.358659	0.707612	444.889476	6.244601	20.050988	-0.595424	-4.506959	1.403630
2.270	-2.265012	0.679501	445.034008	6.118640	19.987365	-0.582248	-4.491200	1.374870
2.280	-2.155918	0.650946	445.311239	5.973282	19.915043	-0.572153	-4.472163	1.341372
2.290	-2.036381	0.602268	445.681890	5.808737	19.830475	-0.565010	-4.449468	1.303337
2.300	-1.912958	0.518372	446.101774	5.627167	19.730346	-0.560365	-4.422835	1.261409
2.310	-1.792034	0.394034	446.526922	5.432436	19.612277	-0.557744	-4.392182	1.216598
2.320	-1.678333	0.235179	446.917421	5.229341	19.474945	-0.556818	-4.357616	1.170091
2.330	-1.574172	0.055625	447.239405	5.022741	19.317685	-0.557327	-4.319316	1.123054
2.340	-1.479560	-0.129001	447.465219	4.816882	19.140026	-0.558811	-4.277433	1.076482
2.350	-1.393033	-0.307120	447.573531	4.615016	18.941623	-0.560410	-4.232070	1.031119
2.360	-1.312703	-0.474180	447.552497	4.419282	18.722656	-0.560883	-4.183343	0.987433
2.370	-1.236601	-0.631814	447.407379	4.230868	18.484357	-0.558860	-4.131438	0.945641
2.380	-1.161524	-0.784364	447.169276	4.050513	18.229164	-0.553183	-4.076569	0.905812
