Time[s]	Fx[N]	Fy[N]	Fz[N]	Mx[Nm]	My[Nm]	Mz[Nm]	COPx[cm]	COPy[cm]
0.010	1.221131	-1.721078	718.031429	6.832247	0.096614	0.699230	-0.013455	0.951525
0.020	1.305383	-1.694661	717.849805	6.788851	0.059786	0.657694	-0.008328	0.945720
0.030	1.382034	-1.665086	717.672326	6.755326	0.022483	0.620684	-0.003133	0.941283
0.040	1.445782	-1.630356	717.504504	6.738760	-0.016516	0.591669	0.002302	0.939194
0.050	1.495352	-1.589813	717.354206	6.742307	-0.059379	0.572427	0.008278	0.939885
0.060	1.532763	-1.545356	717.228536	6.765651	-0.108284	0.562994	0.015098	0.943305
0.070	1.561225	-1.501975	717.130812	6.806627	-0.164155	0.562073	0.022891	0.949147
0.080	1.583115	-1.466631	717.060764	6.862871	-0.225952	0.567610	0.031511	0.957084
0.090	1.599423	-1.445397	717.018232	6.932563	-0.290910	0.577272	0.040572	0.966860
0.100	1.610981	-1.440187	717.007479	7.014061	-0.355568	0.588752	0.049591	0.978241
0.110	1.620417	-1.447005	717.038168	7.104952	-0.417090	0.600012	0.058168	0.990875
0.120	1.633152	-1.456985	717.120859	7.201257	-0.474267	0.609528	0.066135	1.004190
0.130	1.656377	-1.459767	717.258578	7.297261	-0.527766	0.616481	0.073581	1.017382
0.140	1.696434	-1.447392	717.439570	7.386108	-0.579420	0.620755	0.080762	1.029509
0.150	1.756039	-1.416791	717.637067	7.461184	-0.630833	0.622716	0.087904	1.039688
0.160	1.832729	-1.369931	717.818434	7.518107	-0.681957	0.622929	0.095004	1.047355
0.170	1.919168	-1.311758	717.960124	7.556760	-0.730432	0.621959	0.101737	1.052532
0.180	2.005058	-1.246849	718.060148	7.582539	-0.772224	0.620348	0.107543	1.055975
0.190	2.079789	-1.176228	718.139798	7.606066	-0.803430	0.618659	0.111877	1.059134
0.200	2.134898	-1.095836	718.231922	7.641100	-0.822425	0.617438	0.114507	1.063876
0.210	2.165816	-0.997554	718.361183	7.701107	-0.831219	0.617032	0.115710	1.072038
0.220	2.172824	-0.872380	718.526971	7.795531	-0.835293	0.617373	0.116251	1.084932
0.230	2.161179	-0.714374	718.698516	7.927031	-0.842011	0.617905	0.117158	1.102970
0.240	2.140111	-0.523765	718.825307	8.090661	-0.858317	0.617757	0.119406	1.125539
0.250	2.120679	-0.308270	718.857533	8.275317	-0.888670	0.616109	0.123623	1.151176
0.260	2.112985	-0.082372	718.765774	8.467003	-0.933909	0.612541	0.129932	1.177992
0.270	2.123596	0.135399	718.550467	8.652729	-0.991345	0.607212	0.137965	1.204192
0.280	2.153878	0.326809	718.238879	8.823727	-1.055840	0.600817	0.147004	1.228523
0.290	2.199727	0.478859	717.874642	8.976944	-1.121255	0.594395	0.156191	1.250489
0.300	2.252974	0.587492	717.506823	9.114467	-1.181625	0.589108	0.164685	1.270297
0.310	2.304174	0.658403	717.182149	9.241286	-1.231828	0.586015	0.171759	1.288555
0.320	2.345613	0.704489	716.939846	9.362385	-1.267943	0.585904	0.176855	1.305881
0.330	2.373145	0.741029	716.807608	9.480285	-1.287586	0.589211	0.179628	1.322570
0.340	2.386085	0.780421	716.798855	9.593927	-1.290270	0.596015	0.180004	1.338441
0.350	2.385571	0.828302	716.912429	9.699103	-1.277512	0.606034	0.178196	1.352899
0.360	2.372689	0.882276	717.134403	9.790050	-1.252484	0.618562	0.174651	1.365162
0.370	2.347847	0.933561	717.440103	9.861368	-1.219173	0.632418	0.169934	1.374521
0.380	2.311865	0.970834	717.795058	9.909510	-1.181317	0.646034	0.164576	1.380549
0.390	2.267742	0.984798	718.156070	9.933371	-1.141491	0.657764	0.158947	1.383177
0.400	2.221199	0.971931	718.475001	9.934025	-1.100702	0.666289	0.153200	1.382654
0.410	2.178989	0.936225	718.706591	9.913989	-1.058647	0.670933	0.147299	1.379421
0.420	2.145831	0.888202	718.818705	9.876610	-1.014505	0.671681	0.141135	1.374006
0.430	2.121955	0.841260	718.801028	9.825883	-0.967864	0.668937	0.134650	1.366982
0.440	2.102769	0.806609	718.668005	9.766525	-0.919308	0.663205	0.127918	1.358976
0.450	2.080633	0.789140	718.453774	9.703879	-0.870330	0.654942	0.121139	1.350662
0.460	2.047659	0.786259	718.200455	9.643340	-0.822598	0.644681	0.114536	1.342709
0.470	1.998200	0.790005	717.944976	9.589424	-0.776979	0.633267	0.108223	1.335677
0.480	1.930277	0.790910	717.711267	9.544793	-0.732999	0.622011	0.102130	1.329893
0.490	1.845816	0.781587	717.511781	9.509627	-0.689183	0.612572	0.096052	1.325362
0.500	1.750046	0.758768	717.356122	9.481561	-0.644199	0.606577	0.089802	1.321737
0.510	1.650458	0.723502	717.259532	9.456246	-0.598164	0.605156	0.083396	1.318386
0.520	1.555662	0.679886	717.244015	9.428402	-0.553255	0.608638	0.077136	1.314532
0.530	1.474282	0.633032	717.329916	9.393132	-0.513222	0.616552	0.071546	1.309458
0.540	1.413745	0.587238	717.522818	9.347168	-0.482040	0.627817	0.067181	1.302700
0.550	1.378779	0.545052	717.804724	9.289709	-0.462399	0.640990	0.064418	1.294183
0.560	1.369853	0.507257	718.136277	9.222610	-0.454739	0.654476	0.063322	1.284242
0.570	1.382465	0.473251	718.468995	9.149863	-0.457173	0.666733	0.063632	1.273522
0.580	1.408287	0.441525	718.759676	9.076487	-0.466285	0.676434	0.064874	1.262799
0.590	1.438264	0.410349	718.978901	9.007065	-0.478482	0.682624	0.066550	1.252758
0.600	1.466362	0.378687	719.111378	8.944279	-0.491302	0.684833	0.068321	1.243796
0.610	1.491925	0.346946	719.151638	8.887927	-0.504067	0.683171	0.070092	1.235891
0.620	1.519133	0.317191	719.099594	8.834886	-0.517571	0.678346	0.071975	1.228604
0.630	1.553755	0.292705	718.957712	8.780235	-0.533063	0.671541	0.074144	1.221245
0.640	1.599040	0.276828	718.729254	8.719082	-0.551168	0.664175	0.076687	1.213125
0.650	1.653123	0.271138	718.417462	8.648182	-0.571359	0.657617	0.079530	1.203782
0.660	1.709356	0.273555	718.027194	8.566501	-0.592157	0.652949	0.082470	1.193061
0.670	1.759099	0.277340	717.570389	8.474597	-0.611722	0.650798	0.085249	1.181013
0.680	1.795232	0.271773	717.073853	8.373453	-0.628318	0.651185	0.087622	1.167725
0.690	1.814477	0.244589	716.584420	8.263651	-0.640382	0.653404	0.089366	1.153200
0.700	1.817538	0.185439	716.166154	8.145321	-0.646296	0.656029	0.090244	1.137351
0.710	1.807363	0.089175	715.888074	8.018619	-0.644157	0.657217	0.089980	1.120094
0.720	1.786836	-0.042339	715.806478	7.884111	-0.631868	0.655347	0.088274	1.101430
0.730	1.757454	-0.200594	715.948993	7.742682	-0.607706	0.649769	0.084881	1.081457
0.740	1.719957	-0.372849	716.305709	7.595117	-0.571254	0.641273	0.079750	1.060318
0.750	1.676481	-0.545699	716.828748	7.441736	-0.524225	0.631922	0.073131	1.038147
0.760	1.632694	-0.708579	717.439455	7.282412	-0.470609	0.624231	0.065596	1.015056
0.770	1.598166	-0.855982	718.042492	7.116945	-0.415898	0.620048	0.057921	0.991159
0.780	1.584178	-0.987739	718.545296	6.945552	-0.365581	0.619684	0.050878	0.966613
0.790	1.599525	-1.107635	718.878723	6.769159	-0.323488	0.621740	0.044999	0.941627
0.800	1.646171	-1.221322	719.013238	6.589348	-0.290614	0.623732	0.040418	0.916443
0.810	1.717135	-1.334309	718.966035	6.408027	-0.264923	0.623219	0.036848	0.891284
0.820	1.798179	-1.450042	718.796428	6.227058	-0.242278	0.618919	0.033706	0.866317
0.830	1.872789	-1.568151	718.588826	6.048053	-0.218269	0.611255	0.030375	0.841657
0.840	1.927907	-1.683717	718.426202	5.872346	-0.190153	0.602092	0.026468	0.817390
0.850	1.957358	-1.788812	718.362220	5.701064	-0.157939	0.593815	0.021986	0.793620
0.860	1.961460	-1.876374	718.403018	5.535280	-0.124003	0.588265	0.017261	0.770498
0.870	1.943859	-1.944622	718.506635	5.376288	-0.091479	0.586026	0.012732	0.748259
0.880	1.908292	-1.999329	718.600682	5.225924	-0.062413	0.586322	0.008685	0.727236
0.890	1.857591	-2.052331	718.611352	5.086647	-0.036770	0.587449	0.005117	0.707844
0.900	1.795122	-2.116881	718.492368	4.961076	-0.012752	0.587521	0.001775	0.690484
0.910	1.726726	-2.202236	718.242239	4.851061	0.011898	0.585225	-0.001657	0.675407
0.920	1.660836	-2.310075	717.903243	4.756792	0.038470	0.580367	-0.005359	0.662595
0.930	1.605887	-2.434070	717.543869	4.676594	0.066586	0.573993	-0.009280	0.651750
0.940	1.566253	-2.562322	717.233813	4.607596	0.094696	0.568027	-0.013203	0.642412
0.950	1.539311	-2.681329	717.023022	4.546904	0.121449	0.564508	-0.016938	0.634136
0.960	1.515783	-2.779950	716.932615	4.492600	0.147012	0.564742	-0.020506	0.626642
0.970	1.483741	-2.852161	716.958148	4.444146	0.173326	0.568776	-0.024175	0.619861
0.980	1.434583	-2.897970	717.079408	4.402207	0.203035	0.575435	-0.028314	0.613908
0.990	1.367954	-2.922427	717.269669	4.368211	0.237790	0.582891	-0.033152	0.609005
1.000	1.292922	-2.933220	717.500733	4.343936	0.277041	0.589393	-0.038612	0.605426
1.010	1.224506	-2.937830	717.744530	4.331139	0.318047	0.593802	-0.044312	0.603437
1.020	1.177135	-2.941278	717.974191	4.331219	0.357039	0.595728	-0.049729	0.603256
1.030	1.158260	-2.945119	718.166753	4.344909	0.390805	0.595358	-0.054417	0.605000
1.040	1.165196	-2.947546	718.307378	4.372114	0.417893	0.593177	-0.058177	0.608669
1.050	1.186589	-2.944014	718.392891	4.412075	0.438856	0.589803	-0.061089	0.614159
1.060	1.207572	-2.927982	718.432010	4.463875	0.455479	0.586043	-0.063399	0.621336
1.070	1.215992	-2.891876	718.441213	4.527192	0.469457	0.583109	-0.065344	0.630141
1.080	1.206970	-2.828540	718.437676	4.603053	0.481298	0.582772	-0.066992	0.640703
1.090	1.184142	-2.732987	718.432322	4.694381	0.490067	0.587211	-0.068213	0.653420
1.100	1.157479	-2.603908	718.425599	4.806005	0.493981	0.598449	-0.068759	0.668964
1.110	1.138750	-2.444474	718.407158	4.943805	0.491403	0.617535	-0.068402	0.688162
1.120	1.136578	-2.262268	718.359396	5.112903	0.481638	0.643848	-0.067047	0.711747
1.130	1.153055	-2.068170	718.264723	5.315471	0.465236	0.674878	-0.064772	0.740043
1.140	1.183265	-1.874044	718.115797	5.549267	0.443765	0.706690	-0.061796	0.772754
1.150	1.217738	-1.689482	717.925389	5.807861	0.419185	0.734962	-0.058388	0.808978
1.160	1.246749	-1.518636	717.729896	6.082543	0.393023	0.756228	-0.054759	0.847470
1.170	1.264646	-1.358670	717.581781	6.364870	0.365708	0.768795	-0.050964	0.886989
1.180	1.272474	-1.201008	717.531987	6.648431	0.336383	0.773002	-0.046881	0.926569
1.190	1.277718	-1.035319	717.609355	6.929043	0.303388	0.770773	-0.042278	0.965573
1.200	1.291119	-0.854779	717.806209	7.203676	0.265273	0.764722	-0.036956	1.003568
1.210	1.321828	-0.660334	718.076930	7.469117	0.221930	0.757231	-0.030906	1.040156
1.220	1.373061	-0.461895	718.351462	7.721287	0.175268	0.749810	-0.024399	1.074862
1.230	1.440134	-0.275588	718.559322	7.955457	0.129101	0.742899	-0.017967	1.107140
1.240	1.511755	-0.117853	718.654351	8.167077	0.088339	0.736071	-0.012292	1.136440
1.250	1.574216	0.001378	718.629627	8.352794	0.057819	0.728512	-0.008046	1.162323
1.260	1.617003	0.083561	718.516841	8.511365	0.041067	0.719568	-0.005715	1.184574
1.270	1.637427	0.142225	718.371493	8.644277	0.039133	0.709155	-0.005447	1.203316
1.280	1.642095	0.198916	718.250257	8.755828	0.049754	0.697900	-0.006927	1.219050
1.290	1.644425	0.275804	718.188659	8.852439	0.067207	0.687009	-0.009358	1.232606
1.300	1.659398	0.387691	718.186829	8.941229	0.083228	0.677935	-0.011589	1.244973
1.310	1.697991	0.536293	718.208498	9.028277	0.088957	0.671942	-0.012386	1.257055
1.320	1.763681	0.708843	718.193989	9.117184	0.077408	0.669698	-0.010778	1.269460
1.330	1.852096	0.881605	718.083042	9.208460	0.045589	0.671006	-0.006349	1.282367
1.340	1.953190	1.027163	717.840046	9.299970	-0.004505	0.674761	0.000628	1.295549
1.350	2.054334	1.122968	717.472872	9.388270	-0.066292	0.679124	0.009240	1.308519
1.360	2.142989	1.158043	717.037618	9.470181	-0.130073	0.681934	0.018140	1.320737
1.370	2.208613	1.135569	716.626063	9.543772	-0.185041	0.681310	0.025821	1.331765
1.380	2.244063	1.070677	716.339365	9.608407	-0.221391	0.676289	0.030906	1.341321
1.390	2.246648	0.984707	716.257206	9.664246	-0.232304	0.667227	0.032433	1.349270
1.400	2.218586	0.898546	716.413232	9.711887	-0.215458	0.655704	0.030075	1.355626
1.410	2.166654	0.827795	716.785168	9.752398	-0.173721	0.643908	0.024236	1.360575
1.420	2.101047	0.781268	717.302558	9.787434	-0.114648	0.633792	0.015983	1.364478
1.430	2.033662	0.762270	717.868605	9.819102	-0.048768	0.626380	0.006793	1.367813
1.440	1.976059	0.770836	718.387826	9.849493	0.012952	0.621501	-0.001803	1.371055
1.450	1.937436	0.805147	718.790015	9.880116	0.061727	0.618027	-0.008588	1.374548
1.460	1.923155	0.861513	719.043238	9.911413	0.092873	0.614479	-0.012916	1.378417
1.470	1.934155	0.933538	719.153087	9.942457	0.106542	0.609703	-0.014815	1.382523
1.480	1.967167	1.011646	719.150852	9.970854	0.107182	0.603271	-0.014904	1.386476
1.490	2.015315	1.083944	719.077375	9.992910	0.101949	0.595437	-0.014178	1.389685
1.500	2.069031	1.138469	718.969605	10.004155	0.098567	0.586784	-0.013710	1.391457
1.510	2.117591	1.165898	718.853234	10.000247	0.103307	0.577840	-0.014371	1.391139
1.520	2.151404	1.161445	718.740860	9.978003	0.119731	0.568953	-0.016658	1.388262
1.530	2.164393	1.125259	718.633433	9.936134	0.148544	0.560475	-0.020670	1.382643
1.540	2.155220	1.061583	718.522967	9.875308	0.188371	0.553055	-0.026216	1.374390
1.550	2.126454	0.977375	718.395305	9.797547	0.236968	0.547682	-0.032986	1.363810
1.560	2.081826	0.880807	718.233008	9.705318	0.292345	0.545327	-0.040703	1.351277
1.570	2.022929	0.779708	718.019967	9.600731	0.353506	0.546329	-0.049233	1.337112
1.580	1.947411	0.680023	717.749314	9.485067	0.420733	0.549945	-0.058618	1.321501
1.590	1.850065	0.584504	717.433593	9.358669	0.495437	0.554379	-0.069057	1.304465
1.600	1.726575	0.491842	717.112075	9.221159	0.579582	0.557276	-0.080822	1.285874
1.610	1.577929	0.396382	716.848170	9.071941	0.674646	0.556440	-0.094113	1.265532
1.620	1.413002	0.288795	716.712920	8.910806	0.780328	0.550458	-0.108876	1.243288
1.630	1.247762	0.158198	716.758522	8.738331	0.893574	0.539111	-0.124669	1.219146
1.640	1.101136	-0.004301	716.993936	8.555778	1.008606	0.523521	-0.140672	1.193285
1.650	0.989075	-0.201775	717.376072	8.364539	1.118207	0.505993	-0.155875	1.165991
1.660	0.919085	-0.429151	717.822501	8.165563	1.215750	0.489503	-0.169366	1.137546
1.670	0.887510	-0.673748	718.240074	7.959270	1.297041	0.476922	-0.180586	1.108163
1.680	0.880926	-0.918620	718.555847	7.746221	1.361070	0.470229	-0.189417	1.078026
1.690	0.881394	-1.147304	718.736670	7.528278	1.409361	0.470043	-0.196089	1.047432
1.700	0.873583	-1.347966	718.790555	7.309547	1.444369	0.475616	-0.200944	1.016923
1.710	0.850890	-1.515318	718.752085	7.096417	1.467870	0.485220	-0.204225	0.987325
1.720	0.817995	-1.650046	718.660876	6.896462	1.480309	0.496735	-0.205982	0.959627
1.730	0.788639	-1.756758	718.543865	6.716560	1.481472	0.508228	-0.206177	0.934746
1.740	0.779279	-1.841948	718.408896	6.560952	1.472054	0.518293	-0.204905	0.913262
1.750	0.800996	-1.912697	718.250818	6.430053	1.455138	0.526108	-0.202595	0.895238
1.760	0.853011	-1.975976	718.064746	6.320484	1.436596	0.531293	-0.200065	0.880211
1.770	0.920872	-2.038054	717.857908	6.226379	1.424063	0.533797	-0.198377	0.867355
1.780	0.980576	-2.103680	717.653647	6.141566	1.424850	0.533968	-0.198543	0.855784
1.790	1.007355	-2.174975	717.486754	6.061944	1.443678	0.532753	-0.201213	0.844886
1.800	0.985542	-2.250232	717.393504	5.987345	1.481068	0.531809	-0.206451	0.834597
1.810	0.915356	-2.323187	717.400843	5.922210	1.532963	0.533312	-0.213683	0.825509
1.820	0.813611	-2.383560	717.518311	5.874688	1.591763	0.539455	-0.221843	0.818751
1.830	0.707956	-2.419362	717.735173	5.854325	1.648526	0.551837	-0.229684	0.815666
1.840	0.626844	-2.420626	718.023690	5.869079	1.695645	0.571007	-0.236155	0.817393
1.850	0.589246	-2.383207	718.347591	5.922693	1.729010	0.596315	-0.240693	0.824489
1.860	0.598281	-2.310832	718.672553	6.013229	1.748741	0.626077	-0.243329	0.836713
1.870	0.641395	-2.214171	718.974027	6.133107	1.758135	0.657909	-0.244534	0.853036
1.880	0.696848	-2.107119	719.238535	6.270618	1.761187	0.689116	-0.244868	0.871841
1.890	0.743488	-2.001961	719.457807	6.412568	1.759717	0.717062	-0.244589	0.891306
1.900	0.769578	-1.905568	719.619273	6.547381	1.751406	0.739488	-0.243380	0.909840
1.910	0.777045	-1.818124	719.699379	6.667683	1.729832	0.754768	-0.240355	0.926454
1.920	0.779596	-1.734592	719.666083	6.771345	1.686696	0.762078	-0.234372	0.940901
1.930	0.795805	-1.648079	719.492131	6.860604	1.615296	0.761475	-0.224505	0.953534
1.940	0.840440	-1.553735	719.172667	6.939875	1.513624	0.753849	-0.210467	0.964980
1.950	0.917880	-1.451664	718.735786	7.013617	1.385711	0.740770	-0.192798	0.975827
1.960	1.020419	-1.347499	718.238078	7.085416	1.240688	0.724309	-0.172740	0.986500
1.970	1.131964	-1.250099	717.747096	7.158495	1.090111	0.706893	-0.151880	0.997356
1.980	1.235180	-1.167284	717.320705	7.236893	0.944827	0.691166	-0.131716	1.008878
1.990	1.318347	-1.101710	716.993619	7.326195	0.812607	0.679758	-0.113335	1.021794
2.000	1.378432	-1.049045	716.775518	7.433185	0.697258	0.674901	-0.097277	1.037031
2.010	1.419181	-0.999368	716.658275	7.564474	0.599103	0.677971	-0.083597	1.055520
2.020	1.446161	-0.941076	716.626032	7.724704	0.516216	0.689055	-0.072034	1.077927
2.030	1.462353	-0.865420	716.662448	7.915013	0.445680	0.706695	-0.062188	1.104427
2.040	1.466973	-0.769555	716.752938	8.132227	0.384391	0.727933	-0.053629	1.134593
2.050	1.457793	-0.656794	716.883364	8.369011	0.329362	0.748803	-0.045944	1.167416
2.060	1.435214	-0.534241	717.038401	8.615020	0.277780	0.765263	-0.038740	1.201473
2.070	1.405629	-0.409274	717.202374	8.858802	0.227148	0.774282	-0.031671	1.235189
2.080	1.382003	-0.286618	717.363279	9.090043	0.175693	0.774647	-0.024491	1.267146
2.090	1.380806	-0.167016	717.518230	9.301589	0.122940	0.767175	-0.017134	1.296356
2.100	1.416321	-0.047478	717.676723	9.490832	0.070103	0.754282	-0.009768	1.322438
2.110	1.494828	0.077426	717.858197	9.660219	0.019907	0.739123	-0.002773	1.345700
2.120	1.611321	0.213811	718.082811	9.816776	-0.024320	0.724595	0.003387	1.367081
2.130	1.750172	0.366724	718.358461	9.970625	-0.060034	0.712522	0.008357	1.387974
2.140	1.889592	0.538755	718.670521	10.132611	-0.086763	0.703215	0.012073	1.409910
2.150	2.008477	0.729348	718.981094	10.311483	-0.106690	0.695509	0.014839	1.434180
2.160	2.093469	0.935109	719.240011	10.511399	-0.124210	0.687219	0.017270	1.461459
2.170	2.143692	1.151067	719.402667	10.730545	-0.144647	0.675877	0.020107	1.491591
2.180	2.171074	1.372390	719.445328	10.961368	-0.172722	0.659548	0.024008	1.523586
2.190	2.195771	1.595566	719.370421	11.192319	-0.211387	0.637547	0.029385	1.555849
2.200	2.238389	1.818184	719.200715	11.410484	-0.261317	0.610904	0.036334	1.586551
2.210	2.312160	2.037151	718.967274	11.604183	-0.320949	0.582419	0.044640	1.614007
2.220	2.418018	2.246189	718.698068	11.764805	-0.386781	0.556202	0.053817	1.636961
2.230	2.544073	2.434194	718.412270	11.887618	-0.453744	0.536697	0.063159	1.654707
2.240	2.669217	2.586005	718.121771	11.971748	-0.515595	0.527379	0.071798	1.667092
2.250	2.769343	2.686045	717.838092	12.019666	-0.565456	0.529568	0.078772	1.674426
2.260	2.824074	2.723744	717.580325	12.036451	-0.596697	0.541875	0.083154	1.677366
2.270	2.822051	2.698618	717.378664	12.028853	-0.604222	0.560560	0.084226	1.676779
2.280	2.763578	2.622861	717.269794	12.004134	-0.585907	0.580662	0.081686	1.673587
2.290	2.660284	2.520030	717.284642	11.968748	-0.543667	0.597405	0.075795	1.668619
2.300	2.532113	2.419499	717.433102	11.927193	-0.483615	0.607398	0.067409	1.662482
2.310	2.402250	2.347892	717.692435	11.881384	-0.415013	0.609322	0.057826	1.655498
2.320	2.290988	2.320397	718.006041	11.830681	-0.348116	0.603988	0.048484	1.647713
2.330	2.210264	2.335547	718.296227	11.772443	-0.291370	0.593857	0.040564	1.638940
2.340	2.161031	2.375878	718.488048	11.702858	-0.248873	0.582206	0.034638	1.628817
2.350	2.134782	2.414311	718.534468	11.617813	-0.219160	0.572225	0.030501	1.616876
2.360	2.118418	2.423595	718.431620	11.513624	-0.196113	0.566285	0.027297	1.602605
2.370	2.100017	2.385065	718.218112	11.387538	-0.171824	0.565535	0.023924	1.585526
2.380	2.073010	2.293454	717.959798	11.237963	-0.140103	0.569839	0.019514	1.565264
2.390	2.037351	2.156283	717.726497	11.064456	-0.098859	0.577946	0.013774	1.541598
2.400	1.997629	1.988668	717.568900	10.867467	-0.050257	0.587787	0.007004	1.514484
2.410	1.959313	1.806218	717.503436	10.647984	0.001166	0.596863	-0.000163	1.484033
2.420	1.925170	1.619180	717.510575	10.407288	0.051150	0.602713	-0.007129	1.450472
2.430	1.893784	1.429940	717.547712	10.147017	0.097567	0.603406	-0.013597	1.414124
2.440	1.860898	1.234178	717.571529	9.869531	0.140617	0.597936	-0.019596	1.375407
