Time[s]	Fx[N]	Fy[N]	Fz[N]	Mx[Nm]	My[Nm]	Mz[Nm]	COPx[cm]	COPy[cm]
0.010	4.171730	-1.106175	709.909818	4.747593	2.046754	-0.447682	-0.288312	0.668760
0.020	4.167471	-1.065625	709.902230	4.732089	2.020688	-0.466039	-0.284643	0.666583
0.030	4.160272	-1.031017	709.921087	4.718352	1.996796	-0.481200	-0.281270	0.664631
0.040	4.149031	-1.006344	709.982722	4.707515	1.976405	-0.491246	-0.278374	0.663046
0.050	4.134847	-0.993317	710.083556	4.699914	1.959512	-0.496083	-0.275955	0.661882
0.060	4.120561	-0.990995	710.198723	4.694991	1.944837	-0.497154	-0.273844	0.661081
0.070	4.109764	-0.995957	710.287637	4.691417	1.930379	-0.496569	-0.271774	0.660495
0.080	4.105810	-1.003011	710.305492	4.687422	1.914159	-0.496163	-0.269484	0.659916
0.090	4.111179	-1.006493	710.217843	4.681264	1.894752	-0.496900	-0.266785	0.659131
0.100	4.127333	-1.001984	710.013293	4.671815	1.871411	-0.498732	-0.263574	0.657990
0.110	4.154988	-0.987929	709.709044	4.659135	1.843873	-0.500817	-0.259807	0.656485
0.120	4.194345	-0.966470	709.347065	4.644791	1.812148	-0.501909	-0.255467	0.654798
0.130	4.244843	-0.942989	708.982738	4.631661	1.776544	-0.500777	-0.250576	0.653283
0.140	4.304477	-0.924270	708.670321	4.623166	1.737916	-0.496566	-0.245236	0.652372
0.150	4.369318	-0.915661	708.450239	4.622142	1.697889	-0.489051	-0.239662	0.652430
0.160	4.433892	-0.918302	708.342491	4.629759	1.658800	-0.478704	-0.234180	0.653605
0.170	4.492388	-0.927839	708.347802	4.645000	1.623319	-0.466549	-0.229170	0.655751
0.180	4.539938	-0.935658	708.454008	4.664961	1.593890	-0.453863	-0.224981	0.658471
0.190	4.573215	-0.932409	708.642851	4.685878	1.572144	-0.441846	-0.221853	0.661247
0.200	4.590331	-0.912219	708.893661	4.704364	1.558413	-0.431402	-0.219837	0.663621
0.210	4.590660	-0.875397	709.183709	4.718329	1.551517	-0.423054	-0.218775	0.665318
0.220	4.575133	-0.828315	709.487466	4.727332	1.548908	-0.416973	-0.218314	0.666302
0.230	4.546986	-0.780681	709.777368	4.732388	1.547179	-0.413047	-0.217981	0.666743
0.240	4.512441	-0.741671	710.027378	4.735340	1.542838	-0.410956	-0.217293	0.666924
0.250	4.480511	-0.716770	710.218313	4.738005	1.533199	-0.410205	-0.215877	0.667120
0.260	4.461437	-0.706523	710.341606	4.741454	1.517123	-0.410161	-0.213577	0.667489
0.270	4.464053	-0.707310	710.398273	4.745827	1.495281	-0.410163	-0.210485	0.668052
0.280	4.493093	-0.713379	710.393510	4.750744	1.469827	-0.409728	-0.206903	0.668748
0.290	4.547489	-0.719170	710.331590	4.755884	1.443636	-0.408793	-0.203234	0.669530
0.300	4.620216	-0.721077	710.215619	4.761254	1.419468	-0.407834	-0.199864	0.670396
0.310	4.699582	-0.718113	710.051992	4.766979	1.399379	-0.407761	-0.197081	0.671356
0.320	4.771504	-0.711521	709.854898	4.772930	1.384523	-0.409577	-0.195043	0.672381
0.330	4.822328	-0.703925	709.646406	4.778558	1.375288	-0.413949	-0.193799	0.673372
0.340	4.841799	-0.698658	709.451788	4.783052	1.371655	-0.420952	-0.193340	0.674190
0.350	4.825723	-0.699350	709.293448	4.785556	1.373589	-0.430075	-0.193656	0.674693
0.360	4.777539	-0.709336	709.187037	4.785142	1.381284	-0.440475	-0.194770	0.674736
0.370	4.707873	-0.730517	709.140809	4.780543	1.395092	-0.451271	-0.196730	0.674132
0.380	4.631665	-0.762044	709.156632	4.769994	1.415123	-0.461778	-0.199550	0.672629
0.390	4.563617	-0.799729	709.230139	4.751588	1.440740	-0.471590	-0.203141	0.669964
0.400	4.513704	-0.836961	709.349195	4.724156	1.470282	-0.480565	-0.207272	0.665985
0.410	4.484551	-0.866927	709.492721	4.688191	1.501212	-0.488740	-0.211590	0.660781
0.420	4.471520	-0.885062	709.632823	4.646171	1.530632	-0.496261	-0.215694	0.654729
0.430	4.465256	-0.890486	709.740791	4.601929	1.555943	-0.503301	-0.219227	0.648396
0.440	4.455501	-0.885911	709.794715	4.559389	1.575411	-0.510003	-0.221953	0.642353
0.450	4.434682	-0.876339	709.785792	4.521370	1.588498	-0.516426	-0.223800	0.637005
0.460	4.400170	-0.867252	709.721405	4.489009	1.595876	-0.522499	-0.224859	0.632503
0.470	4.354770	-0.862937	709.623673	4.461808	1.599189	-0.527966	-0.225357	0.628757
0.480	4.305346	-0.865538	709.523114	4.438040	1.600705	-0.532343	-0.225603	0.625496
0.490	4.259894	-0.875225	709.449321	4.415355	1.602972	-0.534915	-0.225946	0.622364
0.500	4.224061	-0.891280	709.422548	4.391578	1.608421	-0.534841	-0.226723	0.619036
0.510	4.198861	-0.913242	709.448918	4.365493	1.618809	-0.531393	-0.228178	0.615336
0.520	4.180897	-0.941204	709.519078	4.337221	1.634541	-0.524332	-0.230373	0.611290
0.530	4.164825	-0.975064	709.609210	4.308017	1.654112	-0.514244	-0.233102	0.607097
0.540	4.146253	-1.013511	709.685215	4.279684	1.674078	-0.502625	-0.235890	0.603040
0.550	4.123268	-1.053749	709.711948	4.254001	1.689838	-0.491574	-0.238102	0.599398
0.560	4.096075	-1.092298	709.666735	4.232413	1.697189	-0.483120	-0.239153	0.596394
0.570	4.065631	-1.126252	709.551570	4.215938	1.694153	-0.478473	-0.238764	0.594169
0.580	4.032456	-1.154128	709.396583	4.205088	1.682231	-0.477503	-0.237136	0.592770
0.590	3.996077	-1.175997	709.251604	4.199687	1.666340	-0.478718	-0.234943	0.592129
0.600	3.954950	-1.193144	709.169870	4.198745	1.653287	-0.479799	-0.233130	0.592065
0.610	3.906682	-1.207468	709.191827	4.200594	1.649333	-0.478464	-0.232565	0.592307
0.620	3.848766	-1.220647	709.334936	4.203300	1.657890	-0.473322	-0.233725	0.592569
0.630	3.779915	-1.233282	709.590607	4.205215	1.678257	-0.464406	-0.236511	0.592626
0.640	3.701555	-1.244636	709.926219	4.205527	1.705808	-0.453182	-0.240280	0.592389
0.650	3.618816	-1.253258	710.290385	4.204602	1.733389	-0.442054	-0.244039	0.591955
0.660	3.540647	-1.257914	710.621222	4.203908	1.753320	-0.433510	-0.246731	0.591582
0.670	3.478934	-1.257971	710.857716	4.205473	1.759279	-0.429220	-0.247487	0.591605
0.680	3.446465	-1.253043	710.952301	4.211193	1.747542	-0.429424	-0.245803	0.592331
0.690	3.453754	-1.242473	710.880864	4.222337	1.717292	-0.432881	-0.241572	0.593959
0.700	3.505213	-1.225183	710.646993	4.239365	1.670183	-0.437388	-0.235023	0.596550
0.710	3.596012	-1.199927	710.280115	4.261971	1.609563	-0.440632	-0.226610	0.600041
0.720	3.711435	-1.165726	709.829359	4.289326	1.539767	-0.440977	-0.216921	0.604276
0.730	3.829899	-1.122308	709.354818	4.320450	1.465622	-0.437915	-0.206613	0.609068
0.740	3.928988	-1.070433	708.917109	4.354597	1.392074	-0.432066	-0.196366	0.614260
0.750	3.992039	-1.011950	708.566917	4.391380	1.323824	-0.424833	-0.186831	0.619755
0.760	4.012325	-0.949554	708.337572	4.430533	1.264819	-0.417901	-0.178562	0.625483
0.770	3.993245	-0.886362	708.243025	4.471456	1.217571	-0.412756	-0.171914	0.631345
0.780	3.945044	-0.825624	708.280544	4.512930	1.182484	-0.410310	-0.166951	0.637167
0.790	3.880264	-0.770772	708.435130	4.553314	1.157547	-0.410719	-0.163395	0.642728
0.800	3.810352	-0.725679	708.683178	4.591214	1.138734	-0.413357	-0.160683	0.647851
0.810	3.744597	-0.694585	708.995053	4.626191	1.121112	-0.416979	-0.158127	0.652500
0.820	3.690961	-0.681181	709.337536	4.659016	1.100280	-0.420073	-0.155114	0.656812
0.830	3.657245	-0.686941	709.676858	4.691295	1.073521	-0.421355	-0.151269	0.661047
0.840	3.651081	-0.709508	709.982049	4.724717	1.040112	-0.420176	-0.146498	0.665470
0.850	3.678135	-0.742106	710.227454	4.760342	1.000744	-0.416685	-0.140905	0.670256
0.860	3.739279	-0.774490	710.393745	4.798201	0.956540	-0.411711	-0.134649	0.675428
0.870	3.828464	-0.795322	710.468161	4.837260	0.908333	-0.406475	-0.127850	0.680855
0.880	3.932906	-0.795258	710.445440	4.875651	0.856604	-0.402260	-0.120573	0.686281
0.890	4.036079	-0.769769	710.329917	4.911074	0.801969	-0.400115	-0.112901	0.691379
0.900	4.122654	-0.720743	710.137308	4.941304	0.745781	-0.400683	-0.105019	0.695824
0.910	4.183513	-0.656235	709.893982	4.964689	0.690358	-0.404150	-0.097248	0.699356
0.920	4.218631	-0.588185	709.632937	4.980469	0.638611	-0.410278	-0.089992	0.701837
0.930	4.236378	-0.528704	709.388008	4.988924	0.593251	-0.418473	-0.083629	0.703271
0.940	4.249452	-0.486359	709.188871	4.991344	0.555999	-0.427854	-0.078399	0.703810
0.950	4.269216	-0.464152	709.058281	4.989796	0.527104	-0.437376	-0.074339	0.703722
0.960	4.300796	-0.460018	709.010700	4.986592	0.505263	-0.446062	-0.071263	0.703317
0.970	4.340849	-0.469231	709.050392	4.983569	0.487897	-0.453330	-0.068810	0.702851
0.980	4.378987	-0.487268	709.168721	4.981451	0.471718	-0.459259	-0.066517	0.702435
0.990	4.402456	-0.511660	709.343269	4.979667	0.453489	-0.464626	-0.063931	0.702011
1.000	4.402109	-0.542105	709.541863	4.976767	0.430713	-0.470648	-0.060703	0.701406
1.010	4.376879	-0.578895	709.731465	4.971318	0.401962	-0.478487	-0.056636	0.700451
1.020	4.334588	-0.620503	709.888088	4.962884	0.366832	-0.488698	-0.051675	0.699108
1.030	4.288763	-0.661679	710.003058	4.952711	0.325715	-0.500812	-0.045875	0.697562
1.040	4.253103	-0.693301	710.082843	4.943851	0.279666	-0.513215	-0.039385	0.696236
1.050	4.236274	-0.704281	710.142615	4.940631	0.230349	-0.523425	-0.032437	0.695724
1.060	4.239268	-0.684828	710.196324	4.947569	0.179937	-0.528658	-0.025336	0.696648
1.070	4.256024	-0.629878	710.247723	4.968018	0.130763	-0.526508	-0.018411	0.699477
1.080	4.276556	-0.541574	710.286584	5.003012	0.084813	-0.515557	-0.011941	0.704365
1.090	4.291178	-0.429964	710.291928	5.050697	0.043360	-0.495816	-0.006104	0.711073
1.100	4.294312	-0.311424	710.241108	5.106570	0.007037	-0.468881	-0.000991	0.718991
1.110	4.286502	-0.204901	710.121256	5.164476	-0.023720	-0.437720	0.003340	0.727267
1.120	4.273792	-0.126983	709.938030	5.218062	-0.048263	-0.406058	0.006798	0.735002
1.130	4.264716	-0.087503	709.716620	5.262198	-0.065768	-0.377575	0.009267	0.741451
1.140	4.266182	-0.087396	709.493462	5.293801	-0.075817	-0.355228	0.010686	0.746138
1.150	4.280036	-0.119586	709.303303	5.311820	-0.079170	-0.340883	0.011162	0.748879
1.160	4.301848	-0.172470	709.169579	5.316642	-0.078203	-0.335217	0.011027	0.749700
1.170	4.322538	-0.234493	709.102656	5.309538	-0.076566	-0.337743	0.010798	0.748769
1.180	4.332097	-0.297853	709.103806	5.292520	-0.078110	-0.346934	0.011015	0.746367
1.190	4.323589	-0.359751	709.169626	5.268395	-0.085576	-0.360532	0.012067	0.742896
1.200	4.295473	-0.420909	709.293838	5.240508	-0.099685	-0.376107	0.014054	0.738835
1.210	4.251276	-0.482502	709.467069	5.211961	-0.119053	-0.391742	0.016781	0.734630
1.220	4.197056	-0.543457	709.676449	5.184597	-0.140909	-0.406543	0.019855	0.730558
1.230	4.138164	-0.599744	709.905942	5.158304	-0.162251	-0.420674	0.022855	0.726618
1.240	4.076995	-0.645996	710.137322	5.131092	-0.180970	-0.434866	0.025484	0.722549
1.250	4.012742	-0.678366	710.351571	5.099974	-0.196545	-0.449715	0.027669	0.717951
1.260	3.943286	-0.696804	710.530553	5.062240	-0.210161	-0.465225	0.029578	0.712459
1.270	3.868321	-0.705386	710.658756	5.016553	-0.224279	-0.480854	0.031559	0.705902
1.280	3.791950	-0.710594	710.724641	4.963453	-0.241807	-0.495927	0.034023	0.698365
1.290	3.722999	-0.718577	710.721406	4.905215	-0.265140	-0.510086	0.037306	0.690174
1.300	3.672496	-0.732920	710.647693	4.845182	-0.295406	-0.523505	0.041569	0.681798
1.310	3.649510	-0.754009	710.508805	4.786821	-0.332187	-0.536741	0.046753	0.673717
1.320	3.657457	-0.780116	710.317734	4.732794	-0.373791	-0.550236	0.052623	0.666292
1.330	3.692445	-0.809365	710.094348	4.684310	-0.417982	-0.563711	0.058863	0.659674
1.340	3.743975	-0.841402	709.861605	4.641007	-0.462843	-0.575807	0.065202	0.653790
1.350	3.797343	-0.877855	709.639351	4.601400	-0.507470	-0.584272	0.071511	0.648414
1.360	3.836757	-0.921337	709.437971	4.563756	-0.552229	-0.586709	0.077840	0.643292
1.370	3.848241	-0.973563	709.255410	4.526979	-0.598548	-0.581544	0.084391	0.638272
1.380	3.821809	-1.033680	709.080798	4.491123	-0.648340	-0.568779	0.091434	0.633373
1.390	3.752897	-1.097670	708.904550	4.457273	-0.703326	-0.550146	0.099213	0.628755
1.400	3.643328	-1.159071	708.729943	4.426900	-0.764600	-0.528601	0.107883	0.624624
1.410	3.501925	-1.210924	708.578783	4.400969	-0.832640	-0.507378	0.117509	0.621098
1.420	3.344388	-1.248542	708.486352	4.379204	-0.907806	-0.489017	0.128133	0.618107
1.430	3.191767	-1.272174	708.486812	4.359795	-0.991004	-0.474749	0.139876	0.615367
1.440	3.067185	-1.288011	708.595866	4.339616	-1.084116	-0.464468	0.152995	0.612425
1.450	2.991269	-1.306473	708.799743	4.314888	-1.189847	-0.457170	0.167868	0.608760
1.460	2.977622	-1.338198	709.057050	4.282209	-1.310998	-0.451604	0.184893	0.603930
1.470	3.030034	-1.389642	709.313429	4.239757	-1.449515	-0.446828	0.204355	0.597727
1.480	3.142669	-1.460416	709.521790	4.188227	-1.605752	-0.442505	0.226315	0.590289
1.490	3.303323	-1.543445	709.657966	4.130890	-1.778274	-0.438887	0.250582	0.582096
1.500	3.498384	-1.627697	709.724987	4.072490	-1.964254	-0.436539	0.276763	0.573812
1.510	3.717134	-1.702370	709.745632	4.017370	-2.160297	-0.435945	0.304376	0.566030
1.520	3.953330	-1.761063	709.748184	3.967734	-2.363327	-0.437198	0.332981	0.559034
1.530	4.203742	-1.804412	709.752427	3.922921	-2.571067	-0.439896	0.362248	0.552717
1.540	4.465290	-1.839908	709.762130	3.880044	-2.781869	-0.443236	0.391944	0.546668
1.550	4.733111	-1.878509	709.766557	3.835674	-2.994120	-0.446187	0.421846	0.540414
1.560	5.000788	-1.929228	709.748965	3.787762	-3.205761	-0.447693	0.451675	0.533676
1.570	5.262084	-1.994196	709.697247	3.736855	-3.414263	-0.446907	0.481087	0.526542
1.580	5.512464	-2.066736	709.611929	3.686044	-3.617011	-0.443444	0.509717	0.519445
1.590	5.749076	-2.133409	709.508302	3.639725	-3.811761	-0.437580	0.537240	0.512993
1.600	5.969317	-2.178986	709.411865	3.601879	-3.996882	-0.430309	0.563408	0.507727
1.610	6.169305	-2.192128	709.349184	3.574740	-4.171240	-0.423186	0.588038	0.503946
1.620	6.343674	-2.169631	709.338725	3.558488	-4.333828	-0.417983	0.610967	0.501663
1.630	6.487099	-2.117855	709.386365	3.551996	-4.483392	-0.416213	0.632010	0.500714
1.640	6.596720	-2.050806	709.487385	3.554111	-4.618329	-0.418647	0.650939	0.500941
1.650	6.673947	-1.985269	709.632428	3.564622	-4.736930	-0.424949	0.667519	0.502319
1.660	6.724460	-1.934636	709.811952	3.584419	-4.837968	-0.433600	0.681585	0.504982
1.670	6.756243	-1.903915	710.015050	3.614947	-4.921518	-0.442200	0.693157	0.509137
1.680	6.776656	-1.888120	710.223688	3.657525	-4.989701	-0.448105	0.702553	0.514982
1.690	6.790073	-1.874555	710.408500	3.712969	-5.046892	-0.449170	0.710421	0.522653
1.700	6.797339	-1.847744	710.532232	3.781515	-5.099104	-0.444342	0.717646	0.532209
1.710	6.797337	-1.794759	710.561545	3.862798	-5.152705	-0.433919	0.725160	0.543626
1.720	6.789819	-1.709047	710.481528	3.955782	-5.213019	-0.419490	0.733730	0.556775
1.730	6.777954	-1.591910	710.305148	4.058786	-5.283268	-0.403613	0.743803	0.571414
1.740	6.769103	-1.451784	710.072633	4.169858	-5.364139	-0.389339	0.755435	0.587244
1.750	6.773203	-1.301808	709.840726	4.287433	-5.453920	-0.379615	0.768330	0.603999
1.760	6.799372	-1.156249	709.665595	4.410885	-5.549047	-0.376590	0.781924	0.621544
1.770	6.852303	-1.026452	709.585392	4.540522	-5.644838	-0.380975	0.795512	0.639884
1.780	6.930062	-0.917419	709.608962	4.676897	-5.736274	-0.391683	0.808371	0.659081
1.790	7.024219	-0.826440	709.715258	4.819859	-5.818670	-0.406008	0.819860	0.679126
1.800	7.122214	-0.744793	709.863432	4.967974	-5.888139	-0.420431	0.829475	0.699849
1.810	7.210881	-0.662139	710.008816	5.118700	-5.941801	-0.431851	0.836863	0.720935
1.820	7.279611	-0.571681	710.117798	5.269075	-5.977795	-0.438713	0.841803	0.742000
1.830	7.322052	-0.473579	710.175856	5.416286	-5.995287	-0.441525	0.844197	0.762668
1.840	7.336197	-0.374826	710.186633	5.557625	-5.994544	-0.442514	0.844080	0.782558
1.850	7.323539	-0.285541	710.163907	5.689982	-5.977101	-0.444592	0.841651	0.801221
1.860	7.287982	-0.213484	710.120861	5.809540	-5.945808	-0.450080	0.837295	0.818106
1.870	7.234845	-0.159747	710.061724	5.912243	-5.904588	-0.459696	0.831560	0.832638
1.880	7.170019	-0.117975	709.979405	5.994958	-5.857874	-0.472216	0.825077	0.844385
1.890	7.099309	-0.077611	709.859965	6.056781	-5.809873	-0.484958	0.818453	0.853236
1.900	7.027813	-0.029553	709.691642	6.099866	-5.763867	-0.494893	0.812165	0.859509
1.910	6.959150	0.028403	709.474166	6.129349	-5.721663	-0.499847	0.806465	0.863928
1.920	6.894725	0.088923	709.223993	6.152214	-5.683251	-0.499280	0.801334	0.867457
1.930	6.833703	0.136934	708.972874	6.175282	-5.646790	-0.494309	0.796475	0.871018
1.940	6.774046	0.155635	708.759824	6.202948	-5.609063	-0.487084	0.791391	0.875183
1.950	6.714091	0.134126	708.619212	6.235626	-5.566449	-0.479926	0.785535	0.879968
1.960	6.653702	0.072862	708.569720	6.269625	-5.516185	-0.474679	0.778496	0.884828
1.970	6.594537	-0.015863	708.609357	6.298577	-5.457401	-0.472438	0.770157	0.888865
1.980	6.539533	-0.112569	708.719377	6.315796	-5.391351	-0.473514	0.760717	0.891156
1.990	6.491966	-0.198074	708.874750	6.316658	-5.320673	-0.477489	0.750580	0.891082
2.000	6.454374	-0.260394	709.054427	6.300169	-5.248082	-0.483340	0.740152	0.888531
2.010	6.427722	-0.298285	709.245330	6.269258	-5.175213	-0.489728	0.729679	0.883934
2.020	6.411167	-0.320378	709.439507	6.229809	-5.102156	-0.495391	0.719181	0.878131
2.030	6.402409	-0.340734	709.628729	6.188840	-5.027721	-0.499521	0.708500	0.872124
2.040	6.398261	-0.372960	709.801193	6.152429	-4.950105	-0.501986	0.697393	0.866782
2.050	6.395148	-0.425205	709.942169	6.124081	-4.867583	-0.503356	0.685631	0.862617
2.060	6.389542	-0.497643	710.037659	6.104026	-4.778965	-0.504688	0.673058	0.859676
2.070	6.378550	-0.583013	710.079205	6.089648	-4.683734	-0.507148	0.659607	0.857601
2.080	6.360616	-0.669763	710.068096	6.076808	-4.581973	-0.511576	0.645286	0.855806
2.090	6.335901	-0.746493	710.017044	6.061473	-4.474190	-0.518209	0.630152	0.853708
2.100	6.305714	-0.805928	709.947267	6.041011	-4.361111	-0.526637	0.614287	0.850910
2.110	6.270938	-0.846914	709.880611	6.014721	-4.243430	-0.536011	0.597767	0.847286
2.120	6.230269	-0.873918	709.830046	5.983531	-4.121569	-0.545360	0.580642	0.842953
2.130	6.179573	-0.894737	709.794431	5.949249	-3.995592	-0.553834	0.562922	0.838165
2.140	6.113162	-0.917764	709.761577	5.913849	-3.865366	-0.560761	0.544601	0.833216
2.150	6.026687	-0.949824	709.718149	5.879033	-3.730821	-0.565614	0.525676	0.828362
2.160	5.920085	-0.994822	709.660079	5.845972	-3.592034	-0.568119	0.506163	0.823771
2.170	5.798700	-1.053052	709.596750	5.815051	-3.449006	-0.568487	0.486052	0.819487
2.180	5.671562	-1.121151	709.546249	5.785744	-3.301272	-0.567525	0.465265	0.815415
2.190	5.547552	-1.193001	709.524424	5.756775	-3.147720	-0.566367	0.443638	0.811357
2.200	5.431407	-1.261671	709.534093	5.726646	-2.986863	-0.565877	0.420961	0.807100
2.210	5.321697	-1.321725	709.561054	5.694347	-2.817458	-0.566055	0.397071	0.802517
2.220	5.211891	-1.370644	709.579976	5.659931	-2.639062	-0.565868	0.371919	0.797645
2.230	5.093940	-1.408488	709.567315	5.624682	-2.452205	-0.563687	0.345592	0.792692
2.240	4.962371	-1.436193	709.513917	5.590736	-2.258152	-0.558141	0.318267	0.787967
2.250	4.816724	-1.453903	709.430481	5.560270	-2.058509	-0.548957	0.290164	0.783765
2.260	4.661479	-1.460646	709.343872	5.534560	-1.854925	-0.537351	0.261499	0.780237
2.270	4.504156	-1.455658	709.286861	5.513404	-1.648944	-0.525758	0.232479	0.777316
2.280	4.352788	-1.440530	709.285559	5.495249	-1.441997	-0.517009	0.203303	0.774758
2.290	4.213606	-1.420785	709.348549	5.478037	-1.235506	-0.513256	0.174175	0.772263
2.300	4.089494	-1.405550	709.461423	5.460283	-1.031035	-0.515109	0.145326	0.769638
2.310	3.979721	-1.404864	709.589660	5.441775	-0.830337	-0.521318	0.117016	0.766890
2.320	3.881161	-1.425551	709.689968	5.423581	-0.635073	-0.529118	0.089486	0.764218
2.330	3.790297	-1.467766	709.725821	5.407554	-0.446208	-0.535098	0.062870	0.761922
2.340	3.704684	-1.524270	709.680463	5.395795	-0.263387	-0.536298	0.037113	0.760313
2.350	3.623044	-1.582908	709.562166	5.390430	-0.084765	-0.531120	0.011946	0.759684
2.360	3.544260	-1.630936	709.400291	5.393675	0.092522	-0.519683	-0.013042	0.760315
2.370	3.466234	-1.659133	709.234142	5.407868	0.271423	-0.503552	-0.038270	0.762494
2.380	3.385511	-1.664327	709.099089	5.435108	0.454017	-0.485041	-0.064027	0.766481
2.390	3.298047	-1.649858	709.015986	5.476481	0.640876	-0.466426	-0.090389	0.772406
2.400	3.200850	-1.623970	708.988663	5.531255	0.830924	-0.449325	-0.117198	0.780161
