Time[s]	Fx[N]	Fy[N]	Fz[N]	Mx[Nm]	My[Nm]	Mz[Nm]	COPx[cm]	COPy[cm]
0.010	3.158900	-2.806098	604.042009	11.196728	0.276768	0.065677	-0.045819	1.853634
0.020	3.023045	-2.856588	605.011851	11.253640	0.218259	0.055754	-0.036075	1.860069
0.030	2.900999	-2.896656	605.782294	11.303964	0.156783	0.047406	-0.025881	1.866011
0.040	2.807014	-2.917910	606.199745	11.342085	0.091104	0.041517	-0.015029	1.871015
0.050	2.755393	-2.915319	606.177531	11.364129	0.021623	0.038077	-0.003567	1.874720
0.060	2.757232	-2.887933	605.700005	11.368287	-0.050158	0.036458	0.008281	1.876884
0.070	2.816358	-2.839250	604.811154	11.355134	-0.122776	0.035871	0.020300	1.877468
0.080	2.927211	-2.777202	603.598273	11.327946	-0.195813	0.035643	0.032441	1.876736
0.090	3.076561	-2.713263	602.177280	11.292501	-0.270190	0.035163	0.044869	1.875279
0.100	3.248408	-2.660357	600.679089	11.255763	-0.347615	0.033720	0.057870	1.873840
0.110	3.429196	-2.629763	599.233180	11.223628	-0.429517	0.030509	0.071678	1.872998
0.120	3.610281	-2.627861	597.948020	11.198675	-0.515975	0.024923	0.086291	1.872851
0.130	3.786584	-2.653901	596.893904	11.179014	-0.605016	0.016905	0.101361	1.872865
0.140	3.952960	-2.699977	596.096108	11.158835	-0.692422	0.007096	0.116159	1.871986
0.150	4.101220	-2.753655	595.542422	11.130441	-0.772101	-0.003371	0.129647	1.868958
0.160	4.220009	-2.802360	595.201766	11.086982	-0.837016	-0.013265	0.140627	1.862727
0.170	4.297717	-2.837552	595.044859	11.024893	-0.880579	-0.021605	0.147985	1.852783
0.180	4.326686	-2.856802	595.057689	10.945153	-0.898148	-0.027822	0.150935	1.839343
0.190	4.306405	-2.863111	595.243568	10.852974	-0.888138	-0.031766	0.149206	1.823283
0.200	4.244095	-2.862491	595.615446	10.755940	-0.852312	-0.033621	0.143098	1.805853
0.210	4.152441	-2.861665	596.183001	10.661259	-0.795139	-0.033785	0.133372	1.788253
0.220	4.045423	-2.867250	596.939130	10.573134	-0.722496	-0.032720	0.121033	1.771225
0.230	3.933881	-2.886408	597.850168	10.491296	-0.640152	-0.030837	0.107076	1.754837
0.240	3.822419	-2.927827	598.853905	10.411126	-0.552566	-0.028398	0.092271	1.738508
0.250	3.708924	-3.001778	599.867655	10.325199	-0.462376	-0.025475	0.077080	1.721246
0.260	3.587162	-3.118659	600.805114	10.225674	-0.370643	-0.021985	0.061691	1.701995
0.270	3.451701	-3.286295	601.596955	10.106879	-0.277642	-0.017864	0.046151	1.680008
0.280	3.303197	-3.506846	602.208093	9.967482	-0.183853	-0.013353	0.030530	1.655156
0.290	3.151599	-3.774325	602.645078	9.811761	-0.090882	-0.009258	0.015080	1.628116
0.300	3.015420	-4.073439	602.950118	9.649636	-0.002036	-0.007008	0.000338	1.600404
0.310	2.916745	-4.379985	603.182930	9.495268	0.077724	-0.008394	-0.012886	1.574194
0.320	2.873441	-4.662916	603.396647	9.364285	0.142678	-0.015023	-0.023646	1.551929
0.330	2.891437	-4.888341	603.617164	9.270146	0.187885	-0.027659	-0.031126	1.535766
0.340	2.960258	-5.025438	603.834231	9.220720	0.210859	-0.045670	-0.034920	1.527028
0.350	3.054119	-5.053231	604.006925	9.216335	0.212677	-0.066830	-0.035211	1.525866
0.360	3.139010	-4.966023	604.079107	9.250127	0.198000	-0.087680	-0.032777	1.531277
0.370	3.183713	-4.775335	603.997301	9.310528	0.173824	-0.104382	-0.028779	1.541485
0.380	3.170647	-4.507511	603.725363	9.384843	0.147285	-0.113784	-0.024396	1.554489
0.390	3.102137	-4.197854	603.253856	9.462537	0.123395	-0.114253	-0.020455	1.568583
0.400	2.999611	-3.883119	602.603679	9.537256	0.103724	-0.105998	-0.017213	1.582675
0.410	2.896259	-3.594419	601.823461	9.607303	0.086601	-0.090822	-0.014390	1.596366
0.420	2.826246	-3.352248	600.980875	9.674835	0.068562	-0.071468	-0.011408	1.609841
0.430	2.814384	-3.164751	600.150008	9.744196	0.046224	-0.050805	-0.007702	1.623627
0.440	2.869494	-3.029307	599.398646	9.819973	0.017758	-0.031140	-0.002963	1.638304
0.450	2.983128	-2.936352	598.779156	9.905328	-0.016578	-0.013832	0.002769	1.654254
0.460	3.133387	-2.873985	598.325004	10.001147	-0.054857	0.000724	0.009168	1.671524
0.470	3.291990	-2.832070	598.052878	10.106250	-0.094518	0.012820	0.015804	1.689859
0.480	3.431970	-2.804755	597.968101	10.218424	-0.133419	0.023001	0.022312	1.708858
0.490	3.533787	-2.790585	598.068926	10.335611	-0.170431	0.031659	0.028497	1.728164
0.500	3.588493	-2.790188	598.345807	10.456449	-0.205420	0.038870	0.034331	1.747560
0.510	3.597495	-2.802858	598.775752	10.579781	-0.238775	0.044542	0.039877	1.766902
0.520	3.569374	-2.824074	599.316215	10.703443	-0.270776	0.048766	0.045181	1.785943
0.530	3.515370	-2.845569	599.904092	10.823242	-0.301096	0.052031	0.050191	1.804162
0.540	3.445639	-2.858142	600.462927	10.932924	-0.328643	0.055117	0.054732	1.820749
0.550	3.367727	-2.855801	600.917226	11.025349	-0.351845	0.058702	0.058551	1.834753
0.560	3.287142	-2.838896	601.209023	11.094302	-0.369255	0.062989	0.061419	1.845332
0.570	3.208820	-2.814345	601.310674	11.136143	-0.380211	0.067579	0.063230	1.851978
0.580	3.138158	-2.792825	601.229899	11.150675	-0.385207	0.071633	0.064070	1.854644
0.590	3.080955	-2.784525	601.006298	11.140987	-0.385796	0.074204	0.064192	1.853722
0.600	3.042295	-2.795720	600.701017	11.112342	-0.384008	0.074582	0.063927	1.849896
0.610	3.024829	-2.827724	600.382320	11.070551	-0.381569	0.072509	0.063554	1.843917
0.620	3.027220	-2.878361	600.110319	11.020505	-0.379328	0.068216	0.063210	1.836413
0.630	3.043635	-2.944671	599.924515	10.965480	-0.377239	0.062289	0.062881	1.827810
0.640	3.064977	-3.025071	599.837710	10.907369	-0.374937	0.055421	0.062506	1.818387
0.650	3.081704	-3.119783	599.838270	10.847426	-0.372590	0.048135	0.062115	1.808392
0.660	3.087068	-3.229559	599.899714	10.786870	-0.371567	0.040639	0.061938	1.798112
0.670	3.079288	-3.353528	599.993826	10.727014	-0.374590	0.032856	0.062432	1.787854
0.680	3.061728	-3.487162	600.102323	10.669085	-0.385243	0.024526	0.064196	1.777878
0.690	3.041166	-3.621159	600.222466	10.614148	-0.406976	0.015272	0.067804	1.768369
0.700	3.024954	-3.741829	600.363957	10.563271	-0.441977	0.004602	0.073618	1.759478
0.710	3.018183	-3.833234	600.538613	10.517786	-0.490380	-0.008045	0.081657	1.751392
0.720	3.021917	-3.880836	600.749032	10.479391	-0.550166	-0.023146	0.091580	1.744388
0.730	3.033282	-3.875789	600.983495	10.449975	-0.617793	-0.040842	0.102797	1.738812
0.740	3.047351	-3.818508	601.219526	10.431149	-0.689332	-0.060729	0.114656	1.734998
0.750	3.059665	-3.720145	601.432068	10.423600	-0.761634	-0.081734	0.126637	1.733130
0.760	3.067697	-3.601215	601.599853	10.426502	-0.833040	-0.102148	0.138471	1.733129
0.770	3.070379	-3.487692	601.706619	10.437343	-0.903401	-0.119828	0.150140	1.734623
0.780	3.066488	-3.405660	601.739081	10.452468	-0.973543	-0.132627	0.161788	1.737043
0.790	3.053796	-3.375801	601.686711	10.468266	-1.044608	-0.139011	0.173613	1.739820
0.800	3.030405	-3.409079	601.546929	10.482609	-1.117776	-0.138626	0.185817	1.742609
0.810	2.998043	-3.504783	601.334253	10.495887	-1.194528	-0.132572	0.198646	1.745433
0.820	2.965327	-3.651413	601.086848	10.511146	-1.277161	-0.123261	0.212475	1.748690
0.830	2.948400	-3.829616	600.863041	10.533234	-1.368942	-0.113883	0.227829	1.753017
0.840	2.967338	-4.015698	600.725221	10.567356	-1.473465	-0.107557	0.245281	1.759100
0.850	3.038963	-4.184621	600.716424	10.617633	-1.593358	-0.106361	0.265243	1.767495
0.860	3.168890	-4.312269	600.840731	10.686209	-1.728925	-0.110571	0.287751	1.778543
0.870	3.346698	-4.377478	601.058174	10.773159	-1.877494	-0.118491	0.312365	1.792365
0.880	3.547252	-4.364410	601.297984	10.877102	-2.033906	-0.126993	0.338253	1.808937
0.890	3.738536	-4.265286	601.484576	10.996090	-2.192019	-0.132554	0.364435	1.828158
0.900	3.893171	-4.082496	601.564421	11.128294	-2.346536	-0.132320	0.390072	1.849892
0.910	3.998780	-3.828711	601.522474	11.272286	-2.494336	-0.124835	0.414670	1.873959
0.920	4.062686	-3.524351	601.382930	11.427042	-2.634839	-0.110289	0.438130	1.900127
0.930	4.108858	-3.193212	601.196114	11.591852	-2.769403	-0.090323	0.460649	1.928132
0.940	4.168361	-2.857872	601.017411	11.766142	-2.900147	-0.067557	0.482540	1.957704
0.950	4.267186	-2.536321	600.885193	11.949081	-3.028719	-0.045010	0.504043	1.988580
0.960	4.416164	-2.240498	600.804696	12.138966	-3.155433	-0.025560	0.525201	2.020451
0.970	4.606686	-1.976688	600.744101	12.332619	-3.278914	-0.011526	0.545809	2.052891
0.980	4.813755	-1.747016	600.645652	12.525222	-3.396251	-0.004391	0.565433	2.085293
0.990	5.005042	-1.551014	600.448225	12.710854	-3.503602	-0.004608	0.583498	2.116894
1.000	5.152143	-1.386703	600.111693	12.883560	-3.597101	-0.011498	0.599405	2.146860
1.010	5.239327	-1.251464	599.632670	13.038394	-3.673841	-0.023276	0.612682	2.174397
1.020	5.266464	-1.143224	599.046051	13.171974	-3.732581	-0.037318	0.623087	2.198825
1.030	5.245886	-1.061766	598.413939	13.282524	-3.773948	-0.050719	0.630659	2.219621
1.040	5.195627	-1.009218	597.808802	13.369777	-3.800083	-0.061083	0.635669	2.236464
1.050	5.132571	-0.989017	597.298737	13.435013	-3.813963	-0.067230	0.638535	2.249295
1.060	5.068342	-1.003564	596.938895	13.481097	-3.818756	-0.069467	0.639723	2.258371
1.070	5.008901	-1.051704	596.767708	13.512111	-3.817396	-0.069184	0.639679	2.264216
1.080	4.956752	-1.127334	596.804494	13.532417	-3.812381	-0.067955	0.638799	2.267479
1.090	4.913378	-1.219951	597.047275	13.545463	-3.805571	-0.066638	0.637399	2.268742
1.100	4.879913	-1.316921	597.472716	13.552969	-3.797895	-0.065036	0.635660	2.268383
1.110	4.855885	-1.406372	598.040501	13.554887	-3.789112	-0.062271	0.633588	2.266550
1.120	4.837636	-1.479476	598.702077	13.550032	-3.777944	-0.057577	0.631022	2.263234
1.130	4.818335	-1.531705	599.410178	13.536969	-3.762749	-0.051005	0.627742	2.258382
1.140	4.790104	-1.563339	600.124273	13.514679	-3.742479	-0.043671	0.623617	2.251980
1.150	4.747183	-1.579451	600.809682	13.482737	-3.717356	-0.037474	0.618724	2.244095
1.160	4.688333	-1.589096	601.432608	13.441076	-3.688858	-0.034468	0.613345	2.234843
1.170	4.617237	-1.603353	601.955852	13.389577	-3.659062	-0.036169	0.607862	2.224345
1.180	4.540798	-1.632446	602.338857	13.327826	-3.629726	-0.043045	0.602605	2.212679
1.190	4.466289	-1.682790	602.542722	13.255161	-3.601580	-0.054371	0.597730	2.199871
1.200	4.398803	-1.754968	602.538391	13.170947	-3.574129	-0.068493	0.593179	2.185910
1.210	4.340123	-1.843345	602.315532	13.074919	-3.545972	-0.083357	0.588723	2.170776
1.220	4.289261	-1.937576	601.889600	12.967538	-3.515396	-0.097063	0.584060	2.154471
1.230	4.244093	-2.025727	601.304614	12.850332	-3.480981	-0.108197	0.578905	2.137075
1.240	4.203226	-2.098231	600.629658	12.726096	-3.442063	-0.115904	0.573076	2.118792
1.250	4.167242	-2.151473	599.948865	12.598767	-3.399027	-0.119786	0.566553	2.099974
1.260	4.138743	-2.189707	599.346964	12.472877	-3.353398	-0.119831	0.559509	2.081078
1.270	4.121182	-2.224316	598.893980	12.352719	-3.307524	-0.116432	0.552272	2.062589
1.280	4.117026	-2.270234	598.632695	12.241574	-3.263781	-0.110434	0.545206	2.044922
1.290	4.126045	-2.340450	598.571746	12.141288	-3.223539	-0.103029	0.538538	2.028376
1.300	4.144251	-2.440652	598.686688	12.052239	-3.186473	-0.095418	0.532244	2.013113
1.310	4.163823	-2.566390	598.929862	11.973462	-3.150659	-0.088329	0.526048	1.999143
1.320	4.174201	-2.704209	599.246087	11.902792	-3.113362	-0.081644	0.519546	1.986295
1.330	4.164341	-2.836310	599.587424	11.837125	-3.071983	-0.074428	0.512350	1.974212
1.340	4.125601	-2.946708	599.920761	11.773018	-3.024678	-0.065375	0.504180	1.962429
1.350	4.054213	-3.026423	600.227111	11.707691	-2.970502	-0.053439	0.494896	1.950544
1.360	3.952258	-3.076039	600.496943	11.640205	-2.909306	-0.038305	0.484483	1.938429
1.370	3.826782	-3.105240	600.726960	11.572234	-2.841673	-0.020568	0.473039	1.926372
1.380	3.687458	-3.130039	600.920164	11.507850	-2.769018	-0.001566	0.460796	1.915038
1.390	3.543569	-3.168867	601.086181	11.452112	-2.693707	0.017041	0.448140	1.905236
1.400	3.401092	-3.238411	601.237587	11.408975	-2.618911	0.033837	0.435587	1.897582
1.410	3.261004	-3.349694	601.381927	11.379545	-2.548077	0.048089	0.423704	1.892233
1.420	3.120059	-3.504910	601.514502	11.361583	-2.484241	0.059839	0.412998	1.888829
1.430	2.974479	-3.695731	601.618285	11.350513	-2.429627	0.069565	0.403849	1.886664
1.440	2.825263	-3.903677	601.672962	11.341465	-2.385775	0.077612	0.396524	1.884988
1.450	2.682336	-4.102594	601.669072	11.331526	-2.354048	0.083732	0.391253	1.883349
1.460	2.564702	-4.262656	601.619858	11.321379	-2.336042	0.087012	0.388292	1.881816
1.470	2.495599	-4.355194	601.564091	11.315674	-2.333536	0.086225	0.387911	1.881042
1.480	2.494388	-4.357671	601.556692	11.321835	-2.347925	0.080356	0.390308	1.882090
1.490	2.568808	-4.258062	601.649004	11.347612	-2.379470	0.069020	0.395491	1.886085
1.500	2.711044	-4.057739	601.865630	11.398236	-2.426724	0.052622	0.403200	1.893817
1.510	2.899090	-3.772177	602.187636	11.474279	-2.486422	0.032248	0.412898	1.905432
1.520	3.102521	-3.429238	602.550371	11.571025	-2.553908	0.009388	0.423850	1.920341
1.530	3.290331	-3.065135	602.857827	11.679498	-2.624024	-0.014404	0.435264	1.937355
1.540	3.438281	-2.718607	603.007999	11.788565	-2.692230	-0.037797	0.446467	1.954960
1.550	3.533929	-2.424503	602.919805	11.887301	-2.755533	-0.059800	0.457031	1.971622
1.560	3.578481	-2.208453	602.553358	11.967003	-2.812901	-0.079683	0.466830	1.986049
1.570	3.585249	-2.083888	601.919396	12.022553	-2.865033	-0.096819	0.475983	1.997369
1.580	3.575168	-2.051592	601.077534	12.053060	-2.913671	-0.110603	0.484741	2.005242
1.590	3.570504	-2.101102	600.125270	12.061749	-2.960766	-0.120574	0.493358	2.009872
1.600	3.588528	-2.213241	599.180680	12.055041	-3.007807	-0.126695	0.501987	2.011921
1.610	3.636856	-2.363523	598.361978	12.040837	-3.055490	-0.129605	0.510642	2.012300
1.620	3.711484	-2.526316	597.767271	12.026338	-3.103725	-0.130641	0.519220	2.011876
1.630	3.797917	-2.679196	597.458377	12.016053	-3.151903	-0.131522	0.527552	2.011195
1.640	3.875502	-2.806433	597.453004	12.010775	-3.199321	-0.133748	0.535493	2.010330
1.650	3.924488	-2.900622	597.728135	12.007881	-3.245702	-0.137966	0.543006	2.008920
1.660	3.933878	-2.962198	598.233373	12.002685	-3.291693	-0.143621	0.550236	2.006355
1.670	3.906788	-2.997353	598.908386	11.990155	-3.339110	-0.149055	0.557533	2.002001
1.680	3.860303	-3.015212	599.696787	11.966316	-3.390639	-0.152006	0.565392	1.995394
1.690	3.819284	-3.025028	600.551355	11.929055	-3.448948	-0.150323	0.574297	1.986351
1.700	3.806468	-3.033993	601.430976	11.878394	-3.515446	-0.142633	0.584514	1.975022
1.710	3.832932	-3.046114	602.294093	11.816424	-3.589141	-0.128699	0.595912	1.961903
1.720	3.892807	-3.062558	603.093520	11.746942	-3.666126	-0.109326	0.607887	1.947781
1.730	3.964406	-3.083490	603.774668	11.674689	-3.740056	-0.085907	0.619446	1.933617
1.740	4.017370	-3.110701	604.277148	11.604200	-3.803634	-0.059905	0.629452	1.920344
1.750	4.023094	-3.149577	604.539954	11.538520	-3.850669	-0.032598	0.636959	1.908645
1.760	3.964607	-3.208943	604.510843	11.478291	-3.877954	-0.005196	0.641503	1.898773
1.770	3.842422	-3.298263	604.158880	11.421685	-3.886339	0.020807	0.643264	1.890510
1.780	3.674523	-3.423020	603.486385	11.365401	-3.880727	0.043316	0.643051	1.883290
1.790	3.490981	-3.580195	602.535289	11.306457	-3.869022	0.059624	0.642124	1.876480
1.800	3.325772	-3.756004	601.384870	11.244005	-3.860305	0.066797	0.641903	1.869685
1.810	3.209047	-3.927324	600.141540	11.180318	-3.862723	0.062396	0.643635	1.862947
1.820	3.161984	-4.066655	598.924053	11.120382	-3.881695	0.045261	0.648111	1.856727
1.830	3.194575	-4.149057	597.847570	11.070269	-3.918902	0.016017	0.655502	1.851687
1.840	3.305489	-4.158763	597.008370	11.035008	-3.972249	-0.022895	0.665359	1.848384
1.850	3.483088	-4.093396	596.470198	11.016854	-4.036623	-0.067629	0.676752	1.847008
1.860	3.707215	-3.964525	596.254450	11.014541	-4.105181	-0.113595	0.688495	1.847289
1.870	3.951894	-3.794560	596.337823	11.023712	-4.170818	-0.156152	0.699405	1.848568
1.880	4.189204	-3.611117	596.659841	11.038328	-4.227477	-0.191258	0.708524	1.850020
1.890	4.394192	-3.440773	597.138971	11.052598	-4.270967	-0.216041	0.715238	1.850926
1.900	4.549962	-3.304104	597.692398	11.062794	-4.299078	-0.229248	0.719279	1.850918
1.910	4.651264	-3.213129	598.253241	11.068307	-4.311125	-0.231442	0.720619	1.850104
1.920	4.704759	-3.171123	598.780337	11.071600	-4.307296	-0.224811	0.719345	1.849025
1.930	4.725138	-3.173740	599.258851	11.077122	-4.288191	-0.212549	0.715582	1.848470
1.940	4.728402	-3.210420	599.693409	11.089717	-4.254631	-0.197975	0.709468	1.849231
1.950	4.725208	-3.265898	600.097753	11.113213	-4.207623	-0.183656	0.701156	1.851900
1.960	4.717247	-3.322451	600.485073	11.149708	-4.148446	-0.170850	0.690849	1.856784
1.970	4.698032	-3.363280	600.861799	11.199597	-4.078901	-0.159448	0.678842	1.863922
1.980	4.657309	-3.376429	601.225827	11.261996	-4.001689	-0.148414	0.665588	1.873172
1.990	4.586779	-3.357847	601.568783	11.335171	-3.920645	-0.136506	0.651737	1.884268
2.000	4.484560	-3.312319	601.880772	11.416832	-3.840604	-0.122948	0.638101	1.896859
2.010	4.356633	-3.251833	602.155012	11.504406	-3.766857	-0.107756	0.625563	1.910539
2.020	4.214909	-3.191810	602.389582	11.595394	-3.704292	-0.091657	0.614933	1.924899
2.030	4.072930	-3.146352	602.585115	11.687801	-3.656376	-0.075738	0.606782	1.939610
2.040	3.941202	-3.123911	602.740119	11.780540	-3.624263	-0.061075	0.601298	1.954497
2.050	3.824337	-3.124676	602.847294	11.873613	-3.606505	-0.048509	0.598245	1.969589
2.060	3.721397	-3.140456	602.893201	11.967947	-3.599801	-0.038623	0.597088	1.985086
2.070	3.629125	-3.157084	602.861400	12.064763	-3.600677	-0.031818	0.597264	2.001250
2.080	3.546167	-3.158631	602.737730	12.164614	-3.607305	-0.028381	0.598487	2.018227
2.090	3.475801	-3.132232	602.515713	12.266502	-3.620374	-0.028465	0.600876	2.035881
2.100	3.425730	-3.072178	602.199663	12.367547	-3.642442	-0.031987	0.604856	2.053729
2.110	3.405172	-2.982081	601.803809	12.463381	-3.676074	-0.038563	0.610843	2.071004
2.120	3.420778	-2.874318	601.348314	12.549120	-3.721840	-0.047538	0.618916	2.086831
2.130	3.473250	-2.766797	600.855458	12.620555	-3.777319	-0.058077	0.628657	2.100431
2.140	3.556074	-2.678103	600.348636	12.675160	-3.837652	-0.069269	0.639237	2.111300
2.150	3.656890	-2.622661	599.853553	12.712546	-3.897322	-0.080247	0.649712	2.119275
2.160	3.760926	-2.607384	599.398572	12.734156	-3.952134	-0.090364	0.659350	2.124489
2.170	3.855102	-2.630570	599.012164	12.742407	-4.000370	-0.099384	0.667828	2.127237
2.180	3.931245	-2.683093	598.718342	12.739816	-4.042558	-0.107509	0.675202	2.127848
2.190	3.987353	-2.751346	598.532517	12.728507	-4.080133	-0.115169	0.681689	2.126619
2.200	4.026699	-2.821003	598.459505	12.710227	-4.113890	-0.122673	0.687413	2.123824
2.210	4.055415	-2.880537	598.494161	12.686752	-4.143188	-0.129956	0.692269	2.119779
2.220	4.079673	-2.923560	598.624472	12.660401	-4.166293	-0.136551	0.695978	2.114915
2.230	4.103547	-2.949411	598.836404	12.634360	-4.181539	-0.141755	0.698277	2.109818
2.240	4.128211	-2.961957	599.118575	12.612511	-4.188546	-0.144843	0.699118	2.105178
2.250	4.152407	-2.967191	599.463866	12.598753	-4.188816	-0.145223	0.698760	2.101670
2.260	4.173568	-2.970794	599.866517	12.596038	-4.185407	-0.142536	0.697723	2.099807
2.270	4.189010	-2.976634	600.316554	12.605503	-4.181876	-0.136732	0.696612	2.099809
2.280	4.196996	-2.986377	600.795231	12.625923	-4.181011	-0.128127	0.695913	2.101535
2.290	4.197613	-2.999732	601.273908	12.653605	-4.183911	-0.117381	0.695841	2.104466
2.300	4.193228	-3.014906	601.716479	12.682844	-4.189733	-0.105395	0.696297	2.107777
2.310	4.188394	-3.029115	602.084024	12.707085	-4.196127	-0.093150	0.696934	2.110517
2.320	4.189234	-3.039108	602.340192	12.720653	-4.200124	-0.081598	0.697301	2.111872
2.330	4.202294	-3.041562	602.456517	12.720450	-4.199100	-0.071655	0.696996	2.111430
2.340	4.232726	-3.033289	602.417580	12.706878	-4.191479	-0.064226	0.695776	2.109314
2.350	4.282110	-3.011489	602.225356	12.683612	-4.177077	-0.060170	0.693607	2.106124
2.360	4.346870	-2.974535	601.900916	12.656478	-4.157129	-0.060091	0.690667	2.102751
2.370	4.418249	-2.923390	601.481805	12.631980	-4.134060	-0.064025	0.687313	2.100143
2.380	4.484151	-2.862975	601.015539	12.615920	-4.110937	-0.071118	0.683998	2.099100
