Time[s]	Fx[N]	Fy[N]	Fz[N]	Mx[Nm]	My[Nm]	Mz[Nm]	COPx[cm]	COPy[cm]
0.010	9.133887	-0.289438	644.932995	6.625263	9.758827	-1.555153	-1.513154	1.027279
0.020	9.318106	-0.565362	644.313277	6.533819	9.520223	-1.531724	-1.477577	1.014075
0.030	9.513412	-0.808403	644.021980	6.449964	9.292800	-1.511510	-1.442932	1.001513
0.040	9.718751	-0.989771	644.286086	6.379943	9.086232	-1.496780	-1.410279	0.990235
0.050	9.916078	-1.088808	645.171288	6.327959	8.907999	-1.488307	-1.380718	0.980818
0.060	10.072780	-1.096503	646.580324	6.295711	8.763248	-1.485236	-1.355322	0.973694
0.070	10.151492	-1.017262	648.300826	6.282539	8.655028	-1.485355	-1.335033	0.969078
0.080	10.123237	-0.867844	650.077677	6.286128	8.584430	-1.485722	-1.320524	0.966981
0.090	9.978940	-0.673340	651.684187	6.303505	8.550380	-1.483495	-1.312043	0.967264
0.100	9.735434	-0.461274	652.973619	6.331891	8.549102	-1.476782	-1.309257	0.969701
0.110	9.434061	-0.255864	653.901243	6.369111	8.573580	-1.465208	-1.311143	0.974017
0.120	9.131908	-0.074519	654.515257	6.413488	8.613477	-1.449960	-1.316009	0.979884
0.130	8.887674	0.072335	654.922885	6.463389	8.655962	-1.433277	-1.321677	0.986893
0.140	8.746117	0.178902	655.244726	6.516648	8.687533	-1.417600	-1.325846	0.994537
0.150	8.726320	0.241399	655.573539	6.570078	8.696362	-1.404731	-1.326527	1.002188
0.160	8.818326	0.257371	655.950458	6.619246	8.674295	-1.395297	-1.322401	1.009108
0.170	8.989526	0.227397	656.362817	6.658675	8.617773	-1.388628	-1.312959	1.014481
0.180	9.198006	0.157791	656.758160	6.682552	8.527508	-1.383071	-1.298424	1.017506
0.190	9.406921	0.062153	657.064489	6.685953	8.407408	-1.376615	-1.279541	1.017549
0.200	9.593879	-0.039939	657.208514	6.666279	8.263472	-1.367626	-1.257359	1.014332
0.210	9.752211	-0.127623	657.128439	6.624338	8.103079	-1.355430	-1.233104	1.008073
0.220	9.885546	-0.185561	656.782001	6.564443	7.934526	-1.340546	-1.208091	0.999486
0.230	10.000352	-0.209900	656.152358	6.493338	7.766351	-1.324475	-1.183620	0.989608
0.240	10.101096	-0.210137	655.253259	6.418278	7.606228	-1.309097	-1.160807	0.979511
0.250	10.189719	-0.205470	654.132185	6.344936	7.459739	-1.295904	-1.140402	0.969978
0.260	10.267787	-0.217038	652.868525	6.275875	7.329641	-1.285417	-1.122683	0.961277
0.270	10.338421	-0.259550	651.565036	6.210130	7.216063	-1.277080	-1.107497	0.953110
0.280	10.406135	-0.335990	650.333231	6.144098	7.117648	-1.269691	-1.094462	0.944762
0.290	10.474643	-0.437585	649.275499	6.073329	7.033218	-1.262078	-1.083241	0.935401
0.300	10.544000	-0.548822	648.467939	5.994381	6.963266	-1.253599	-1.073803	0.924391
0.310	10.608706	-0.655132	647.948065	5.905976	6.910613	-1.244239	-1.066538	0.911489
0.320	10.658050	-0.749626	647.710914	5.809074	6.879937	-1.234388	-1.062192	0.896862
0.330	10.679115	-0.835838	647.715546	5.705971	6.876453	-1.224577	-1.061647	0.880938
0.340	10.661653	-0.925450	647.901082	5.598956	6.904362	-1.215356	-1.065651	0.864168
0.350	10.602821	-1.032371	648.207803	5.489307	6.965652	-1.207302	-1.074602	0.846844
0.360	10.509339	-1.165902	648.596095	5.377247	7.059532	-1.200991	-1.088433	0.829059
0.370	10.395495	-1.325656	649.056087	5.262905	7.182503	-1.196889	-1.106607	0.810855
0.380	10.277428	-1.499794	649.604332	5.147668	7.328823	-1.195262	-1.128198	0.792431
0.390	10.166207	-1.666809	650.269535	5.035055	7.491178	-1.196247	-1.152011	0.774303
0.400	10.063029	-1.800200	651.073536	4.930590	7.661445	-1.200075	-1.176740	0.757302
0.410	9.958899	-1.875024	652.014358	4.840794	7.831591	-1.207185	-1.201138	0.742437
0.420	9.838819	-1.875036	653.056312	4.771795	7.994706	-1.218045	-1.224199	0.730687
0.430	9.688490	-1.798529	654.130049	4.728100	8.145925	-1.232708	-1.245307	0.722807
0.440	9.500735	-1.660532	655.143013	4.711838	8.282886	-1.250417	-1.264287	0.719208
0.450	9.279427	-1.489682	655.997521	4.722518	8.405528	-1.269555	-1.281335	0.719899
0.460	9.039678	-1.320016	656.611148	4.757195	8.515275	-1.288022	-1.296852	0.724507
0.470	8.804211	-1.180293	656.934371	4.811044	8.613867	-1.303839	-1.311222	0.732348
0.480	8.597356	-1.084844	656.962763	4.878365	8.702145	-1.315675	-1.324602	0.742563
0.490	8.439429	-1.029419	656.742407	4.953979	8.779079	-1.323155	-1.336761	0.754326
0.500	8.343922	-0.993522	656.365971	5.034699	8.841329	-1.326879	-1.347012	0.767057
0.510	8.317802	-0.948154	655.956192	5.120325	8.883532	-1.328203	-1.354287	0.780589
0.520	8.362920	-0.866027	655.637145	5.213634	8.899302	-1.328780	-1.357352	0.795201
0.530	8.476257	-0.730611	655.500678	5.319132	8.882692	-1.329983	-1.355100	0.811461
0.540	8.648556	-0.541166	655.580070	5.440848	8.829721	-1.332401	-1.346856	0.829929
0.550	8.862982	-0.312779	655.840620	5.579979	8.739610	-1.335652	-1.332581	0.850813
0.560	9.095916	-0.072140	656.189183	5.733365	8.615463	-1.338640	-1.312954	0.873737
0.570	9.320692	0.149275	656.497719	5.893429	8.464289	-1.340130	-1.289310	0.897707
0.580	9.513116	0.322686	656.633208	6.049554	8.296337	-1.339276	-1.263466	0.921299
0.590	9.656595	0.428346	656.486900	6.190382	8.123761	-1.335818	-1.237460	0.942956
0.600	9.745173	0.459271	655.996917	6.306307	7.958759	-1.329942	-1.213231	0.961332
0.610	9.784077	0.421650	655.159380	6.391487	7.811541	-1.322060	-1.192312	0.975562
0.620	9.788211	0.332108	654.026454	6.444873	7.688702	-1.312684	-1.175595	0.985415
0.630	9.778787	0.212911	652.694450	6.470017	7.592592	-1.302399	-1.163269	0.991278
0.640	9.778124	0.086668	651.287444	6.473791	7.521973	-1.291764	-1.154939	0.993999
0.650	9.803331	-0.028184	649.939931	6.464499	7.473759	-1.281105	-1.149915	0.994630
0.660	9.860802	-0.120417	648.779251	6.449993	7.445058	-1.270314	-1.147549	0.994174
0.670	9.943856	-0.187287	647.908755	6.436257	7.434533	-1.258845	-1.147466	0.993389
0.680	10.034912	-0.233964	647.394907	6.426763	7.442410	-1.245993	-1.149594	0.992711
0.690	10.111534	-0.271140	647.262164	6.422598	7.469338	-1.231356	-1.153990	0.992271
0.700	10.153785	-0.311117	647.496738	6.423175	7.514962	-1.215308	-1.160618	0.992001
0.710	10.149768	-0.363245	648.056371	6.427168	7.577087	-1.199243	-1.169202	0.991761
0.720	10.097639	-0.430220	648.881138	6.433354	7.651812	-1.185402	-1.179232	0.991453
0.730	10.004429	-0.506811	649.901391	6.441200	7.734405	-1.176256	-1.190089	0.991104
0.740	9.883090	-0.581769	651.041756	6.451175	7.820386	-1.173632	-1.201211	0.990900
0.750	9.748883	-0.642193	652.222874	6.464742	7.906272	-1.177953	-1.212204	0.991186
0.760	9.615706	-0.678527	653.364190	6.484004	7.989776	-1.187967	-1.222867	0.992403
0.770	9.493134	-0.688144	654.390695	6.511164	8.069519	-1.201129	-1.233135	0.994996
0.780	9.385138	-0.676185	655.243403	6.548066	8.144480	-1.214519	-1.242970	0.999333
0.790	9.290887	-0.653429	655.889380	6.596028	8.213397	-1.225902	-1.252253	1.005662
0.800	9.207135	-0.632022	656.326186	6.655919	8.274258	-1.234466	-1.260693	1.014118
0.810	9.131125	-0.620617	656.578803	6.728287	8.324080	-1.240953	-1.267796	1.024749
0.820	9.062918	-0.620772	656.690766	6.813409	8.359121	-1.247110	-1.272916	1.037537
0.830	9.006314	-0.626070	656.711778	6.911108	8.375542	-1.254708	-1.275376	1.052381
0.840	8.967958	-0.624372	656.683324	7.020319	8.370316	-1.264555	-1.274635	1.069057
0.850	8.955106	-0.602396	656.625191	7.138665	8.342024	-1.275989	-1.270439	1.087175
0.860	8.973264	-0.550913	656.528027	7.262488	8.291318	-1.287055	-1.262904	1.106196
0.870	9.024742	-0.468613	656.356164	7.387497	8.220994	-1.295258	-1.252520	1.125532
0.880	9.108234	-0.363062	656.060441	7.509699	8.135715	-1.298511	-1.240086	1.144666
0.890	9.218821	-0.248203	655.596427	7.626138	8.041410	-1.295907	-1.226579	1.163237
0.900	9.348000	-0.139489	654.942080	7.735249	7.944404	-1.288053	-1.212993	1.181059
0.910	9.484090	-0.049090	654.110108	7.837049	7.850401	-1.276863	-1.200165	1.198124
0.920	9.613769	0.016474	653.152376	7.933269	7.763512	-1.264915	-1.188622	1.214612
0.930	9.724946	0.055690	652.155436	8.027322	7.685561	-1.254725	-1.178486	1.230891
0.940	9.810254	0.069829	651.227551	8.123839	7.615899	-1.248200	-1.169468	1.247466
0.950	9.869869	0.061379	650.478951	8.227770	7.551833	-1.246400	-1.160965	1.264879
0.960	9.912387	0.034396	649.998772	8.343312	7.489572	-1.249559	-1.152244	1.283589
0.970	9.952798	-0.003673	649.833966	8.473095	7.425414	-1.257233	-1.142663	1.303886
0.980	10.007474	-0.040272	649.976648	8.617939	7.356884	-1.268488	-1.131869	1.325884
0.990	10.087412	-0.057568	650.365575	8.777273	7.283538	-1.281989	-1.119914	1.349591
1.000	10.192063	-0.034370	650.903278	8.949997	7.207227	-1.295951	-1.107265	1.375012
1.010	10.306233	0.050030	651.483906	9.135292	7.131647	-1.307974	-1.094677	1.402228
1.020	10.401593	0.210423	652.022423	9.333005	7.061168	-1.314916	-1.082964	1.431393
1.030	10.443042	0.449154	652.476219	9.543575	6.999170	-1.312988	-1.072709	1.462670
1.040	10.398898	0.749988	652.853605	9.767858	6.946388	-1.298307	-1.064004	1.496179
1.050	10.252680	1.075257	653.206926	10.007150	6.899938	-1.268096	-1.056317	1.532003
1.060	10.013199	1.369855	653.610901	10.263422	6.853488	-1.222412	-1.048558	1.570265
1.070	9.719368	1.574156	654.130612	10.539666	6.798663	-1.165799	-1.039343	1.611248
1.080	9.437090	1.644436	654.788369	10.840344	6.727317	-1.107903	-1.027403	1.655549
1.090	9.247655	1.575015	655.541774	11.171799	6.633970	-1.062331	-1.011983	1.704209
1.100	9.229652	1.413304	656.283296	11.542058	6.517620	-1.043694	-0.993111	1.758701
1.110	9.438714	1.259234	656.863337	11.959179	6.382405	-1.063575	-0.971649	1.820650
1.120	9.890571	1.245042	657.128176	12.427835	6.237128	-1.126684	-0.949149	1.891235
1.130	10.552509	1.498944	656.958343	12.944981	6.093923	-1.228525	-0.927597	1.970442
1.140	11.346411	2.103754	656.295304	13.496607	5.966413	-1.355597	-0.909105	2.056484
1.150	12.163726	3.065150	655.151644	14.057636	5.867503	-1.488306	-0.895595	2.145707
1.160	12.889373	4.301622	653.606375	14.595852	5.807105	-1.605904	-0.888471	2.233126
1.170	13.428426	5.660014	651.789483	15.078830	5.790298	-1.691847	-0.888369	2.313451
1.180	13.727398	6.951032	649.859815	15.481272	5.816595	-1.737690	-0.895054	2.382248
1.190	13.782610	7.992890	647.980459	15.789904	5.880670	-1.744174	-0.907538	2.436787
1.200	13.632473	8.650443	646.296300	16.004317	5.974385	-1.719347	-0.924403	2.476313
1.210	13.337363	8.860521	644.918198	16.134111	6.089506	-1.674802	-0.944229	2.501730
1.220	12.956444	8.639251	643.916387	16.194167	6.220292	-1.621680	-0.966009	2.514949
1.230	12.531493	8.071912	643.323125	16.200126	6.365127	-1.567871	-0.989414	2.518194
1.240	12.083175	7.289490	643.142126	16.165437	6.526596	-1.517106	-1.014798	2.513509
1.250	11.618406	6.438277	643.360513	16.100299	6.709876	-1.469714	-1.042942	2.502531
1.260	11.142462	5.649795	643.958200	16.012081	6.919996	-1.424287	-1.074603	2.486509
1.270	10.668563	5.017788	644.910322	15.906362	7.159074	-1.379422	-1.110088	2.466446
1.280	10.220171	4.586814	646.181374	15.787748	7.424752	-1.334909	-1.149020	2.443238
1.290	9.825365	4.353434	647.714667	15.659916	7.710564	-1.292121	-1.190426	2.417718
1.300	9.506617	4.277524	649.424372	15.524944	8.008012	-1.253618	-1.233094	2.390570
1.310	9.271371	4.299063	651.196909	15.382452	8.309282	-1.222244	-1.276001	2.362181
1.320	9.108388	4.355268	652.904097	15.229168	8.609234	-1.200109	-1.318606	2.332527
1.330	8.991912	4.393962	654.425156	15.059322	8.905690	-1.187874	-1.360842	2.301153
1.340	8.892096	4.380848	655.670770	14.865905	9.197916	-1.184578	-1.402825	2.267282
1.350	8.787298	4.300376	656.601299	14.642511	9.484182	-1.188040	-1.444435	2.230046
1.360	8.672939	4.151609	657.232789	14.385207	9.759720	-1.195613	-1.484972	2.188754
1.370	8.562830	3.941641	657.627745	14.093620	10.016223	-1.204992	-1.523084	2.143100
1.380	8.481761	3.679589	657.872303	13.770546	10.243169	-1.214722	-1.557015	2.093194
1.390	8.452089	3.373492	658.046997	13.419993	10.430376	-1.224247	-1.585050	2.039367
1.400	8.480596	3.030654	658.202795	13.044518	10.570717	-1.233451	-1.605997	1.981839
1.410	8.553003	2.659909	658.352891	12.643265	10.661892	-1.241976	-1.619480	1.920439
1.420	8.640044	2.273289	658.482439	12.211842	10.706560	-1.248654	-1.625945	1.854543
1.430	8.712274	1.885198	658.567921	11.744201	10.710805	-1.251379	-1.626378	1.783294
1.440	8.755329	1.509062	658.593594	11.235822	10.681596	-1.247546	-1.621880	1.706033
1.450	8.777467	1.153197	658.557088	10.687015	10.624326	-1.234977	-1.613273	1.622792
1.460	8.806364	0.818291	658.464551	10.105091	10.541419	-1.213097	-1.600909	1.534645
1.470	8.878108	0.497986	658.320677	9.504528	10.432504	-1.183929	-1.584715	1.443754
1.480	9.024156	0.182542	658.118672	8.904960	10.295979	-1.152345	-1.564456	1.353093
1.490	9.261007	-0.135786	657.832994	8.327586	10.131276	-1.125191	-1.540099	1.265912
1.500	9.584775	-0.457745	657.416698	7.791055	9.940953	-1.109310	-1.512124	1.185101
1.510	9.971123	-0.774643	656.805501	7.307919	9.731902	-1.109097	-1.481702	1.112646
1.520	10.380409	-1.069789	655.930360	6.882599	9.515318	-1.124608	-1.450660	1.049288
1.530	10.767236	-1.323364	654.737831	6.511478	9.305437	-1.151211	-1.421246	0.994517
1.540	11.092069	-1.518679	653.213372	6.185201	9.117359	-1.181131	-1.395770	0.946888
1.550	11.331011	-1.647384	651.399969	5.892509	8.964515	-1.206343	-1.376192	0.904592
1.560	11.480101	-1.711898	649.404988	5.624350	8.856406	-1.221549	-1.363772	0.866077
1.570	11.553004	-1.724528	647.391424	5.376765	8.797283	-1.225988	-1.358882	0.830528
1.580	11.574084	-1.704112	645.554026	5.151513	8.786217	-1.223361	-1.361035	0.797999
1.590	11.570202	-1.671940	644.085177	4.954257	8.818468	-1.220076	-1.369146	0.769193
1.600	11.564040	-1.648347	643.138970	4.791245	8.887559	-1.222624	-1.381903	0.744978
1.610	11.570026	-1.650181	642.803437	4.666056	8.987321	-1.235207	-1.398145	0.725892
1.620	11.592595	-1.688541	643.088953	4.577803	9.113352	-1.258433	-1.417122	0.711846
1.630	11.626109	-1.766479	643.935274	4.521265	9.263596	-1.289417	-1.438591	0.702130
1.640	11.656175	-1.877330	645.232946	4.488532	9.438028	-1.323027	-1.462732	0.695645
1.650	11.662490	-2.004824	646.850148	4.471295	9.637584	-1.353674	-1.489925	0.691241
1.660	11.623228	-2.125846	648.655691	4.462916	9.862704	-1.377019	-1.520484	0.688025
1.670	11.520385	-2.215664	650.532906	4.459526	10.111943	-1.391147	-1.554409	0.685519
1.680	11.344803	-2.254201	652.384617	4.459876	10.381157	-1.396982	-1.591263	0.683627
1.690	11.099346	-2.231179	654.132473	4.464309	10.663509	-1.397843	-1.630176	0.682478
1.700	10.799326	-2.148362	655.713582	4.473578	10.950241	-1.398283	-1.669973	0.682246
1.710	10.470202	-2.018371	657.076156	4.487964	11.231899	-1.402586	-1.709375	0.683020
1.720	10.143135	-1.860809	658.175947	4.506724	11.499634	-1.413433	-1.747198	0.684729
1.730	9.849293	-1.697093	658.975677	4.527745	11.746258	-1.431153	-1.782502	0.687088
1.740	9.614240	-1.545543	659.448319	4.547528	11.966904	-1.453754	-1.814684	0.689596
1.750	9.453813	-1.418121	659.582300	4.561687	12.159342	-1.477641	-1.843491	0.691602
1.760	9.372195	-1.319549	659.385134	4.565999	12.324028	-1.498803	-1.869018	0.692463
1.770	9.362074	-1.248563	658.883296	4.557742	12.463876	-1.514078	-1.891667	0.691737
1.780	9.406571	-1.200210	658.119069	4.536808	12.583625	-1.522113	-1.912059	0.689360
1.790	9.482805	-1.167975	657.146458	4.506156	12.688811	-1.523674	-1.930895	0.685716
1.800	9.566776	-1.145046	656.026985	4.471409	12.784691	-1.521227	-1.948806	0.681589
1.810	9.638539	-1.124809	654.824438	4.439664	12.875595	-1.517936	-1.966267	0.677993
1.820	9.686057	-1.101106	653.598149	4.417844	12.964968	-1.516514	-1.983630	0.675927
1.830	9.706146	-1.068760	652.396324	4.411070	13.055945	-1.518365	-2.001229	0.676133
1.840	9.701913	-1.024454	651.252192	4.421585	13.152114	-1.523342	-2.019512	0.678936
1.850	9.677749	-0.967583	650.185764	4.448567	13.258017	-1.530089	-2.039112	0.684199
1.860	9.634423	-0.900492	649.212727	4.488871	13.379082	-1.536688	-2.060816	0.691433
1.870	9.566943	-0.827706	648.357995	4.538431	13.520802	-1.541268	-2.085391	0.699988
1.880	9.466584	-0.754241	647.666533	4.593842	13.687321	-1.542418	-2.113328	0.709291
1.890	9.326376	-0.683605	647.203816	4.653589	13.879858	-1.539448	-2.144588	0.719030
1.900	9.147549	-0.616353	647.044950	4.718605	14.095524	-1.532580	-2.178446	0.729255
1.910	8.943756	-0.549750	647.259172	4.792041	14.326941	-1.523040	-2.213478	0.740359
1.920	8.740623	-0.478581	647.897536	4.878374	14.562808	-1.512923	-2.247702	0.752955
1.930	8.569989	-0.396729	648.985507	4.981932	14.789406	-1.504741	-2.278850	0.767649
1.940	8.460380	-0.299211	650.515697	5.105056	14.992861	-1.500664	-2.304765	0.784771
1.950	8.427106	-0.184448	652.436471	5.246354	15.161688	-1.501688	-2.323857	0.804117
1.960	8.465963	-0.056332	654.639589	5.399789	15.288829	-1.507003	-2.335457	0.824849
1.970	8.553326	0.074608	656.956512	5.555184	15.372377	-1.513910	-2.339938	0.845594
1.980	8.652843	0.191685	659.171441	5.700036	15.414820	-1.518398	-2.338514	0.864727
1.990	8.726119	0.274607	661.050887	5.821913	15.421371	-1.516230	-2.332857	0.880706
2.000	8.743435	0.303968	662.381585	5.910602	15.398323	-1.504190	-2.324691	0.892326
2.010	8.691381	0.266773	663.005641	5.959609	15.351978	-1.481090	-2.315512	0.898878
2.020	8.576192	0.161314	662.844437	5.967041	15.288221	-1.448256	-2.306457	0.900217
2.030	8.422926	-0.000567	661.908336	5.936032	15.212417	-1.409340	-2.298266	0.896806
2.040	8.270764	-0.195191	660.293247	5.874642	15.129433	-1.369450	-2.291320	0.889702
2.050	8.164558	-0.392499	658.165315	5.794870	15.043753	-1.333841	-2.285710	0.880458
2.060	8.143491	-0.563354	655.733881	5.710504	14.959840	-1.306590	-2.281389	0.870857
2.070	8.229371	-0.686016	653.215040	5.634093	14.882777	-1.289718	-2.278389	0.862517
2.080	8.418251	-0.749872	650.793788	5.574040	14.819036	-1.282992	-2.277071	0.856499
2.090	8.678560	-0.755916	648.596691	5.533073	14.777025	-1.284408	-2.278307	0.853084
2.100	8.957010	-0.714703	646.685158	5.508789	14.766991	-1.291099	-2.283490	0.851850
2.110	9.191212	-0.642820	645.072287	5.495932	14.799944	-1.300334	-2.294308	0.851987
2.120	9.326069	-0.558827	643.756826	5.489231	14.885574	-1.310263	-2.312298	0.852687
2.130	9.329680	-0.479420	642.759534	5.485596	15.029641	-1.320171	-2.338299	0.853444
2.140	9.203988	-0.416482	642.144661	5.485009	15.231770	-1.330245	-2.372015	0.854170
2.150	8.986133	-0.375545	642.015016	5.490093	15.484604	-1.341081	-2.411876	0.855135
2.160	8.738713	-0.355940	642.480688	5.504817	15.774816	-1.353195	-2.455298	0.856807
2.170	8.530560	-0.352475	643.612769	5.532989	16.085767	-1.366751	-2.499293	0.859677
2.180	8.413326	-0.357971	645.400330	5.577060	16.401024	-1.381526	-2.541217	0.864124
2.190	8.402145	-0.365746	647.729262	5.637460	16.707605	-1.397010	-2.579412	0.870342
2.200	8.468856	-0.371219	650.394367	5.712476	16.997802	-1.412514	-2.613461	0.878310
2.210	8.552183	-0.371980	653.142072	5.798635	17.269006	-1.427232	-2.643989	0.887806
2.220	8.581472	-0.366203	655.726482	5.891523	17.521820	-1.440298	-2.672123	0.898473
2.230	8.503423	-0.350229	657.955093	5.986902	17.757577	-1.450919	-2.698904	0.909926
2.240	8.299770	-0.316928	659.707556	6.081900	17.976459	-1.458572	-2.724913	0.921908
2.250	7.989560	-0.256143	660.927458	6.175989	18.176778	-1.463154	-2.750193	0.934443
2.260	7.618379	-0.157202	661.601587	6.271375	18.355209	-1.464963	-2.774360	0.947908
2.270	7.242595	-0.012359	661.743971	6.372563	18.507404	-1.464503	-2.796762	0.962995
2.280	6.916286	0.180228	661.393057	6.485176	18.628584	-1.462287	-2.816568	0.980533
2.290	6.683968	0.414856	660.617948	6.614334	18.714061	-1.458796	-2.832811	1.001234
2.300	6.577549	0.678450	659.522560	6.763023	18.759748	-1.454617	-2.844444	1.025442
2.310	6.614325	0.952799	658.237999	6.930875	18.762782	-1.450555	-2.850456	1.052944
2.320	6.794326	1.218631	656.901244	7.113815	18.722353	-1.447506	-2.850102	1.082935
2.330	7.097721	1.460350	655.626996	7.304852	18.640812	-1.446087	-2.843204	1.114178
2.340	7.484470	1.669602	654.484102	7.495914	18.524793	-1.446284	-2.830442	1.145317
2.350	7.898301	1.846238	653.486268	7.680057	18.385725	-1.447385	-2.813483	1.175244
2.360	8.275833	1.996590	652.600450	7.853151	18.239020	-1.448247	-2.794822	1.203363
2.370	8.559664	2.130122	651.769563	8.014474	18.101705	-1.447685	-2.777317	1.229648
2.380	8.712119	2.255809	650.942029	8.166169	17.989093	-1.444768	-2.763548	1.254516
