Time[s]	Fx[N]	Fy[N]	Fz[N]	Mx[Nm]	My[Nm]	Mz[Nm]	COPx[cm]	COPy[cm]
0.010	5.560144	-3.657639	591.908371	-10.709327	11.045605	1.536922	-1.866100	-1.809288
0.020	5.619911	-3.828141	592.068132	-10.831793	11.094425	1.532762	-1.873843	-1.829484
0.030	5.668540	-3.981953	592.190607	-10.942461	11.147301	1.529192	-1.882384	-1.847794
0.040	5.697281	-4.106799	592.257755	-11.031981	11.207144	1.526477	-1.892275	-1.862699
0.050	5.700882	-4.196713	592.275759	-11.095778	11.275166	1.524516	-1.903702	-1.873414
0.060	5.678740	-4.252961	592.265551	-11.134285	11.350513	1.522909	-1.916457	-1.879948
0.070	5.635098	-4.282841	592.245831	-11.151615	11.430550	1.521163	-1.930035	-1.882937
0.080	5.577712	-4.296871	592.220858	-11.153262	11.511755	1.518918	-1.943828	-1.883294
0.090	5.514835	-4.305316	592.180439	-11.143732	11.590992	1.516080	-1.957341	-1.881814
0.100	5.451539	-4.315019	592.110204	-11.125012	11.666697	1.512733	-1.970359	-1.878875
0.110	5.387222	-4.327306	592.003993	-11.096553	11.739483	1.508901	-1.983007	-1.874405
0.120	5.315790	-4.337583	591.870404	-11.056667	11.811844	1.504332	-1.995681	-1.868089
0.130	5.228637	-4.336913	591.730491	-11.004468	11.887051	1.498484	-2.008862	-1.859709
0.140	5.119033	-4.315236	591.609236	-10.941122	11.967677	1.490713	-2.022902	-1.849383
0.150	4.985919	-4.265344	591.526567	-10.869581	12.054282	1.480547	-2.037826	-1.837547
0.160	4.835564	-4.186351	591.492705	-10.792941	12.144657	1.467976	-2.053222	-1.824695
0.170	4.680644	-4.085327	591.508776	-10.712558	12.233824	1.453720	-2.068241	-1.811056
0.180	4.537464	-3.976151	591.570183	-10.627277	12.314870	1.439406	-2.081726	-1.796452
0.190	4.422428	-3.875645	591.669792	-10.534318	12.380447	1.427473	-2.092459	-1.780439
0.200	4.348501	-3.798170	591.799554	-10.431198	12.424484	1.420611	-2.099441	-1.762623
0.210	4.322018	-3.750614	591.950475	-10.317408	12.443468	1.420823	-2.102113	-1.742951
0.220	4.340520	-3.729777	592.111302	-10.194846	12.436881	1.428532	-2.100430	-1.721779
0.230	4.392752	-3.723410	592.266858	-10.066945	12.406855	1.442234	-2.094808	-1.699731
0.240	4.461621	-3.714596	592.397488	-9.937206	12.357429	1.458892	-2.086003	-1.677456
0.250	4.529450	-3.687483	592.480750	-9.807997	12.293646	1.474864	-2.074944	-1.655412
0.260	4.583391	-3.631750	592.495362	-9.680006	12.220520	1.486916	-2.062551	-1.633769
0.270	4.618646	-3.544230	592.425896	-9.552267	12.141821	1.493015	-2.049509	-1.612399
0.280	4.638415	-3.427757	592.265793	-9.422522	12.059003	1.492762	-2.036080	-1.590928
0.290	4.651381	-3.288438	592.017621	-9.287781	11.970853	1.487475	-2.022043	-1.568835
0.300	4.668420	-3.132663	591.692386	-9.144932	11.874220	1.479890	-2.006823	-1.545555
0.310	4.699746	-2.964822	591.310842	-8.991325	11.765564	1.473444	-1.989743	-1.520575
0.320	4.752833	-2.786343	590.907062	-8.825237	11.642571	1.471226	-1.970288	-1.493507
0.330	4.831100	-2.596375	590.530631	-8.646256	11.505036	1.474957	-1.948254	-1.464150
0.340	4.933588	-2.394060	590.242558	-8.455647	11.354707	1.484518	-1.923736	-1.432572
0.350	5.055948	-2.181726	590.102960	-8.256661	11.194300	1.498274	-1.897008	-1.399190
0.360	5.192504	-1.967695	590.153979	-8.054543	11.026243	1.514005	-1.868367	-1.364821
0.370	5.338468	-1.767014	590.405188	-7.855931	10.851718	1.529924	-1.838012	-1.330600
0.380	5.491168	-1.598985	590.828228	-7.667614	10.670362	1.545298	-1.806001	-1.297774
0.390	5.649832	-1.481864	591.362790	-7.495024	10.480789	1.560486	-1.772311	-1.267416
0.400	5.814272	-1.426752	591.930550	-7.341083	10.281833	1.576489	-1.737000	-1.240193
0.410	5.983299	-1.433340	592.451154	-7.205842	10.074089	1.594256	-1.700408	-1.216276
0.420	6.153844	-1.489322	592.856011	-7.087062	9.861064	1.614046	-1.663315	-1.195410
0.430	6.321421	-1.573629	593.098810	-6.981554	9.649256	1.635101	-1.626922	-1.177132
0.440	6.481881	-1.662227	593.163206	-6.886829	9.446963	1.655778	-1.592641	-1.161034
0.450	6.633560	-1.734532	593.067220	-6.802451	9.262228	1.674066	-1.561750	-1.146995
0.460	6.778636	-1.778547	592.861968	-6.730540	9.100797	1.688233	-1.535062	-1.135262
0.470	6.922899	-1.793441	592.621853	-6.675210	8.964880	1.697308	-1.512749	-1.126386
0.480	7.073896	-1.789122	592.426054	-6.641114	8.853069	1.701325	-1.494375	-1.121003
0.490	7.238191	-1.782874	592.336082	-6.631571	8.761288	1.701304	-1.479108	-1.119562
0.500	7.418828	-1.793706	592.377776	-6.646898	8.684370	1.698984	-1.466019	-1.122071
0.510	7.613859	-1.835894	592.535329	-6.683551	8.617776	1.696307	-1.454390	-1.127958
0.520	7.816130	-1.914010	592.759800	-6.734482	8.559004	1.694752	-1.443925	-1.136123
0.530	8.014201	-2.021564	592.987991	-6.790783	8.508332	1.694759	-1.434824	-1.145180
0.540	8.194260	-2.143883	593.163768	-6.844167	8.468653	1.695555	-1.427709	-1.153841
0.550	8.342864	-2.263811	593.254450	-6.889263	8.444414	1.695546	-1.423405	-1.161266
0.560	8.449874	-2.367554	593.257950	-6.924693	8.439922	1.693114	-1.422640	-1.167231
0.570	8.510615	-2.448257	593.199345	-6.952541	8.457558	1.687351	-1.425753	-1.172041
0.580	8.526479	-2.506469	593.118170	-6.976683	8.496533	1.678294	-1.432519	-1.176272
0.590	8.503745	-2.548184	593.051104	-7.000832	8.552715	1.666604	-1.442155	-1.180477
0.600	8.451194	-2.581893	593.017712	-7.027015	8.619618	1.653057	-1.453518	-1.184959
0.610	8.377540	-2.615692	593.016114	-7.054918	8.690211	1.638275	-1.465426	-1.189667
0.620	8.289573	-2.654940	593.029838	-7.082212	8.758906	1.622836	-1.476976	-1.194242
0.630	8.191429	-2.700736	593.040358	-7.105658	8.823043	1.607493	-1.487764	-1.198174
0.640	8.084921	-2.749672	593.037006	-7.122549	8.883336	1.593164	-1.497940	-1.201029
0.650	7.970609	-2.795282	593.018872	-7.131890	8.943117	1.580601	-1.508066	-1.202641
0.660	7.849051	-2.830923	592.989495	-7.134863	9.006780	1.569990	-1.518877	-1.203202
0.670	7.721594	-2.852906	592.950170	-7.134405	9.078153	1.560795	-1.531014	-1.203205
0.680	7.590439	-2.862372	592.897831	-7.134090	9.159429	1.551948	-1.544858	-1.203258
0.690	7.458227	-2.865000	592.829002	-7.136806	9.250892	1.542267	-1.560465	-1.203856
0.700	7.327626	-2.868695	592.746064	-7.143700	9.351152	1.530898	-1.577598	-1.205187
0.710	7.201089	-2.880120	592.660274	-7.153705	9.457508	1.517607	-1.595772	-1.207050
0.720	7.080596	-2.901263	592.588504	-7.163690	9.566292	1.502881	-1.614323	-1.208881
0.730	6.967251	-2.927449	592.545341	-7.169131	9.673308	1.487762	-1.632501	-1.209887
0.740	6.861086	-2.947932	592.535354	-7.165073	9.774516	1.473470	-1.649609	-1.209223
0.750	6.761586	-2.949064	592.549756	-7.147198	9.866860	1.460923	-1.665153	-1.206177
0.760	6.668869	-2.918713	592.568702	-7.112833	9.948950	1.450385	-1.678953	-1.200339
0.770	6.584659	-2.850087	592.567861	-7.061568	10.021322	1.441387	-1.691169	-1.191689
0.780	6.512032	-2.743735	592.526756	-6.995076	10.086167	1.432972	-1.702230	-1.180550
0.790	6.453807	-2.607327	592.436169	-6.916078	10.146731	1.424181	-1.712713	-1.167396
0.800	6.410593	-2.453413	592.302082	-6.827028	10.206778	1.414615	-1.723239	-1.152626
0.810	6.379975	-2.295846	592.144599	-6.729362	10.270297	1.404849	-1.734424	-1.136439
0.820	6.357637	-2.146015	591.992158	-6.623714	10.341321	1.396505	-1.746868	-1.118885
0.830	6.339675	-2.010188	591.873357	-6.510858	10.423595	1.391893	-1.761119	-1.100042
0.840	6.324159	-1.888948	591.809509	-6.392763	10.520092	1.393275	-1.777615	-1.080206
0.850	6.310327	-1.778941	591.809903	-6.273104	10.632604	1.402025	-1.796625	-1.059986
0.860	6.295612	-1.676279	591.870077	-6.156833	10.761677	1.417994	-1.818250	-1.040234
0.870	6.272715	-1.580164	591.972867	-6.048888	10.906889	1.439344	-1.842464	-1.021818
0.880	6.229329	-1.494869	592.092835	-5.952567	11.067234	1.462879	-1.869172	-1.005344
0.890	6.151605	-1.428654	592.204849	-5.868426	11.241319	1.484769	-1.898215	-0.990945
0.900	6.030194	-1.389735	592.295520	-5.794234	11.427287	1.501485	-1.929322	-0.978267
0.910	5.866030	-1.381198	592.372737	-5.726008	11.622441	1.510754	-1.962015	-0.966622
0.920	5.672889	-1.397618	592.467059	-5.659672	11.822715	1.512224	-1.995506	-0.955272
0.930	5.475198	-1.425446	592.621406	-5.592761	12.022264	1.507574	-2.028658	-0.943733
0.940	5.301570	-1.447412	592.871301	-5.525651	12.213611	1.499915	-2.060078	-0.932015
0.950	5.176371	-1.449156	593.223608	-5.461854	12.388630	1.492674	-2.088358	-0.920707
0.960	5.112263	-1.425134	593.643901	-5.407183	12.540172	1.488432	-2.112406	-0.910846
0.970	5.106344	-1.381092	594.059641	-5.367950	12.663650	1.488251	-2.131714	-0.903605
0.980	5.141242	-1.332138	594.378961	-5.348849	12.757880	1.491727	-2.146422	-0.899906
0.990	5.190686	-1.297464	594.517106	-5.351332	12.824833	1.497578	-2.157185	-0.900114
1.000	5.227522	-1.293899	594.419791	-5.373088	12.868561	1.504331	-2.164894	-0.903921
1.010	5.231424	-1.330298	594.076295	-5.408734	12.893908	1.510800	-2.170413	-0.910444
1.020	5.193938	-1.404311	593.520975	-5.451290	12.905623	1.516260	-2.174417	-0.918466
1.030	5.119623	-1.502618	592.825171	-5.493810	12.908034	1.520422	-2.177376	-0.926717
1.040	5.023365	-1.604869	592.081845	-5.530713	12.905062	1.523275	-2.179608	-0.934113
1.050	4.924993	-1.690149	591.385647	-5.558617	12.900172	1.524869	-2.181347	-0.939931
1.060	4.842857	-1.743575	590.813003	-5.576737	12.896126	1.525083	-2.182776	-0.943909
1.070	4.788144	-1.760615	590.408370	-5.586921	12.894646	1.523519	-2.184021	-0.946281
1.080	4.761512	-1.747917	590.181381	-5.593368	12.896229	1.519615	-2.185130	-0.947737
1.090	4.753169	-1.720890	590.114760	-5.601972	12.900280	1.512963	-2.186063	-0.949302
1.100	4.746445	-1.699213	590.177769	-5.619291	12.905566	1.503688	-2.186725	-0.952135
1.110	4.723554	-1.701668	590.338189	-5.651266	12.910795	1.492616	-2.187017	-0.957293
1.120	4.671415	-1.741449	590.568239	-5.702012	12.914979	1.481055	-2.186873	-0.965513
1.130	4.585661	-1.823016	590.843852	-5.772993	12.917356	1.470251	-2.186255	-0.977076
1.140	4.471982	-1.941433	591.140109	-5.862841	12.916869	1.460799	-2.185077	-0.991785
1.150	4.344957	-2.084519	591.427575	-5.967850	12.911504	1.452409	-2.183108	-1.009058
1.160	4.224909	-2.236951	591.673883	-6.082965	12.897957	1.444158	-2.179910	-1.028094
1.170	4.133433	-2.384491	591.851384	-6.202927	12.871981	1.435042	-2.174867	-1.048055
1.180	4.088387	-2.516649	591.947016	-6.323269	12.829377	1.424523	-2.167318	-1.068215
1.190	4.099574	-2.627310	591.968422	-6.440908	12.767202	1.412824	-2.156737	-1.088049
1.200	4.166553	-2.714122	591.942383	-6.554186	12.684587	1.400905	-2.142875	-1.107234
1.210	4.279675	-2.777745	591.905848	-6.662390	12.582781	1.390185	-2.125808	-1.125583
1.220	4.424267	-2.821393	591.893323	-6.764986	12.464472	1.382107	-2.105865	-1.142940
1.230	4.586398	-2.850289	591.925637	-6.860932	12.332696	1.377673	-2.083487	-1.159087
1.240	4.757656	-2.870504	592.004186	-6.948380	12.189825	1.377122	-2.059078	-1.173705
1.250	4.936831	-2.887209	592.112277	-7.024932	12.037009	1.379887	-2.032893	-1.186419
1.260	5.127943	-2.903048	592.222327	-7.088354	11.874303	1.384897	-2.005041	-1.196908
1.270	5.335906	-2.917570	592.305888	-7.137499	11.701461	1.391103	-1.975577	-1.205036
1.280	5.562085	-2.928265	592.343275	-7.173108	11.519089	1.397950	-1.944664	-1.210971
1.290	5.801686	-2.932789	592.329907	-7.198095	11.329580	1.405562	-1.912715	-1.215217
1.300	6.043640	-2.931157	592.277261	-7.217030	11.137271	1.414552	-1.880415	-1.218522
1.310	6.272525	-2.926491	592.208334	-7.234799	10.947649	1.425612	-1.848614	-1.221665
1.320	6.471796	-2.923724	592.149933	-7.254893	10.766034	1.439135	-1.818126	-1.225178
1.330	6.627837	-2.926949	592.124908	-7.278109	10.596382	1.455040	-1.789552	-1.229151
1.340	6.734155	-2.936975	592.146546	-7.302422	10.440698	1.472792	-1.763195	-1.233212
1.350	6.794120	-2.950496	592.215972	-7.324151	10.299119	1.491502	-1.739082	-1.236736
1.360	6.820387	-2.961536	592.322365	-7.339860	10.170442	1.509997	-1.717045	-1.239167
1.370	6.830395	-2.964788	592.445311	-7.348031	10.052857	1.526901	-1.696841	-1.240289
1.380	6.839643	-2.959325	592.558795	-7.349834	9.944706	1.540755	-1.678265	-1.240355
1.390	6.855880	-2.950462	592.636996	-7.348896	9.845083	1.550235	-1.661233	-1.240033
1.400	6.876806	-2.948249	592.661882	-7.350403	9.754140	1.554396	-1.645819	-1.240235
1.410	6.891890	-2.963072	592.630785	-7.359965	9.673069	1.552821	-1.632225	-1.241914
1.420	6.887364	-3.000799	592.560280	-7.382492	9.603842	1.545605	-1.620737	-1.245863
1.430	6.852761	-3.060110	592.483175	-7.421222	9.548751	1.533221	-1.611649	-1.252562
1.440	6.787004	-3.133038	592.438795	-7.477140	9.509640	1.516350	-1.605168	-1.262095
1.450	6.701855	-3.207817	592.460492	-7.549071	9.486858	1.495765	-1.601264	-1.274190
1.460	6.620955	-3.272474	592.565818	-7.634491	9.478307	1.472333	-1.599537	-1.288379
1.470	6.574027	-3.318269	592.752908	-7.730694	9.479094	1.447177	-1.599165	-1.304202
1.480	6.587736	-3.342775	593.002766	-7.835792	9.482083	1.421918	-1.598995	-1.321375
1.490	6.676506	-3.352078	593.284066	-7.949170	9.479237	1.398765	-1.597757	-1.339859
1.500	6.837138	-3.360744	593.557331	-8.071247	9.463360	1.380263	-1.594346	-1.359809
1.510	7.049544	-3.388407	593.778675	-8.202689	9.429783	1.368705	-1.588097	-1.381439
1.520	7.283025	-3.453593	593.905871	-8.343327	9.377553	1.365501	-1.578963	-1.404823
1.530	7.505066	-3.567239	593.907835	-8.491167	9.309785	1.370798	-1.567547	-1.429711
1.540	7.689093	-3.728699	593.774671	-8.641880	9.233001	1.383538	-1.554967	-1.455414
1.550	7.818886	-3.925614	593.523176	-8.789016	9.155592	1.401847	-1.542584	-1.480821
1.560	7.889178	-4.137162	593.194213	-8.924928	9.085841	1.423542	-1.531681	-1.504554
1.570	7.903618	-4.339166	592.842328	-9.042073	9.030154	1.446558	-1.523197	-1.525207
1.580	7.871710	-4.509439	592.521784	-9.134233	8.992077	1.469214	-1.517594	-1.541586
1.590	7.805786	-4.632157	592.274135	-9.197260	8.972354	1.490282	-1.514899	-1.552872
1.600	7.718232	-4.700421	592.120555	-9.229237	8.969756	1.508903	-1.514853	-1.558675
1.610	7.619152	-4.716418	592.060033	-9.230236	8.982101	1.524467	-1.517093	-1.559003
1.620	7.515033	-4.689062	592.073517	-9.201921	9.006920	1.536575	-1.521250	-1.554186
1.630	7.408904	-4.629911	592.132892	-9.147181	9.041638	1.545088	-1.526961	-1.544785
1.640	7.301767	-4.548992	592.211852	-9.069655	9.083456	1.550227	-1.533819	-1.531488
1.650	7.194545	-4.452177	592.294533	-8.972983	9.129248	1.552614	-1.541336	-1.514953
1.660	7.089670	-4.340934	592.378335	-8.859902	9.175751	1.553236	-1.548968	-1.495649
1.670	6.991651	-4.214186	592.469619	-8.731729	9.220099	1.553312	-1.556215	-1.473785
1.680	6.906315	-4.071082	592.574438	-8.588775	9.260506	1.554058	-1.562758	-1.449400
1.690	6.838914	-3.913087	592.689897	-8.431581	9.296721	1.556377	-1.568564	-1.422596
1.700	6.791929	-3.744184	592.802431	-8.262224	9.329959	1.560566	-1.573873	-1.393757
1.710	6.763642	-3.569279	592.895002	-8.084764	9.362280	1.566122	-1.579079	-1.363608
1.720	6.748180	-3.392164	592.958243	-7.904457	9.395698	1.571784	-1.584546	-1.333055
1.730	6.737067	-3.214591	592.996539	-7.726153	9.431527	1.575876	-1.590486	-1.302900
1.740	6.721715	-3.037114	593.023486	-7.552850	9.470333	1.576875	-1.596957	-1.273617
1.750	6.695828	-2.861077	593.049534	-7.385248	9.512425	1.573893	-1.603985	-1.245300
1.760	6.656593	-2.690334	593.070910	-7.222485	9.558428	1.566782	-1.611684	-1.217811
1.770	6.604005	-2.531423	593.068172	-7.063478	9.609523	1.555798	-1.620307	-1.191006
1.780	6.538781	-2.391737	593.016264	-6.907986	9.667280	1.541081	-1.630188	-1.164890
1.790	6.460373	-2.276348	592.900191	-6.756953	9.733318	1.522332	-1.641645	-1.139644
1.800	6.366616	-2.185011	592.726573	-6.612275	9.808951	1.498908	-1.654886	-1.115569
1.810	6.255394	-2.111039	592.523859	-6.476448	9.894903	1.470253	-1.669959	-1.093027
1.820	6.127335	-2.043016	592.330936	-6.352391	9.991104	1.436332	-1.686744	-1.072439
1.830	5.987795	-1.969043	592.180474	-6.243425	10.096679	1.397817	-1.705000	-1.054311
1.840	5.846706	-1.881855	592.085735	-6.153088	10.210275	1.356009	-1.724459	-1.039222
1.850	5.715925	-1.782530	592.037538	-6.084401	10.330639	1.312694	-1.744930	-1.027705
1.860	5.605201	-1.680984	592.013029	-6.038610	10.457136	1.270111	-1.766369	-1.020013
1.870	5.518774	-1.592861	591.991881	-6.014031	10.589793	1.231013	-1.788841	-1.015898
1.880	5.454346	-1.534074	591.971044	-6.005873	10.728772	1.198616	-1.812381	-1.014555
1.890	5.404768	-1.515360	591.969232	-6.007356	10.873553	1.176233	-1.836844	-1.014809
1.900	5.361289	-1.539121	592.018356	-6.011670	11.022215	1.166591	-1.861803	-1.015453
1.910	5.316693	-1.599683	592.147015	-6.013848	11.171172	1.171063	-1.886554	-1.015601
1.920	5.267102	-1.686434	592.364928	-6.011858	11.315499	1.189184	-1.910224	-1.014891
1.930	5.212276	-1.788033	592.654643	-6.006532	11.449774	1.218714	-1.931947	-1.013496
1.940	5.154814	-1.895610	592.972090	-6.000407	11.569157	1.256286	-1.951046	-1.011921
1.950	5.098740	-2.003646	593.254828	-5.995922	11.670331	1.298402	-1.967170	-1.010682
1.960	5.047720	-2.108638	593.436491	-5.993742	11.752073	1.342348	-1.980342	-1.010006
1.970	5.003333	-2.206888	593.465027	-5.991971	11.815308	1.386637	-1.990902	-1.009659
1.980	4.964188	-2.293191	593.319811	-5.986626	11.862627	1.430833	-1.999365	-1.009005
1.990	4.926616	-2.361461	593.020871	-5.973069	11.897484	1.474978	-2.006251	-1.007227
2.000	4.886841	-2.406920	592.625231	-5.947687	11.923372	1.518999	-2.011958	-1.003617
2.010	4.843708	-2.428355	592.211025	-5.909194	11.943191	1.562366	-2.016712	-0.997819
2.020	4.800540	-2.429125	591.856179	-5.859259	11.958817	1.604018	-2.020561	-0.989980
2.030	4.765050	-2.416551	591.620121	-5.802436	11.970800	1.642480	-2.023393	-0.980771
2.040	4.746997	-2.400107	591.533414	-5.745454	11.978271	1.676104	-2.024953	-0.971281
2.050	4.754369	-2.388970	591.595518	-5.696048	11.979188	1.703458	-2.024895	-0.962828
2.060	4.789545	-2.389499	591.779041	-5.661516	11.970936	1.723746	-2.022873	-0.956694
2.070	4.847030	-2.403490	592.038816	-5.647168	11.951093	1.737068	-2.018633	-0.953851
2.080	4.913946	-2.428039	592.323455	-5.654960	11.918108	1.744321	-2.012095	-0.954708
2.090	4.973655	-2.457108	592.585968	-5.682837	11.871761	1.746799	-2.003382	-0.958989
2.100	5.011485	-2.483902	592.790486	-5.725230	11.813337	1.745711	-1.992835	-0.965810
2.110	5.020213	-2.502831	592.914227	-5.774629	11.745415	1.741893	-1.980964	-0.973940
2.120	5.002834	-2.510420	592.945949	-5.823545	11.671116	1.735819	-1.968327	-0.982138
2.130	4.971448	-2.505344	592.883594	-5.866043	11.592918	1.727820	-1.955345	-0.989409
2.140	4.942881	-2.488036	592.733729	-5.898383	11.511522	1.718318	-1.942107	-0.995115
2.150	4.932928	-2.460285	592.513211	-5.918902	11.425490	1.707894	-1.928310	-0.998949
2.160	4.951373	-2.425072	592.250539	-5.927594	11.332091	1.697167	-1.913395	-1.000859
2.170	4.999390	-2.386687	591.983807	-5.925724	11.229097	1.686556	-1.896859	-1.000994
2.180	5.069679	-2.350688	591.754226	-5.915541	11.116493	1.676056	-1.878566	-0.999662
2.190	5.148683	-2.323124	591.596773	-5.899943	10.997096	1.665168	-1.858884	-0.997291
2.200	5.220043	-2.308855	591.531215	-5.881990	10.875680	1.653015	-1.838564	-0.994367
2.210	5.268790	-2.309512	591.557344	-5.864287	10.757129	1.638654	-1.818442	-0.991330
2.220	5.285767	-2.322075	591.656909	-5.848345	10.644578	1.621459	-1.799113	-0.988469
2.230	5.271198	-2.338991	591.801396	-5.834115	10.538405	1.601448	-1.780733	-0.985823
2.240	5.235817	-2.350210	591.961455	-5.819926	10.436389	1.579435	-1.763018	-0.983160
2.250	5.198416	-2.346508	592.113436	-5.802957	10.334849	1.556900	-1.745417	-0.980041
2.260	5.180123	-2.322681	592.241514	-5.780136	10.230229	1.535567	-1.727374	-0.975976
2.270	5.197376	-2.279268	592.337111	-5.749170	10.120448	1.516840	-1.708562	-0.970591
2.280	5.256374	-2.222203	592.397922	-5.709354	10.005498	1.501335	-1.688983	-0.963770
2.290	5.351173	-2.160746	592.427297	-5.661939	9.887093	1.488737	-1.668913	-0.955719
2.300	5.465984	-2.104622	592.433285	-5.610058	9.767685	1.478011	-1.648740	-0.946952
2.310	5.580634	-2.061382	592.426532	-5.558268	9.649410	1.467895	-1.628794	-0.938221
2.320	5.677171	-2.034636	592.417445	-5.511819	9.533480	1.457461	-1.609250	-0.930395
2.330	5.745466	-2.023354	592.413933	-5.475845	9.420080	1.446527	-1.590118	-0.924328
2.340	5.786088	-2.022236	592.420455	-5.454669	9.308520	1.435765	-1.571269	-0.920743
2.350	5.809623	-2.023160	592.437752	-5.451339	9.197358	1.426527	-1.552460	-0.920154
