Time[s]	Fx[N]	Fy[N]	Fz[N]	Mx[Nm]	My[Nm]	Mz[Nm]	COPx[cm]	COPy[cm]
0.010	6.624730	5.689422	729.843738	9.453201	-1.196188	-0.306111	0.163896	1.295236
0.020	6.237544	5.638910	728.259115	9.694807	-0.926297	-0.275913	0.127193	1.331230
0.030	5.841891	5.602761	726.667070	9.936734	-0.637688	-0.246206	0.087755	1.367440
0.040	5.428115	5.590424	725.098589	10.179208	-0.314951	-0.218055	0.043436	1.403838
0.050	4.988361	5.603694	723.644673	10.422586	0.051564	-0.193309	-0.007126	1.440291
0.060	4.520571	5.637510	722.451406	10.667140	0.463954	-0.174267	-0.064219	1.476520
0.070	4.032197	5.683462	721.688817	10.912686	0.916806	-0.162922	-0.127036	1.512104
0.080	3.540840	5.734094	721.503571	11.158116	1.399210	-0.160200	-0.193930	1.546509
0.090	3.070134	5.785917	721.971481	11.401034	1.898165	-0.165584	-0.262914	1.579153
0.100	2.641863	5.839788	723.066226	11.637822	2.402318	-0.177281	-0.332240	1.609510
0.110	2.267713	5.898754	724.655400	11.864330	2.904905	-0.192772	-0.400867	1.637238
0.120	1.944441	5.965108	726.525702	12.076973	3.405092	-0.209407	-0.468682	1.662291
0.130	1.654211	6.038726	728.429309	12.273764	3.907429	-0.224847	-0.536418	1.684963
0.140	1.369405	6.117461	730.137309	12.454843	4.419589	-0.237303	-0.605309	1.705822
0.150	1.060085	6.198632	731.485220	12.622327	4.948977	-0.245684	-0.676566	1.725575
0.160	0.702788	6.280193	732.399115	12.779629	5.499055	-0.249731	-0.750828	1.744900
0.170	0.289604	6.360791	732.896748	12.930462	6.066440	-0.250134	-0.827735	1.764295
0.180	-0.164788	6.438989	733.065562	13.077716	6.639686	-0.248496	-0.905742	1.783976
0.190	-0.621999	6.512424	733.026642	13.222336	7.200376	-0.246961	-0.982280	1.803800
0.200	-1.028006	6.577463	732.897500	13.362462	7.726386	-0.247493	-1.054225	1.823238
0.210	-1.329706	6.629354	732.765125	13.493238	8.196354	-0.251105	-1.118551	1.841414
0.220	-1.493899	6.662599	732.675125	13.607659	8.593753	-0.257458	-1.172928	1.857257
0.230	-1.519783	6.671508	732.636218	13.698409	8.909184	-0.265098	-1.216045	1.869742
0.240	-1.438424	6.651260	732.634548	13.760142	9.140348	-0.272216	-1.247600	1.878173
0.250	-1.299378	6.599660	732.650554	13.791395	9.290312	-0.277550	-1.268041	1.882397
0.260	-1.151420	6.519231	732.671977	13.795400	9.365274	-0.281042	-1.278236	1.882889
0.270	-1.026796	6.418639	732.699084	13.779417	9.372899	-0.284042	-1.279229	1.880638
0.280	-0.935385	6.312303	732.741203	13.752834	9.321552	-0.288979	-1.272148	1.876902
0.290	-0.869047	6.217638	732.806537	13.724775	9.220019	-0.298559	-1.258179	1.872906
0.300	-0.811287	6.150380	732.889412	13.702128	9.077053	-0.314762	-1.238530	1.869604
0.310	-0.745864	6.119357	732.960306	13.688557	8.900462	-0.338016	-1.214317	1.867571
0.320	-0.660535	6.122593	732.963661	13.684588	8.696089	-0.366964	-1.186428	1.867021
0.330	-0.546347	6.146597	732.826438	13.688425	8.467481	-0.398992	-1.155455	1.867895
0.340	-0.395875	6.169773	732.476588	13.697108	8.216777	-0.431230	-1.121780	1.869972
0.350	-0.203628	6.169166	731.866223	13.707629	7.946562	-0.461534	-1.085794	1.872969
0.360	0.030852	6.128109	730.991398	13.717720	7.661697	-0.489011	-1.048124	1.876591
0.370	0.299390	6.041848	729.901193	13.726044	7.369981	-0.513957	-1.009723	1.880535
0.380	0.584271	5.918986	728.693371	13.731726	7.081067	-0.537379	-0.971748	1.884431
0.390	0.862015	5.778144	727.499419	13.733478	6.804101	-0.560374	-0.935272	1.887765
0.400	1.111278	5.640956	726.464265	13.728724	6.545279	-0.583596	-0.900977	1.889800
0.410	1.321599	5.523951	725.724152	13.713167	6.306646	-0.606980	-0.869014	1.889584
0.420	1.498378	5.432487	725.382978	13.681105	6.086786	-0.629727	-0.839113	1.886053
0.430	1.660612	5.359135	725.488140	13.626520	5.883201	-0.650485	-0.810930	1.878255
0.440	1.831205	5.287009	726.012061	13.544614	5.695403	-0.667581	-0.784478	1.865618
0.450	2.023793	5.196372	726.849605	13.433195	5.527368	-0.679278	-0.760456	1.848140
0.460	2.232736	5.071640	727.838513	13.293441	5.388031	-0.684087	-0.740278	1.826427
0.470	2.432232	4.906063	728.800154	13.129914	5.289185	-0.681223	-0.725739	1.801579
0.480	2.586099	4.702779	729.587494	12.949948	5.241368	-0.671084	-0.718402	1.774968
0.490	2.663819	4.472719	730.122456	12.762512	5.249457	-0.655488	-0.718983	1.747996
0.500	2.654664	4.230815	730.408722	12.576642	5.310063	-0.637450	-0.726999	1.721864
0.510	2.572706	3.992058	730.516710	12.399658	5.411989	-0.620522	-0.740844	1.697382
0.520	2.450714	3.768407	730.549373	12.235672	5.539585	-0.607879	-0.758277	1.674859
0.530	2.326782	3.567109	730.604029	12.085017	5.677449	-0.601457	-0.777090	1.654113
0.540	2.230463	3.390583	730.744081	11.944966	5.814520	-0.601378	-0.795699	1.634631
0.550	2.174072	3.237642	730.987571	11.811473	5.945992	-0.605887	-0.813419	1.615824
0.560	2.151398	3.105380	731.311910	11.681136	6.072625	-0.611837	-0.830374	1.597285
0.570	2.142701	2.990900	731.669265	11.552612	6.198134	-0.615635	-0.847122	1.578939
0.580	2.123283	2.892295	732.005795	11.427098	6.325939	-0.614282	-0.864192	1.561067
0.590	2.072831	2.808668	732.278746	11.307959	6.456496	-0.606172	-0.881699	1.544215
0.600	1.983122	2.739186	732.467105	11.199756	6.585952	-0.591398	-0.899147	1.529046
0.610	1.861904	2.681472	732.573744	11.106988	6.706442	-0.571552	-0.915463	1.516160
0.620	1.731352	2.630082	732.619627	11.032858	6.807938	-0.549103	-0.929260	1.505946
0.630	1.620855	2.576096	732.632954	10.978413	6.881103	-0.526545	-0.939229	1.498487
0.640	1.555989	2.508569	732.637311	10.942304	6.920238	-0.505558	-0.944565	1.493550
0.650	1.547502	2.417703	732.642786	10.921174	6.925385	-0.486534	-0.945261	1.490655
0.660	1.584906	2.298544	732.642879	10.910386	6.902893	-0.468717	-0.942191	1.489182
0.670	1.637960	2.153591	732.618184	10.904768	6.864195	-0.450950	-0.936940	1.488465
0.680	1.665936	1.993034	732.545720	10.899191	6.823031	-0.432672	-0.931414	1.487851
0.690	1.631035	1.832146	732.410725	10.888960	6.791774	-0.414599	-0.927318	1.486729
0.700	1.510673	1.686418	732.216667	10.870035	6.777730	-0.398677	-0.925645	1.484538
0.710	1.304658	1.566100	731.989379	10.839145	6.780410	-0.387301	-0.926299	1.480779
0.720	1.036007	1.472592	731.772865	10.793961	6.790680	-0.382218	-0.927976	1.475043
0.730	0.746470	1.398679	731.617081	10.733533	6.792277	-0.383745	-0.928392	1.467097
0.740	0.488761	1.332857	731.561688	10.659020	6.765450	-0.390681	-0.924796	1.457023
0.750	0.317207	1.265795	731.622619	10.574308	6.691728	-0.400913	-0.914642	1.445323
0.760	0.277871	1.195862	731.787852	10.485858	6.558442	-0.412365	-0.896222	1.432910
0.770	0.399198	1.131035	732.024043	10.401401	6.361695	-0.423796	-0.869056	1.420910
0.780	0.685016	1.086269	732.289273	10.327761	6.107020	-0.435105	-0.833963	1.410339
0.790	1.112230	1.077579	732.543966	10.268683	5.807758	-0.447041	-0.792820	1.401784
0.800	1.634559	1.115593	732.754330	10.223607	5.481855	-0.460555	-0.748116	1.395230
0.810	2.191663	1.201299	732.888591	10.187918	5.148076	-0.476151	-0.702436	1.390105
0.820	2.721340	1.325486	732.911615	10.154600	4.822593	-0.493520	-0.658005	1.385515
0.830	3.171968	1.471708	732.784954	10.116691	4.516628	-0.511500	-0.616365	1.380581
0.840	3.512559	1.621109	732.476367	10.069584	4.235381	-0.528261	-0.578228	1.374732
0.850	3.738128	1.756897	731.976965	10.012350	3.978072	-0.541628	-0.543470	1.367850
0.860	3.868924	1.866865	731.318336	9.947714	3.738790	-0.549516	-0.511240	1.360244
0.870	3.943713	1.943771	730.579385	9.880916	3.507968	-0.550465	-0.480162	1.352477
0.880	4.009103	1.984585	729.875437	9.817940	3.274499	-0.544152	-0.448638	1.345153
0.890	4.107863	1.989919	729.329867	9.763745	3.028401	-0.531672	-0.415231	1.338728
0.900	4.269194	1.964273	729.037779	9.721101	2.763549	-0.515438	-0.379068	1.333415
0.910	4.503108	1.916741	729.036325	9.690391	2.479625	-0.498665	-0.340124	1.329206
0.920	4.799879	1.861103	729.293748	9.670304	2.182556	-0.484544	-0.299270	1.325982
0.930	5.134055	1.814243	729.720704	9.659032	1.883326	-0.475383	-0.258089	1.323662
0.940	5.471455	1.792536	730.197786	9.655445	1.595599	-0.472007	-0.218516	1.322305
0.950	5.777197	1.807079	730.607402	9.659766	1.332891	-0.473644	-0.182436	1.322155
0.960	6.022952	1.859628	730.858674	9.673403	1.105999	-0.478314	-0.151329	1.323567
0.970	6.191980	1.940960	730.899866	9.697928	0.921355	-0.483545	-0.126058	1.326848
0.980	6.280963	2.032352	730.719601	9.733577	0.780811	-0.487148	-0.106855	1.332054
0.990	6.298307	2.109680	730.341578	9.777901	0.682787	-0.487767	-0.093489	1.338812
1.000	6.259446	2.149065	729.816858	9.825158	0.624109	-0.485104	-0.085516	1.346250
1.010	6.180734	2.132812	729.215455	9.866853	0.601534	-0.479839	-0.082491	1.353078
1.020	6.074252	2.054276	728.617586	9.893383	0.612368	-0.473363	-0.084045	1.357829
1.030	5.945589	1.920205	728.105090	9.896315	0.654218	-0.467395	-0.089852	1.359188
1.040	5.795239	1.749532	727.753677	9.870531	0.724349	-0.463525	-0.099532	1.356301
1.050	5.622618	1.568723	727.625517	9.815458	0.819063	-0.462813	-0.112566	1.348971
1.060	5.430710	1.405144	727.760474	9.734867	0.933273	-0.465583	-0.128239	1.337647
1.070	5.229281	1.280522	728.165545	9.635293	1.060338	-0.471518	-0.145618	1.323228
1.080	5.035123	1.206471	728.805869	9.523895	1.192209	-0.479992	-0.163584	1.306781
1.090	4.868887	1.183356	729.603843	9.406843	1.320025	-0.490407	-0.180924	1.289308
1.100	4.749623	1.202753	730.451643	9.288925	1.435167	-0.502300	-0.196477	1.271669
1.110	4.689305	1.252378	731.236314	9.174062	1.530608	-0.515181	-0.209318	1.254596
1.120	4.689659	1.321185	731.869211	9.065888	1.602220	-0.528280	-0.218922	1.238731
1.130	4.742529	1.402267	732.308076	8.967662	1.649552	-0.540473	-0.225254	1.224575
1.140	4.833217	1.492395	732.562774	8.881476	1.675781	-0.550481	-0.228756	1.212384
1.150	4.944679	1.588970	732.682626	8.807348	1.686803	-0.557205	-0.230223	1.202069
1.160	5.060216	1.686507	732.730563	8.742936	1.689781	-0.560003	-0.230614	1.193199
1.170	5.163739	1.774929	732.754000	8.684289	1.691642	-0.558791	-0.230861	1.185157
1.180	5.238841	1.840863	732.763185	8.627284	1.698020	-0.553995	-0.231728	1.177363
1.190	5.268883	1.871550	732.724928	8.568924	1.712821	-0.546400	-0.233760	1.169460
1.200	5.239585	1.859508	732.574469	8.507753	1.738272	-0.536970	-0.237283	1.161350
1.210	5.143643	1.805407	732.242079	8.443232	1.775184	-0.526696	-0.242431	1.153066
1.220	4.985195	1.717400	731.685415	8.374491	1.823186	-0.516478	-0.249176	1.144548
1.230	4.781360	1.607095	730.915521	8.299201	1.880893	-0.507080	-0.257334	1.135453
1.240	4.559349	1.484467	730.005530	8.213325	1.946131	-0.499132	-0.266591	1.125104
1.250	4.349899	1.354634	729.077299	8.112074	2.016385	-0.493106	-0.276567	1.112649
1.260	4.179605	1.218062	728.270276	7.991723	2.089487	-0.489194	-0.286911	1.097357
1.270	4.065034	1.073537	727.704446	7.851331	2.164312	-0.487125	-0.297416	1.078918
1.280	4.010167	0.921728	727.450799	7.693419	2.241227	-0.486044	-0.308093	1.057586
1.290	4.006927	0.767299	727.518187	7.523229	2.322297	-0.484617	-0.319208	1.034095
1.300	4.037610	0.618571	727.858149	7.346975	2.411368	-0.481351	-0.331296	1.009397
1.310	4.078106	0.484933	728.383236	7.169999	2.514103	-0.475064	-0.345162	0.984372
1.320	4.101325	0.373237	728.991296	6.995559	2.637698	-0.465322	-0.361829	0.959622
1.330	4.080458	0.284910	729.588287	6.824426	2.789946	-0.452679	-0.382400	0.935380
1.340	3.991997	0.215213	730.104586	6.655106	2.977461	-0.438522	-0.407813	0.911528
1.350	3.818925	0.154928	730.503280	6.484575	3.203362	-0.424524	-0.438514	0.887686
1.360	3.554680	0.093500	730.781496	6.309518	3.465129	-0.411927	-0.474168	0.863393
1.370	3.207806	0.021928	730.966010	6.127872	3.753511	-0.401100	-0.513500	0.838325
1.380	2.805489	-0.066020	731.103027	5.940115	4.053149	-0.391639	-0.554388	0.812487
1.390	2.392775	-0.174406	731.242229	5.749613	4.345056	-0.382941	-0.594202	0.786280
1.400	2.024982	-0.306212	731.418685	5.561719	4.610486	-0.374788	-0.630348	0.760402
1.410	1.754125	-0.463234	731.640195	5.381997	4.835113	-0.367529	-0.660859	0.735607
1.420	1.614030	-0.644318	731.886962	5.214530	5.012181	-0.361792	-0.684830	0.712478
1.430	1.610264	-0.843225	732.123907	5.061208	5.143618	-0.357994	-0.702561	0.691305
1.440	1.718976	-1.048136	732.318480	4.922191	5.238827	-0.355997	-0.715376	0.672138
1.450	1.894694	-1.243794	732.454351	4.796991	5.311551	-0.355125	-0.725172	0.654920
1.460	2.083551	-1.415457	732.534870	4.685360	5.375776	-0.354501	-0.733859	0.639609
1.470	2.237072	-1.552673	732.576270	4.587511	5.441949	-0.353487	-0.742851	0.626216
1.480	2.322488	-1.651144	732.595198	4.503707	5.514770	-0.351948	-0.752772	0.614761
1.490	2.327444	-1.712389	732.596858	4.433628	5.593265	-0.350241	-0.763485	0.605193
1.500	2.258728	-1.742016	732.569132	4.375952	5.672874	-0.348970	-0.774381	0.597343
1.510	2.135969	-1.747803	732.485471	4.328468	5.748422	-0.348676	-0.784783	0.590929
1.520	1.982427	-1.738410	732.316031	4.288693	5.816538	-0.349571	-0.794266	0.585634
1.530	1.816213	-1.722776	732.043431	4.254734	5.876475	-0.351418	-0.802749	0.581213
1.540	1.645680	-1.709491	731.677361	4.225980	5.929151	-0.353611	-0.810350	0.577574
1.550	1.471411	-1.705286	731.261852	4.203351	5.975101	-0.355491	-0.817095	0.574808
1.560	1.293956	-1.712754	730.870631	4.189079	6.012557	-0.356773	-0.822657	0.573163
1.570	1.122825	-1.728592	730.589715	4.186198	6.036802	-0.357872	-0.826292	0.572989
1.580	0.980715	-1.743866	730.491336	4.197989	6.041366	-0.359936	-0.827028	0.574680
1.590	0.899071	-1.746867	730.608087	4.227440	6.020739	-0.364507	-0.824072	0.578619
1.600	0.906142	-1.727570	730.918154	4.276621	5.973482	-0.372945	-0.817257	0.585103
1.610	1.013362	-1.681647	731.348991	4.345986	5.904234	-0.385814	-0.807307	0.594242
1.620	1.207228	-1.612123	731.798449	4.434002	5.823488	-0.402507	-0.795778	0.605905
1.630	1.450948	-1.528002	732.164258	4.537535	5.745031	-0.421275	-0.784664	0.619743
1.640	1.695130	-1.440731	732.370288	4.652930	5.682108	-0.439719	-0.775852	0.635325
1.650	1.892609	-1.360080	732.381881	4.777112	5.643931	-0.455534	-0.770627	0.652271
1.660	2.011207	-1.291012	732.208728	4.908085	5.633889	-0.467224	-0.769438	0.670312
1.670	2.040077	-1.232499	731.897973	5.044621	5.649855	-0.474461	-0.771946	0.689252
1.680	1.988595	-1.178519	731.521324	5.185577	5.686009	-0.477957	-0.777285	0.708876
1.690	1.879756	-1.120685	731.159286	5.329392	5.735055	-0.478949	-0.784378	0.728896
1.700	1.741473	-1.051378	730.885128	5.474159	5.789833	-0.478613	-0.792167	0.748977
1.710	1.599177	-0.966195	730.751063	5.618255	5.843966	-0.477702	-0.799720	0.768833
1.720	1.471808	-0.864928	730.779019	5.761204	5.891838	-0.476497	-0.806241	0.788365
1.730	1.371364	-0.750867	730.957878	5.904329	5.928482	-0.474980	-0.811057	0.807752
1.740	1.304561	-0.628757	731.248076	6.050815	5.949828	-0.473057	-0.813654	0.827464
1.750	1.274597	-0.502262	731.592814	6.205014	5.953414	-0.470750	-0.813761	0.848151
1.760	1.281731	-0.372248	731.932576	6.371113	5.939359	-0.468338	-0.811463	0.870451
1.770	1.322567	-0.237005	732.218176	6.551522	5.911136	-0.466410	-0.807292	0.894750
1.780	1.388787	-0.094423	732.418660	6.745567	5.875595	-0.465794	-0.802218	0.920999
1.790	1.466464	0.055233	732.523351	6.949173	5.841825	-0.467306	-0.797493	0.948662
1.800	1.537159	0.207864	732.539502	7.155930	5.818813	-0.471401	-0.794334	0.976866
1.810	1.581476	0.356619	732.487653	7.359323	5.812445	-0.477911	-0.793521	1.004703
1.820	1.584471	0.495124	732.396400	7.555248	5.822794	-0.485996	-0.795033	1.031579
1.830	1.541193	0.621107	732.297282	7.743629	5.842816	-0.494340	-0.797875	1.057443
1.840	1.460215	0.738365	732.219511	7.928433	5.859223	-0.501466	-0.800200	1.082795
1.850	1.363321	0.855979	732.184288	8.116201	5.855497	-0.506101	-0.799730	1.108491
1.860	1.280593	0.985135	732.199886	8.313832	5.816167	-0.507536	-0.794341	1.135459
1.870	1.241970	1.135059	732.260065	8.526495	5.730950	-0.505936	-0.782639	1.164408
1.880	1.268320	1.309879	732.347692	8.756291	5.597345	-0.502461	-0.764302	1.195647
1.890	1.365683	1.507700	732.442362	9.002020	5.420797	-0.499064	-0.740099	1.229041
1.900	1.524826	1.722114	732.527993	9.260042	5.212413	-0.497906	-0.711565	1.264121
1.910	1.725745	1.945214	732.596242	9.525817	4.985160	-0.500624	-0.680479	1.300282
1.920	1.944799	2.170417	732.644118	9.795282	4.750114	-0.507806	-0.648352	1.336977
1.930	2.161614	2.393526	732.667378	10.065330	4.514258	-0.518890	-0.616140	1.373793
1.940	2.363591	2.611662	732.653407	10.333243	4.280414	-0.532453	-0.584234	1.410386
1.950	2.547084	2.821205	732.577775	10.595684	4.048783	-0.546641	-0.552676	1.446356
1.960	2.715466	3.016677	732.407627	10.848119	3.818937	-0.559598	-0.521422	1.481159
1.970	2.875101	3.191692	732.112725	11.085268	3.591224	-0.569841	-0.490529	1.514148
1.980	3.030974	3.341510	731.681398	11.302566	3.367171	-0.576600	-0.460196	1.544739
1.990	3.183972	3.465589	731.135084	11.498051	3.148954	-0.580020	-0.430694	1.572630
2.000	3.331283	3.568638	730.533887	11.673807	2.938360	-0.581197	-0.402221	1.597983
2.010	3.469751	3.659633	729.968525	11.836131	2.735759	-0.581975	-0.374778	1.621458
2.020	3.600189	3.749209	729.539676	11.994094	2.539500	-0.584524	-0.348096	1.644063
2.030	3.729947	3.846394	729.331083	12.156891	2.345993	-0.590730	-0.321664	1.666855
2.040	3.871962	3.955919	729.385561	12.331033	2.150507	-0.601546	-0.294838	1.690606
2.050	4.040629	4.077223	729.692510	12.518521	1.948622	-0.616575	-0.267047	1.715589
2.060	4.246526	4.205634	730.191525	12.716611	1.738020	-0.634102	-0.238022	1.741545
2.070	4.492206	4.335306	730.790273	12.918969	1.520021	-0.651627	-0.207997	1.767808
2.080	4.770343	4.462452	731.389235	13.117563	1.300072	-0.666695	-0.177754	1.793513
2.090	5.064413	4.587087	731.903978	13.304524	1.086760	-0.677668	-0.148484	1.817796
2.100	5.351633	4.712066	732.277987	13.473418	0.889575	-0.684138	-0.121481	1.839932
2.110	5.607522	4.839799	732.483905	13.619615	0.716252	-0.686795	-0.097784	1.859374
2.120	5.811025	4.968668	732.516142	13.739842	0.570735	-0.686877	-0.077914	1.875705
2.130	5.948753	5.091603	732.380851	13.831431	0.452581	-0.685474	-0.061796	1.888557
2.140	6.017250	5.198022	732.088919	13.891920	0.357985	-0.683010	-0.048899	1.897573
2.150	6.022878	5.278140	731.654395	13.919372	0.281916	-0.679114	-0.038531	1.902452
2.160	5.979410	5.327114	731.097350	13.913217	0.220346	-0.672888	-0.030139	1.903059
2.170	5.903678	5.346454	730.448568	13.874982	0.171699	-0.663425	-0.023506	1.899515
2.180	5.810472	5.341733	729.753528	13.808442	0.137078	-0.650381	-0.018784	1.892206
2.190	5.708741	5.318038	729.073233	13.719045	0.119411	-0.634370	-0.016379	1.881710
2.200	5.600881	5.276246	728.479679	13.612864	0.121981	-0.617003	-0.016745	1.868668
2.210	5.485168	5.212774	728.045294	13.495526	0.147010	-0.600466	-0.020192	1.853666
2.220	5.359624	5.123122	727.828778	13.371567	0.194875	-0.586774	-0.026775	1.837186
2.230	5.225064	5.007037	727.862106	13.244412	0.264120	-0.577010	-0.036287	1.819632
2.240	5.085982	4.872094	728.143174	13.116747	0.352006	-0.570934	-0.048343	1.801397
2.250	4.949396	4.733331	728.636097	12.990796	0.455194	-0.567145	-0.062472	1.782892
2.260	4.822830	4.608719	729.278567	12.868183	0.570298	-0.563654	-0.078200	1.764509
2.270	4.712540	4.512354	729.993917	12.749487	0.694339	-0.558606	-0.095116	1.746520
2.280	4.622200	4.448572	730.704907	12.633909	0.825123	-0.550881	-0.112921	1.729003
2.290	4.551634	4.409852	731.346348	12.519398	0.961496	-0.540396	-0.131469	1.711829
2.300	4.495419	4.379652	731.874371	12.403220	1.103367	-0.528071	-0.150759	1.694720
2.310	4.442097	4.338979	732.270754	12.282697	1.251477	-0.515462	-0.170904	1.677344
2.320	4.375211	4.273919	732.541093	12.155734	1.407015	-0.504175	-0.192073	1.659393
2.330	4.276884	4.181055	732.706438	12.020903	1.571066	-0.495255	-0.214420	1.640617
2.340	4.133280	4.068460	732.790101	11.877106	1.743954	-0.488778	-0.237988	1.620806
2.350	3.939815	3.951616	732.804078	11.723097	1.924718	-0.483832	-0.262651	1.599759
2.360	3.703463	3.845671	732.740990	11.557213	2.111115	-0.478923	-0.288112	1.577258
2.370	3.440487	3.757136	732.576316	11.377506	2.300402	-0.472651	-0.314015	1.553081
2.380	3.170131	3.678758	732.281910	11.182266	2.490596	-0.464332	-0.340114	1.527044
2.390	2.906927	3.590302	731.846839	10.970805	2.681559	-0.454252	-0.366410	1.499057
2.400	2.655154	3.465519	731.297128	10.744151	2.875220	-0.443478	-0.393167	1.469191
