Time[s]	Fx[N]	Fy[N]	Fz[N]	Mx[Nm]	My[Nm]	Mz[Nm]	COPx[cm]	COPy[cm]
0.010	-1.355331	-4.859039	606.336019	-13.599277	7.563533	-0.522067	-1.247416	-2.242861
0.020	-3.026820	-3.663689	609.153738	-13.529897	8.268649	-0.550017	-1.357399	-2.221097
0.030	-4.508899	-2.514605	611.416504	-13.455416	8.897779	-0.572758	-1.455273	-2.200696
0.040	-5.644644	-1.460211	612.645907	-13.370874	9.389413	-0.586190	-1.532600	-2.182480
0.050	-6.333305	-0.551721	612.472304	-13.270124	9.706595	-0.588078	-1.584822	-2.166649
0.060	-6.544034	0.165067	610.663066	-13.146129	9.841304	-0.578306	-1.611577	-2.152763
0.070	-6.315555	0.660821	607.137817	-12.992194	9.812200	-0.558593	-1.616141	-2.139909
0.080	-5.742127	0.930252	601.975412	-12.803819	9.657196	-0.531828	-1.604251	-2.126967
0.090	-4.949897	0.992174	595.411533	-12.580614	9.423558	-0.501282	-1.582697	-2.112927
0.100	-4.070337	0.882619	587.822041	-12.327802	9.158365	-0.469968	-1.558017	-2.097200
0.110	-3.217478	0.645142	579.689865	-12.056916	8.901290	-0.440276	-1.535526	-2.079891
0.120	-2.473532	0.323120	571.558849	-11.785439	8.680489	-0.413804	-1.518739	-2.061982
0.130	-1.884607	-0.043340	563.981733	-11.535308	8.511464	-0.391301	-1.509174	-2.045334
0.140	-1.465502	-0.416510	557.469754	-11.330430	8.398299	-0.372765	-1.506503	-2.032474
0.150	-1.210172	-0.759154	552.449621	-11.193637	8.336489	-0.357768	-1.509004	-2.026182
0.160	-1.103244	-1.034978	549.231665	-11.143692	8.316430	-0.346012	-1.514193	-2.028960
0.170	-1.128326	-1.213090	547.991679	-11.193003	8.326542	-0.337862	-1.519465	-2.042550
0.180	-1.270792	-1.275367	548.768013	-11.346550	8.355111	-0.334586	-1.522521	-2.067641
0.190	-1.515179	-1.223350	551.473368	-11.602245	8.390336	-0.338112	-1.521440	-2.103863
0.200	-1.839333	-1.080863	555.916197	-11.952490	8.418900	-0.350295	-1.514419	-2.150052
0.210	-2.208388	-0.890175	561.822050	-12.386260	8.424208	-0.371896	-1.499444	-2.204659
0.220	-2.571749	-0.702381	568.845053	-12.890647	8.385899	-0.401666	-1.474197	-2.266109
0.230	-2.865420	-0.565189	576.566701	-13.450950	8.281806	-0.435943	-1.436400	-2.332939
0.240	-3.020386	-0.512277	584.490287	-14.049312	8.092285	-0.469042	-1.384503	-2.403686
0.250	-2.975478	-0.557518	592.047540	-14.663051	7.805388	-0.494368	-1.318372	-2.476668
0.260	-2.690894	-0.695441	598.632735	-15.264357	7.420617	-0.505895	-1.239594	-2.549870
0.270	-2.157480	-0.907009	603.667080	-15.822422	6.949527	-0.499513	-1.151219	-2.621051
0.280	-1.398236	-1.168004	606.679728	-16.307826	6.412954	-0.473808	-1.057058	-2.688045
0.290	-0.462039	-1.456475	607.381918	-16.697816	5.836181	-0.430072	-0.960875	-2.749146
0.300	0.586920	-1.756433	605.712626	-16.980718	5.244073	-0.371648	-0.865769	-2.803428
0.310	1.679323	-2.057158	601.844518	-17.157963	4.657858	-0.302997	-0.773930	-2.850896
0.320	2.747720	-2.349739	596.151619	-17.243112	4.094155	-0.228877	-0.686764	-2.892404
0.330	3.730386	-2.623566	589.150092	-17.258310	3.565751	-0.153889	-0.605236	-2.929357
0.340	4.573975	-2.865129	581.428225	-17.229420	3.082990	-0.082303	-0.530244	-2.963293
0.350	5.236945	-3.060127	573.580017	-17.181312	2.654685	-0.017989	-0.462827	-2.995452
0.360	5.694239	-3.197940	566.151304	-17.134497	2.288030	0.035771	-0.404138	-3.026487
0.370	5.941756	-3.275887	559.602215	-17.103666	1.987699	0.076577	-0.355199	-3.056397
0.380	5.998023	-3.300677	554.286585	-17.097972	1.754808	0.103206	-0.316589	-3.084681
0.390	5.901025	-3.286213	550.446349	-17.122350	1.586454	0.115733	-0.288212	-3.110630
0.400	5.700043	-3.249131	548.216503	-17.178980	1.476174	0.115350	-0.269268	-3.133612
0.410	5.444759	-3.204466	547.635104	-17.268338	1.415129	0.103955	-0.258407	-3.153256
0.420	5.175402	-3.163358	548.653742	-17.389818	1.393526	0.083728	-0.253990	-3.169543
0.430	4.917523	-3.133400	551.146331	-17.542069	1.401798	0.056888	-0.254342	-3.182833
0.440	4.682721	-3.120847	554.916821	-17.723114	1.431297	0.025645	-0.257930	-3.193833
0.450	4.473688	-3.133031	559.708346	-17.930149	1.474455	-0.007768	-0.263433	-3.203481
0.460	4.290365	-3.179265	565.216031	-18.159080	1.524535	-0.041086	-0.269726	-3.212768
0.470	4.134714	-3.269418	571.104254	-18.403992	1.575173	-0.072085	-0.275812	-3.222528
0.480	4.013324	-3.410708	577.028132	-18.656914	1.619986	-0.098796	-0.280746	-3.233276
0.490	3.938014	-3.604204	582.657931	-18.908178	1.652457	-0.119798	-0.283607	-3.245159
0.500	3.924393	-3.842759	587.703171	-19.147366	1.666136	-0.134434	-0.283500	-3.257999
0.510	3.988143	-4.111343	591.931244	-19.364532	1.654903	-0.142701	-0.279577	-3.271416
0.520	4.139568	-4.389742	595.176218	-19.551211	1.612983	-0.144813	-0.271009	-3.284945
0.530	4.378354	-4.656476	597.337940	-19.700961	1.534659	-0.140691	-0.256916	-3.298127
0.540	4.691216	-4.892494	598.376872	-19.809477	1.413978	-0.129788	-0.236302	-3.310535
0.550	5.054262	-5.083623	598.311202	-19.874420	1.244866	-0.111405	-0.208063	-3.321753
0.560	5.439643	-5.221746	597.217927	-19.895120	1.021816	-0.085294	-0.171096	-3.331300
0.570	5.824053	-5.305188	595.233151	-19.872298	0.741042	-0.052196	-0.124496	-3.338574
0.580	6.195873	-5.338651	592.544494	-19.807994	0.401663	-0.014007	-0.067786	-3.342870
0.590	6.558512	-5.332612	589.371757	-19.705754	0.006490	0.026510	-0.001101	-3.343519
0.600	6.928930	-5.301897	585.937723	-19.570801	-0.437759	0.066385	0.074711	-3.340082
0.610	7.331602	-5.263240	582.436083	-19.409742	-0.920635	0.103212	0.158066	-3.332510
0.620	7.789369	-5.231927	579.006293	-19.229579	-1.428214	0.135643	0.246666	-3.321135
0.630	8.313800	-5.218095	575.724600	-19.036234	-1.943472	0.163377	0.337570	-3.306483
0.640	8.898657	-5.223682	572.614959	-18.833164	-2.447104	0.186661	0.427356	-3.288975
0.650	9.519351	-5.241313	569.674940	-18.620665	-2.919120	0.205637	0.512418	-3.268647
0.660	10.138741	-5.255934	566.904716	-18.396245	-3.340932	0.219910	0.589329	-3.245033
0.670	10.716449	-5.248705	564.326803	-18.156053	-3.697212	0.228650	0.655154	-3.217294
0.680	11.217450	-5.201576	561.990396	-17.896944	-3.976756	0.231257	0.707620	-3.184564
0.690	11.616884	-5.101146	559.962227	-17.618293	-4.172131	0.228264	0.745074	-3.146336
0.700	11.900611	-4.941390	558.309878	-17.322711	-4.278365	0.221908	0.766307	-3.102705
0.710	12.062627	-4.725514	557.082525	-17.015143	-4.291158	0.215918	0.770291	-3.054331
0.720	12.100605	-4.466943	556.291998	-16.700454	-4.205059	0.214389	0.755909	-3.002102
0.730	12.010518	-4.188815	555.897311	-16.380026	-4.012009	0.220070	0.721718	-2.946592
0.740	11.781619	-3.920915	555.798014	-16.048274	-3.700747	0.232707	0.665844	-2.887429
0.750	11.394003	-3.693319	555.843193	-15.690366	-3.257671	0.248178	0.586077	-2.822804
0.760	10.821551	-3.527220	555.861773	-15.282711	-2.669460	0.258938	0.480238	-2.749373
0.770	10.042146	-3.425057	555.714433	-14.797382	-1.927185	0.255847	0.346794	-2.662767
0.780	9.054064	-3.363212	555.357485	-14.210247	-1.030835	0.230864	0.185616	-2.558757
0.790	7.892787	-3.290537	554.897584	-13.510662	0.007252	0.179684	-0.001307	-2.434803
0.800	6.638638	-3.134640	554.610690	-12.709023	1.161538	0.103344	-0.209433	-2.291521
0.810	5.406272	-2.815670	554.905407	-11.838463	2.395859	0.008158	-0.431760	-2.133420
0.820	4.313837	-2.265260	556.230059	-10.948867	3.669167	-0.096123	-0.659649	-1.968406
0.830	3.440258	-1.446850	558.948026	-10.094711	4.942881	-0.199364	-0.884319	-1.806020
0.840	2.788067	-0.372361	563.224155	-9.321182	6.187398	-0.294245	-1.098568	-1.654968
0.850	2.271037	0.890610	568.963955	-8.653822	7.385394	-0.378252	-1.298042	-1.520979
0.860	1.737324	2.225854	575.824965	-8.094904	8.530762	-0.453567	-1.481485	-1.405793
0.870	1.022695	3.490482	583.289335	-7.626658	9.623655	-0.524934	-1.649894	-1.307526
0.880	0.013346	4.546532	590.766428	-7.219038	10.663493	-0.596596	-1.805027	-1.221978
0.890	-1.307028	5.292840	597.692103	-6.839061	11.642546	-0.669720	-1.947917	-1.144245
0.900	-2.843551	5.687419	603.601754	-6.459048	12.542485	-0.741329	-2.077940	-1.070084
0.910	-4.413076	5.753970	608.167520	-6.062008	13.335374	-0.804941	-2.192714	-0.996766
0.920	-5.793658	5.571582	611.201238	-5.643330	13.988937	-0.852535	-2.288761	-0.923318
0.930	-6.783397	5.252101	612.632736	-5.208981	14.474311	-0.877063	-2.362641	-0.850262
0.940	-7.250661	4.912928	612.477221	-4.771209	14.773569	-0.874649	-2.412101	-0.779002
0.950	-7.161919	4.653142	610.804826	-4.343226	14.884594	-0.845750	-2.436882	-0.711066
0.960	-6.581162	4.538185	607.720822	-3.934458	14.822148	-0.795006	-2.438973	-0.647412
0.970	-5.644170	4.594712	603.359041	-3.547676	14.615404	-0.729926	-2.422339	-0.587987
0.980	-4.518640	4.814231	597.886442	-3.178798	14.303120	-0.658933	-2.392280	-0.531673
0.990	-3.364279	5.162494	591.514591	-2.819266	13.927884	-0.589452	-2.354614	-0.476618
1.000	-2.304487	5.591001	584.512877	-2.459976	13.530658	-0.526611	-2.314860	-0.420859
1.010	-1.414788	6.047387	577.216938	-2.095234	13.146519	-0.472837	-2.277570	-0.362989
1.020	-0.726213	6.482770	570.024306	-1.725371	12.802087	-0.428257	-2.245884	-0.302684
1.030	-0.237640	6.855853	563.371079	-1.357458	12.514746	-0.391573	-2.221404	-0.240953
1.040	0.069576	7.134919	557.689959	-1.004407	12.293392	-0.361051	-2.204342	-0.180101
1.050	0.219570	7.299182	553.358503	-0.683124	12.140135	-0.335325	-2.193900	-0.123450
1.060	0.234970	7.340254	550.651522	-0.412143	12.052240	-0.313851	-2.188724	-0.074846
1.070	0.135185	7.263300	549.710238	-0.208865	12.023729	-0.296919	-2.187285	-0.037996
1.080	-0.061516	7.086788	550.534129	-0.086512	12.046452	-0.285329	-2.188139	-0.015714
1.090	-0.334679	6.839941	552.992987	-0.051391	12.110814	-0.279879	-2.190048	-0.009293
1.100	-0.659776	6.557785	556.851897	-0.101378	12.206367	-0.280937	-2.192031	-0.018206
1.110	-1.009217	6.274638	561.802709	-0.226308	12.322336	-0.288258	-2.193356	-0.040282
1.120	-1.355378	6.017553	567.499237	-0.410249	12.447957	-0.301106	-2.193476	-0.072291
1.130	-1.673120	5.801295	573.595104	-0.634987	12.572459	-0.318553	-2.191870	-0.110703
1.140	-1.939793	5.625894	579.780380	-0.883722	12.684528	-0.339710	-2.187816	-0.152424
1.150	-2.133135	5.477086	585.807717	-1.144044	12.771281	-0.363688	-2.180115	-0.195293
1.160	-2.229666	5.329824	591.495715	-1.409448	12.817132	-0.389291	-2.166902	-0.238285
1.170	-2.206388	5.154871	596.702902	-1.679022	12.803272	-0.414604	-2.145669	-0.281383
1.180	-2.046682	4.927521	601.280085	-1.955395	12.708662	-0.436844	-2.113601	-0.325205
1.190	-1.748520	4.635794	605.023817	-2.241480	12.512899	-0.452734	-2.068166	-0.370478
1.200	-1.330838	4.284886	607.658614	-2.536960	12.200349	-0.459473	-2.007764	-0.417498
1.210	-0.833422	3.896121	608.865296	-2.835612	11.764075	-0.455901	-1.932131	-0.465721
1.220	-0.307545	3.501251	608.351508	-3.124440	11.207934	-0.443248	-1.842345	-0.513591
1.230	0.201199	3.134812	605.939636	-3.384971	10.546082	-0.424917	-1.740451	-0.558632
1.240	0.671643	2.827403	601.638159	-3.596384	9.800265	-0.405272	-1.628930	-0.597765
1.250	1.118614	2.601444	595.669267	-3.739639	8.996198	-0.387946	-1.510267	-0.627805
1.260	1.590361	2.469255	588.444017	-3.801625	8.160423	-0.374425	-1.386780	-0.646047
1.270	2.150819	2.432384	580.496757	-3.778355	7.318435	-0.363540	-1.260719	-0.650883
1.280	2.852955	2.481449	572.402880	-3.676257	6.493974	-0.352042	-1.134511	-0.642250
1.290	3.714124	2.596832	564.703410	-3.511054	5.708914	-0.335961	-1.010958	-0.621752
1.300	4.703423	2.750934	557.850169	-3.304432	4.983224	-0.312167	-0.893291	-0.592351
1.310	5.745369	2.912443	552.174414	-3.079513	4.334940	-0.279571	-0.785067	-0.557707
1.320	6.737245	3.052367	547.875336	-2.856556	3.780315	-0.239691	-0.689995	-0.521388
1.330	7.572848	3.150836	545.022920	-2.650181	3.334164	-0.196465	-0.611747	-0.486251
1.340	8.164562	3.202568	543.570700	-2.468612	3.010092	-0.155368	-0.553763	-0.454147
1.350	8.457849	3.218158	543.376518	-2.314593	2.820220	-0.121987	-0.519018	-0.425965
1.360	8.435907	3.219262	544.231393	-2.187134	2.774282	-0.100470	-0.509762	-0.401876
1.370	8.115521	3.228517	545.895529	-2.083272	2.878298	-0.092442	-0.527262	-0.381625
1.380	7.537090	3.258290	548.136329	-1.999236	3.133259	-0.096893	-0.571620	-0.364733
1.390	6.752409	3.303893	550.760274	-1.930760	3.534235	-0.111166	-0.641701	-0.350563
1.400	5.813714	3.345373	553.632023	-1.872850	4.070128	-0.132638	-0.735168	-0.338284
1.410	4.766955	3.358077	556.678384	-1.819891	4.724110	-0.160234	-0.848625	-0.326920
1.420	3.650867	3.327742	559.878176	-1.766903	5.474663	-0.194971	-0.977831	-0.315587
1.430	2.500819	3.263009	563.241330	-1.711975	6.297032	-0.239198	-1.117999	-0.303950
1.440	1.353902	3.198635	566.783721	-1.658827	7.164809	-0.294919	-1.264117	-0.292674
1.450	0.250975	3.186354	570.507279	-1.617775	8.051280	-0.362084	-1.411249	-0.283568
1.460	-0.766523	3.275860	574.393804	-1.603739	8.930240	-0.437790	-1.554724	-0.279206
1.470	-1.663786	3.493176	578.412897	-1.631321	9.776257	-0.516781	-1.690187	-0.282034
1.480	-2.420290	3.825466	582.533535	-1.708755	10.564702	-0.592974	-1.813578	-0.293332
1.490	-3.034213	4.219299	586.724830	-1.833428	11.271922	-0.661256	-1.921160	-0.312485
1.500	-3.521514	4.594298	590.940203	-1.991122	11.875648	-0.718733	-2.009619	-0.336941
1.510	-3.909329	4.868095	595.093490	-2.159372	12.355384	-0.764925	-2.076209	-0.362863
1.520	-4.224809	4.983777	599.042592	-2.313648	12.692499	-0.800925	-2.118797	-0.386224
1.530	-4.482115	4.929558	602.591819	-2.434133	12.870191	-0.828004	-2.135806	-0.403944
1.540	-4.671800	4.743046	605.513928	-2.510938	12.873849	-0.846349	-2.126103	-0.414679
1.550	-4.757239	4.498076	607.584153	-2.546457	12.692282	-0.854485	-2.088975	-0.419112
1.560	-4.681284	4.278673	608.615260	-2.554552	12.319794	-0.849563	-2.024234	-0.419732
1.570	-4.382576	4.149770	608.484988	-2.557087	11.758470	-0.828355	-1.932418	-0.420238
1.580	-3.816414	4.135649	607.151918	-2.578774	11.019834	-0.788569	-1.815004	-0.424733
1.590	-2.972122	4.213718	604.658855	-2.641398	10.125154	-0.730013	-1.674523	-0.436841
1.600	-1.879849	4.324909	601.124093	-2.758716	9.104143	-0.655241	-1.514520	-0.458926
1.610	-0.604386	4.395721	596.722816	-2.933379	7.992256	-0.569478	-1.339358	-0.491582
1.620	0.770785	4.363060	591.663873	-3.156987	6.827250	-0.479799	-1.153907	-0.533578
1.630	2.162257	4.192928	586.168579	-3.413369	5.645823	-0.393723	-0.963174	-0.582319
1.640	3.501192	3.887482	580.456974	-3.683913	4.480990	-0.317586	-0.771976	-0.634657
1.650	4.739505	3.480332	574.743753	-3.952970	3.360389	-0.255204	-0.584676	-0.687779
1.660	5.848244	3.024089	569.242227	-4.211504	2.305341	-0.207317	-0.404984	-0.739844
1.670	6.812105	2.575581	564.170559	-4.458090	1.330439	-0.171998	-0.235822	-0.790203
1.680	7.624429	2.183124	559.752105	-4.697392	0.443648	-0.145808	-0.079258	-0.839192
1.690	8.284630	1.878339	556.203335	-4.937107	-0.353021	-0.125138	0.063470	-0.887644
1.700	8.797237	1.673248	553.709300	-5.184651	-1.062261	-0.107212	0.191845	-0.936349
1.710	9.170953	1.561985	552.394053	-5.444693	-1.689915	-0.090474	0.305926	-0.985654
1.720	9.417563	1.525632	552.296485	-5.718200	-2.243460	-0.074415	0.406206	-1.035350
1.730	9.551979	1.538374	553.359145	-6.002935	-2.730812	-0.059146	0.493497	-1.084817
1.740	9.593902	1.573378	555.432470	-6.294814	-3.159507	-0.044965	0.568837	-1.133318
1.750	9.569252	1.607411	558.292972	-6.589352	-3.536061	-0.032071	0.633370	-1.180268
1.760	9.508519	1.623843	561.671775	-6.882572	-3.865371	-0.020418	0.688190	-1.225373
1.770	9.441383	1.613976	565.288072	-7.171154	-4.150216	-0.009707	0.734177	-1.268584
1.780	9.390338	1.576620	568.880355	-7.451957	-4.391179	0.000508	0.771898	-1.309934
1.790	9.367058	1.515846	572.228177	-7.721453	-4.587186	0.010616	0.801636	-1.349366
1.800	9.372838	1.437218	575.160434	-7.975664	-4.736562	0.020758	0.823520	-1.386685
1.810	9.401296	1.343607	577.551591	-8.210773	-4.838082	0.030773	0.837688	-1.421652
1.820	9.440614	1.232373	579.311677	-8.424037	-4.891537	0.040305	0.844370	-1.454146
1.830	9.474301	1.095608	580.377001	-8.614420	-4.897592	0.049000	0.843864	-1.484280
1.840	9.481744	0.923903	580.707263	-8.782602	-4.857157	0.056657	0.836421	-1.512397
1.850	9.440594	0.712381	580.292004	-8.930537	-4.770815	0.063205	0.822140	-1.538973
1.860	9.331852	0.466282	579.165158	-9.060973	-4.638857	0.068525	0.800956	-1.564489
1.870	9.146433	0.203211	577.421485	-9.177310	-4.462090	0.072237	0.772761	-1.589361
1.880	8.890331	-0.049653	575.225567	-9.283850	-4.243069	0.073663	0.737636	-1.613949
1.890	8.585338	-0.262991	572.805897	-9.386153	-3.987243	0.071954	0.696090	-1.638627
1.900	8.263867	-0.414890	570.432929	-9.491139	-3.703532	0.066261	0.649249	-1.663848
1.910	7.959265	-0.498910	568.386351	-9.606652	-3.404102	0.055815	0.598906	-1.690162
1.920	7.695633	-0.527348	566.919142	-9.740463	-3.103236	0.039959	0.547386	-1.718140
1.930	7.481512	-0.528139	566.224261	-9.898872	-2.815477	0.018239	0.497237	-1.748225
1.940	7.309458	-0.536254	566.407549	-10.085340	-2.553324	-0.009403	0.450793	-1.780580
1.950	7.160563	-0.582689	567.470378	-10.299609	-2.324987	-0.042430	0.409711	-1.815004
1.960	7.011558	-0.685002	569.306758	-10.537691	-2.132801	-0.079642	0.374631	-1.850969
1.970	6.842281	-0.842512	571.718481	-10.792658	-1.972917	-0.119314	0.345085	-1.887757
1.980	6.641857	-1.037358	574.446765	-11.055824	-1.836574	-0.159483	0.319712	-1.924604
1.990	6.412179	-1.240550	577.212852	-11.317809	-1.712705	-0.198244	0.296720	-1.960769
2.000	6.167499	-1.420567	579.757820	-11.569276	-1.591100	-0.233955	0.274442	-1.995536
2.010	5.929986	-1.551577	581.874617	-11.801538	-1.465122	-0.265297	0.251793	-2.028193
2.020	5.722669	-1.619107	583.429492	-12.007435	-1.333150	-0.291248	0.228502	-2.058078
2.030	5.562658	-1.622437	584.372064	-12.182548	-1.198487	-0.311018	0.205090	-2.084725
2.040	5.457532	-1.573960	584.732940	-12.326380	-1.068043	-0.324036	0.182655	-2.108036
2.050	5.406031	-1.495978	584.607875	-12.442823	-0.950416	-0.329993	0.162573	-2.128405
2.060	5.401740	-1.415446	584.129852	-12.539438	-0.853992	-0.328889	0.146199	-2.146687
2.070	5.437058	-1.357519	583.434479	-12.625529	-0.785414	-0.321002	0.134619	-2.164001
2.080	5.505362	-1.339195	582.627660	-12.709481	-0.748576	-0.306803	0.128483	-2.181407
2.090	5.601032	-1.364649	581.765693	-12.796154	-0.744113	-0.286922	0.127906	-2.199537
2.100	5.718487	-1.423802	580.855063	-12.885153	-0.769398	-0.262200	0.132460	-2.218308
2.110	5.851645	-1.495007	579.871747	-12.970640	-0.819002	-0.233800	0.141239	-2.236812
2.120	5.994518	-1.551397	578.790677	-13.042875	-0.885580	-0.203268	0.153005	-2.253470
2.130	6.142640	-1.568913	577.610745	-13.091006	-0.961036	-0.172479	0.166381	-2.266406
2.140	6.294437	-1.533192	576.363205	-13.106076	-1.037725	-0.143417	0.180047	-2.273927
2.150	6.451625	-1.442904	575.101069	-13.083239	-1.109323	-0.117806	0.192892	-2.274946
2.160	6.618056	-1.308698	573.878365	-13.022702	-1.171128	-0.096705	0.204073	-2.269244
2.170	6.797155	-1.148756	572.733194	-12.929433	-1.219761	-0.080170	0.212972	-2.257497
2.180	6.989075	-0.982953	571.684132	-12.811911	-1.252481	-0.067142	0.219086	-2.241082
2.190	7.189048	-0.827553	570.739569	-12.680247	-1.266404	-0.055670	0.221888	-2.221722
2.200	7.387687	-0.691685	569.911366	-12.544067	-1.257875	-0.043495	0.220714	-2.201056
2.210	7.572574	-0.576274	569.222400	-12.410540	-1.222128	-0.028878	0.214701	-2.180262
2.220	7.729811	-0.475508	568.701815	-12.282825	-1.153200	-0.011456	0.202778	-2.159801
2.230	7.844736	-0.380223	568.368762	-12.159195	-1.043947	0.007209	0.183674	-2.139315
2.240	7.901997	-0.281739	568.211725	-12.033048	-0.886106	0.023658	0.155946	-2.117705
2.250	7.885745	-0.174339	568.174488	-11.894121	-0.670579	0.033254	0.118023	-2.093392
2.260	7.780702	-0.055108	568.159949	-11.731106	-0.388258	0.031410	0.068336	-2.064754
2.270	7.574752	0.078647	568.057725	-11.535409	-0.031561	0.014962	0.005556	-2.030676
2.280	7.263359	0.232378	567.790772	-11.305144	0.403534	-0.016739	-0.071071	-1.991076
2.290	6.854843	0.414974	567.364611	-11.047893	0.915485	-0.061320	-0.161357	-1.947230
2.300	6.373737	0.635620	566.896692	-10.780940	1.495824	-0.113672	-0.263862	-1.901747
2.310	5.858442	0.897752	566.607587	-10.528421	2.129069	-0.167043	-0.375757	-1.858150
2.320	5.351005	1.193113	566.770086	-10.315940	2.794381	-0.214762	-0.493036	-1.820128
2.330	4.881041	1.499372	567.631329	-10.164241	3.468876	-0.252094	-0.611114	-1.790641
