Time[s]	Fx[N]	Fy[N]	Fz[N]	Mx[Nm]	My[Nm]	Mz[Nm]	COPx[cm]	COPy[cm]
0.010	0.907829	-10.436809	573.177328	-3.825909	4.720145	-0.087156	-0.823505	-0.667491
0.020	0.789097	-10.986105	561.379841	-3.787134	4.404791	-0.023355	-0.784637	-0.674612
0.030	0.626255	-11.483544	550.219041	-3.756589	4.132416	0.039270	-0.751049	-0.682744
0.040	0.385472	-11.888913	540.297984	-3.741568	3.935407	0.098741	-0.728377	-0.692501
0.050	0.050544	-12.185488	532.206666	-3.750399	3.827649	0.152314	-0.719203	-0.704689
0.060	-0.370893	-12.382999	526.487625	-3.792694	3.801479	0.196936	-0.722045	-0.720377
0.070	-0.844154	-12.512977	523.582949	-3.879033	3.829753	0.230051	-0.731451	-0.740863
0.080	-1.309071	-12.618218	523.771308	-4.019815	3.872347	0.250438	-0.739320	-0.767475
0.090	-1.688102	-12.740009	527.107416	-4.223146	3.885314	0.258816	-0.737101	-0.801193
0.100	-1.901549	-12.907315	533.379838	-4.492032	3.830249	0.257984	-0.718109	-0.842183
0.110	-1.887423	-13.130857	542.103382	-4.821540	3.681443	0.252313	-0.679104	-0.889413
0.120	-1.619816	-13.402939	552.555066	-5.196837	3.429181	0.246589	-0.620604	-0.940510
0.130	-1.117920	-13.701716	563.849050	-5.592985	3.078746	0.244509	-0.546023	-0.991930
0.140	-0.440667	-13.997107	575.033472	-5.977078	2.646104	0.247371	-0.460165	-1.039431
0.150	0.331557	-14.255653	585.187611	-6.312636	2.152280	0.253609	-0.367793	-1.078737
0.160	1.120164	-14.443426	593.502558	-6.565476	1.618559	0.259497	-0.272713	-1.106225
0.170	1.866329	-14.528303	599.339079	-6.709700	1.063840	0.260807	-0.177502	-1.119517
0.180	2.536859	-14.483654	602.266345	-6.732297	0.504228	0.254641	-0.083722	-1.117827
0.190	3.118439	-14.294076	602.088173	-6.635002	-0.046107	0.240566	0.007658	-1.101998
0.200	3.607250	-13.961444	598.858309	-6.432872	-0.574091	0.220505	0.095864	-1.074189
0.210	4.002262	-13.508331	592.878701	-6.150208	-1.067692	0.197619	0.180086	-1.037347
0.220	4.305675	-12.976604	584.672013	-5.815504	-1.516443	0.174929	0.259367	-0.994661
0.230	4.526902	-12.421093	574.924956	-5.457161	-1.911614	0.154485	0.332498	-0.949195
0.240	4.683187	-11.900035	564.409538	-5.100823	-2.245348	0.137358	0.397823	-0.903745
0.250	4.793074	-11.464710	553.898255	-4.768152	-2.509031	0.124117	0.452977	-0.860835
0.260	4.865533	-11.150640	544.091245	-4.476242	-2.691987	0.115212	0.494768	-0.822701
0.270	4.891676	-10.972429	535.568730	-4.237021	-2.781802	0.110886	0.519411	-0.791125
0.280	4.844547	-10.923666	528.774725	-4.056464	-2.766803	0.110703	0.523248	-0.767144
0.290	4.687727	-10.981847	524.029727	-3.934059	-2.640161	0.113092	0.503819	-0.750732
0.300	4.389549	-11.116355	521.561295	-3.863162	-2.404252	0.115392	0.460972	-0.740692
0.310	3.938559	-11.296087	521.534372	-3.832654	-2.073775	0.114546	0.397630	-0.734880
0.320	3.356278	-11.493554	524.061810	-3.829641	-1.676551	0.108216	0.319915	-0.730761
0.330	2.703434	-11.684479	529.181839	-3.842331	-1.251517	0.095772	0.236500	-0.726089
0.340	2.075741	-11.844784	536.801909	-3.861960	-0.843910	0.078726	0.157211	-0.719439
0.350	1.586604	-11.948615	546.624718	-3.883029	-0.498165	0.060367	0.091135	-0.710365
0.360	1.338258	-11.970448	558.087077	-3.901844	-0.249806	0.044698	0.044761	-0.699146
0.370	1.389121	-11.891689	570.347703	-3.914261	-0.118500	0.035028	0.020777	-0.686294
0.380	1.730060	-11.708809	582.349148	-3.913967	-0.104673	0.032828	0.017974	-0.672100
0.390	2.281666	-11.438024	592.953283	-3.892426	-0.191275	0.037388	0.032258	-0.656447
0.400	2.916896	-11.112705	601.119997	-3.840755	-0.350440	0.046466	0.058298	-0.638933
0.410	3.502011	-10.773767	606.079762	-3.752734	-0.552749	0.057579	0.091201	-0.619181
0.420	3.939743	-10.457680	607.451509	-3.627576	-0.775628	0.069258	0.127686	-0.597179
0.430	4.197304	-10.188197	605.276525	-3.471249	-1.007792	0.081649	0.166501	-0.573498
0.440	4.308907	-9.975246	599.966831	-3.295843	-1.248303	0.096233	0.208062	-0.549338
0.450	4.353738	-9.819780	592.190704	-3.117224	-1.501045	0.114806	0.253473	-0.526388
0.460	4.419777	-9.720088	582.731968	-2.951711	-1.767052	0.138180	0.303236	-0.506530
0.470	4.567696	-9.675264	572.362137	-2.812821	-2.037772	0.165123	0.356029	-0.491441
0.480	4.807347	-9.684440	561.756348	-2.708934	-2.291837	0.191960	0.407977	-0.482226
0.490	5.094076	-9.743420	551.466779	-2.642428	-2.496723	0.213014	0.452742	-0.479164
0.500	5.345042	-9.841419	541.946264	-2.610374	-2.615001	0.221843	0.482520	-0.481667
0.510	5.468503	-9.959866	533.597985	-2.606576	-2.613221	0.213028	0.489736	-0.488491
0.520	5.394454	-10.074141	526.820150	-2.624362	-2.470393	0.183978	0.468925	-0.498151
0.530	5.095259	-10.158262	522.018676	-2.659277	-2.183125	0.136093	0.418208	-0.509422
0.540	4.590123	-10.191647	519.574690	-2.710786	-1.765733	0.074701	0.339842	-0.521732
0.550	3.934367	-10.165868	519.773003	-2.782453	-1.245536	0.007673	0.239631	-0.535321
0.560	3.200220	-10.088569	522.715546	-2.880762	-0.655242	-0.056802	0.125353	-0.551115
0.570	2.457677	-9.982190	528.251915	-3.013224	-0.025023	-0.112432	0.004737	-0.570414
0.580	1.761621	-9.877254	535.954120	-3.186471	0.623485	-0.156164	-0.116332	-0.594542
0.590	1.146593	-9.802650	545.147911	-3.404639	1.279992	-0.188260	-0.234797	-0.624535
0.600	0.626810	-9.777020	554.995785	-3.668132	1.944911	-0.211295	-0.350437	-0.660930
0.610	0.198540	-9.804856	564.613830	-3.972865	2.625697	-0.228682	-0.465043	-0.703643
0.620	-0.156061	-9.878499	573.199182	-4.310103	3.331096	-0.243355	-0.581141	-0.751938
0.630	-0.462775	-9.984423	580.145662	-4.666977	4.064530	-0.257005	-0.700605	-0.804449
0.640	-0.746248	-10.110403	585.128104	-5.027676	4.818084	-0.269861	-0.823424	-0.859244
0.650	-1.019500	-10.250172	588.138787	-5.375269	5.568619	-0.280848	-0.946821	-0.913946
0.660	-1.275531	-10.403446	589.463941	-5.693915	6.277440	-0.287939	-1.064940	-0.965948
0.670	-1.484821	-10.571310	589.597622	-5.970950	6.894401	-0.288677	-1.169340	-1.012716
0.680	-1.600731	-10.749257	589.105516	-6.198152	7.366157	-0.280912	-1.250397	-1.052129
0.690	-1.571991	-10.921767	588.469575	-6.371828	7.646804	-0.263636	-1.299439	-1.082780
0.700	-1.358745	-11.062029	587.957720	-6.491952	7.708088	-0.237577	-1.310994	-1.104153
0.710	-0.946861	-11.138101	587.561136	-6.561000	7.546228	-0.205228	-1.284331	-1.116650
0.720	-0.355069	-11.123506	587.020326	-6.582967	7.183460	-0.170243	-1.223716	-1.121421
0.730	0.367834	-11.007839	585.927393	-6.562631	6.664147	-0.136528	-1.137367	-1.120042
0.740	1.153719	-10.802607	583.863120	-6.505054	6.047033	-0.107391	-1.035694	-1.114140
0.750	1.927901	-10.539744	580.519713	-6.415456	5.396176	-0.085040	-0.929542	-1.105123
0.760	2.618473	-10.263552	575.776588	-6.299621	4.772791	-0.070493	-0.828931	-1.094109
0.770	3.161225	-10.019314	569.724203	-6.164780	4.229149	-0.063766	-0.742315	-1.082064
0.780	3.503821	-9.842519	562.650260	-6.020518	3.804589	-0.064165	-0.676191	-1.070028
0.790	3.613279	-9.751853	555.004653	-5.879230	3.523265	-0.070523	-0.634817	-1.059312
0.800	3.486055	-9.747402	547.351028	-5.755828	3.393427	-0.081338	-0.619973	-1.051579
0.810	3.154536	-9.813571	540.306202	-5.666699	3.408481	-0.094893	-0.630843	-1.048794
0.820	2.682906	-9.924959	534.469790	-5.628038	3.550153	-0.109440	-0.664238	-1.053013
0.830	2.150775	-10.053293	530.351778	-5.653689	3.793577	-0.123495	-0.715294	-1.066026
0.840	1.630376	-10.174033	528.309549	-5.752819	4.113266	-0.136194	-0.778571	-1.088911
0.850	1.166809	-10.271653	528.505000	-5.928029	4.488416	-0.147541	-0.849266	-1.121660
0.860	0.768955	-10.342763	530.888176	-6.174612	4.906092	-0.158358	-0.924129	-1.163072
0.870	0.413473	-10.396396	535.208964	-6.481398	5.361576	-0.169871	-1.001772	-1.211003
0.880	0.058924	-10.451165	541.053866	-6.832931	5.855980	-0.183183	-1.082328	-1.262893
0.890	-0.335997	-10.529463	547.900928	-7.212270	6.392124	-0.198974	-1.166657	-1.316346
0.900	-0.796370	-10.649569	555.183168	-7.603550	6.970143	-0.217611	-1.255467	-1.369557
0.910	-1.321372	-10.817506	562.350768	-7.993777	7.584230	-0.239476	-1.348665	-1.421493
0.920	-1.882500	-11.021595	568.924947	-8.373741	8.221254	-0.265117	-1.445051	-1.471853
0.930	-2.428758	-11.232683	574.539345	-8.738278	8.861174	-0.294994	-1.542309	-1.520919
0.940	-2.896508	-11.411438	578.965433	-9.086304	9.478673	-0.328945	-1.637174	-1.569403
0.950	-3.221301	-11.521129	582.118036	-9.420975	10.045591	-0.365677	-1.725697	-1.618396
0.960	-3.349334	-11.541476	584.038122	-9.749804	10.534090	-0.402501	-1.803665	-1.669378
0.970	-3.247140	-11.478210	584.854409	-10.084020	10.920634	-0.435357	-1.867240	-1.724193
0.980	-2.909296	-11.364523	584.731735	-10.436419	11.190461	-0.459158	-1.913777	-1.784822
0.990	-2.364237	-11.253779	583.819832	-10.817680	11.341539	-0.468623	-1.942644	-1.852914
1.000	-1.676822	-11.205972	582.218191	-11.232288	11.386562	-0.459639	-1.955721	-1.929223
1.010	-0.944371	-11.272180	579.969411	-11.675880	11.351779	-0.430887	-1.957307	-2.013189
1.020	-0.283001	-11.481451	577.084139	-12.135567	11.272462	-0.384988	-1.953348	-2.102911
1.030	0.195087	-11.833427	573.587602	-12.593443	11.186172	-0.328415	-1.950212	-2.195557
1.040	0.406926	-12.298397	569.567352	-13.031890	11.125931	-0.269960	-1.953400	-2.288033
1.050	0.316981	-12.824642	565.200509	-13.438358	11.115463	-0.218345	-1.966641	-2.377627
1.060	-0.059089	-13.351196	560.747796	-13.807710	11.167704	-0.180098	-1.991573	-2.462374
1.070	-0.665660	-13.822588	556.516600	-14.141709	11.286421	-0.158509	-2.028047	-2.541112
1.080	-1.427369	-14.201504	552.808984	-14.446660	11.469542	-0.153751	-2.074775	-2.613319
1.090	-2.269663	-14.475921	549.876280	-14.730820	11.712372	-0.163666	-2.130001	-2.678933
1.100	-3.132769	-14.658875	547.896644	-15.002711	12.009222	-0.184700	-2.191877	-2.738237
1.110	-3.976312	-14.781142	546.979056	-15.270603	12.352909	-0.212749	-2.258388	-2.791808
1.120	-4.775847	-14.879059	547.184623	-15.542654	12.732602	-0.243878	-2.326930	-2.840477
1.130	-5.514682	-14.981122	548.549790	-15.827006	13.131179	-0.274742	-2.393799	-2.885245
1.140	-6.174530	-15.097579	551.097122	-16.131285	13.523441	-0.302573	-2.453912	-2.927122
1.150	-6.728035	-15.216849	554.825361	-16.461370	13.876140	-0.324850	-2.500992	-2.966946
1.160	-7.135884	-15.310691	559.679650	-16.819652	14.150197	-0.339086	-2.528267	-3.005228
1.170	-7.350426	-15.346784	565.512717	-17.203290	14.304869	-0.343146	-2.529540	-3.042069
1.180	-7.325329	-15.303856	572.054416	-17.603297	14.302987	-0.336088	-2.500284	-3.077207
1.190	-7.027421	-15.182870	578.906882	-18.005247	14.115864	-0.318938	-2.438365	-3.110215
1.200	-6.445066	-15.009152	585.574074	-18.391930	13.726512	-0.294599	-2.344112	-3.140837
1.210	-5.589034	-14.824437	591.520625	-18.747277	13.130587	-0.266549	-2.219802	-3.169336
1.220	-4.486430	-14.672486	596.241940	-19.060053	12.335662	-0.236816	-2.068902	-3.196698
1.230	-3.172782	-14.584962	599.323011	-19.325596	11.360105	-0.204343	-1.895490	-3.224571
1.240	-1.688832	-14.573853	600.470592	-19.544744	10.232634	-0.164879	-1.704102	-3.254904
1.250	-0.085583	-14.633296	599.518355	-19.720472	8.992585	-0.112794	-1.499968	-3.289386
1.260	1.565102	-14.748769	596.418571	-19.854028	7.689799	-0.044164	-1.289329	-3.328875
1.270	3.162884	-14.907855	591.238780	-19.942656	6.382425	0.040363	-1.079500	-3.373029
1.280	4.583895	-15.106244	584.174761	-19.980121	5.131419	0.134430	-0.878405	-3.420230
1.290	5.702335	-15.345884	575.575175	-19.959686	3.992004	0.227281	-0.693568	-3.467781
1.300	6.423604	-15.627238	565.957879	-19.878089	3.004278	0.307105	-0.530831	-3.512291
1.310	6.716313	-15.941163	555.993220	-19.738723	2.186413	0.365029	-0.393245	-3.550173
1.320	6.628644	-16.265816	546.439747	-19.552729	1.533555	0.398054	-0.280645	-3.578204
1.330	6.279474	-16.570717	538.038357	-19.337609	1.023490	0.409645	-0.190226	-3.594095
1.340	5.824597	-16.825987	531.392159	-19.113893	0.627378	0.407784	-0.118063	-3.596947
1.350	5.409401	-17.011986	526.870583	-18.901039	0.321611	0.401465	-0.061042	-3.587416
1.360	5.125942	-17.124475	524.570789	-18.713882	0.096351	0.397258	-0.018368	-3.567465
1.370	4.990767	-17.172898	524.348227	-18.560413	-0.042282	0.397286	0.008064	-3.539711
1.380	4.950525	-17.173115	525.901429	-18.441082	-0.076707	0.399142	0.014586	-3.506566
1.390	4.910635	-17.138678	528.876918	-18.349362	0.013136	0.397361	-0.002484	-3.469496
1.400	4.773835	-17.075130	532.956691	-18.273330	0.240015	0.385566	-0.045035	-3.428671
1.410	4.473899	-16.979773	537.902330	-18.198053	0.602345	0.358454	-0.111980	-3.383152
1.420	3.994594	-16.846228	543.549627	-18.108458	1.081899	0.313208	-0.199043	-3.331519
1.430	3.371418	-16.670684	549.766628	-17.992106	1.646497	0.250308	-0.299490	-3.272681
1.440	2.679611	-16.456208	556.398968	-17.841191	2.256254	0.173823	-0.405510	-3.206546
1.450	2.014101	-16.212925	563.226270	-17.653385	2.871124	0.091029	-0.509764	-3.134333
1.460	1.466779	-15.954165	569.944802	-17.431624	3.457366	0.011179	-0.606614	-3.058476
1.470	1.105662	-15.690896	576.180347	-17.183184	3.991393	-0.056414	-0.692733	-2.982258
1.480	0.960235	-15.427744	581.526554	-16.918289	4.460725	-0.104408	-0.767072	-2.909289
1.490	1.016513	-15.163187	585.599480	-16.648410	4.862740	-0.128894	-0.830387	-2.842969
1.500	1.223294	-14.893942	588.096538	-16.384434	5.202195	-0.129969	-0.884582	-2.786011
1.510	1.507574	-14.620924	588.846214	-16.135010	5.488309	-0.111418	-0.932045	-2.740106
1.520	1.793871	-14.353176	587.835998	-15.905432	5.732053	-0.079669	-0.975111	-2.705760
1.530	2.021128	-14.107556	585.212283	-15.697293	5.944177	-0.042265	-1.015730	-2.682325
1.540	2.152557	-13.904341	581.255704	-15.508873	6.134255	-0.006330	-1.055345	-2.668167
1.550	2.176945	-13.760877	576.343172	-15.336091	6.310456	0.022478	-1.094913	-2.660930
1.560	2.102985	-13.686060	570.909286	-15.173708	6.479411	0.040221	-1.134928	-2.657814
1.570	1.950274	-13.677755	565.414704	-15.016561	6.645559	0.044310	-1.175342	-2.655849
1.580	1.741279	-13.723387	560.321188	-14.860789	6.809808	0.033006	-1.215340	-2.652191
1.590	1.497511	-13.802470	556.067405	-14.705019	6.967921	0.005347	-1.253071	-2.644467
1.600	1.240616	-13.889670	553.038990	-14.551181	7.109507	-0.038281	-1.285535	-2.631131
1.610	0.996380	-13.958027	551.530621	-14.404429	7.218486	-0.095241	-1.308810	-2.611719
1.620	0.798002	-13.982566	551.704445	-14.271806	7.275486	-0.160061	-1.318729	-2.586857
1.630	0.684997	-13.944296	553.555062	-14.159892	7.261792	-0.224742	-1.311846	-2.557992
1.640	0.695946	-13.833867	556.893162	-14.072121	7.163708	-0.280167	-1.286370	-2.526898
1.650	0.856571	-13.653839	561.356796	-14.006712	6.975881	-0.318277	-1.242682	-2.495153
1.660	1.167951	-13.418733	566.452904	-13.956134	6.702341	-0.334274	-1.183212	-2.463777
1.670	1.601163	-13.152636	571.624280	-13.908634	6.354720	-0.327991	-1.111695	-2.433178
1.680	2.102858	-12.884590	576.329871	-13.851647	5.948071	-0.303819	-1.032060	-2.403423
1.690	2.611573	-12.642632	580.120919	-13.775865	5.495741	-0.269131	-0.947344	-2.374654
1.700	3.078938	-12.448082	582.694809	-13.678230	5.005261	-0.231768	-0.858985	-2.347409
1.710	3.486700	-12.311991	583.914024	-13.562547	4.477019	-0.197546	-0.766726	-2.322696
1.720	3.851794	-12.234959	583.787621	-13.437573	3.906581	-0.168701	-0.669179	-2.301791
1.730	4.216918	-12.210098	582.423772	-13.313586	3.290047	-0.143807	-0.564889	-2.285893
1.740	4.630300	-12.227753	579.971206	-13.198773	2.630477	-0.119064	-0.453553	-2.275763
1.750	5.122654	-12.280125	576.571350	-13.096453	1.942831	-0.090349	-0.336963	-2.271437
1.760	5.690377	-12.363943	572.337974	-13.003675	1.255395	-0.055151	-0.219345	-2.272027
1.770	6.291511	-12.479960	567.368334	-12.911583	0.606993	-0.013717	-0.106984	-2.275697
1.780	6.855716	-12.629443	561.776292	-12.807692	0.040902	0.030932	-0.007281	-2.279856
1.790	7.303886	-12.809650	555.730768	-12.679665	-0.402527	0.074022	0.072432	-2.281620
1.800	7.569668	-13.011220	549.483897	-12.519488	-0.692349	0.110671	0.126000	-2.278409
1.810	7.615706	-13.219407	543.379248	-12.326617	-0.811225	0.137508	0.149293	-2.268511
1.820	7.440961	-13.418539	537.837109	-12.108916	-0.756892	0.153671	0.140729	-2.251409
1.830	7.079269	-13.596836	533.317928	-11.881002	-0.541105	0.160826	0.101460	-2.227752
1.840	6.590935	-13.748541	530.266762	-11.660567	-0.186435	0.162220	0.035159	-2.199000
1.850	6.048891	-13.872385	529.044624	-11.463970	0.278633	0.161114	-0.052667	-2.166919
1.860	5.520830	-13.968175	529.858930	-11.302413	0.825505	0.159167	-0.155797	-2.133099
1.870	5.050794	-14.034500	532.711661	-11.179542	1.431003	0.155474	-0.268626	-2.098610
1.880	4.646707	-14.069243	537.383856	-11.090780	2.081030	0.146753	-0.387252	-2.063847
1.890	4.280783	-14.072201	543.465349	-11.024478	2.771002	0.128799	-0.509876	-2.028552
1.900	3.904922	-14.047522	550.422596	-10.964715	3.502593	0.098608	-0.636346	-1.992054
1.910	3.475343	-14.004120	557.683846	-10.895223	4.277893	0.056153	-0.767082	-1.953656
1.920	2.974944	-13.953906	564.717414	-10.803290	5.093381	0.004874	-0.901934	-1.913043
1.930	2.422622	-13.908931	571.085869	-10.682295	5.936278	-0.049358	-1.039472	-1.870523
1.940	1.865929	-13.878676	576.471023	-10.531882	6.784643	-0.100240	-1.176927	-1.826958
1.950	1.362396	-13.868025	580.674893	-10.355793	7.610827	-0.142954	-1.310686	-1.783406
1.960	0.959857	-13.875986	583.606337	-10.158448	8.386625	-0.175196	-1.437035	-1.740634
1.970	0.684398	-13.895289	585.261671	-9.941891	9.088239	-0.197102	-1.552851	-1.698709
1.980	0.538453	-13.913074	585.703357	-9.704373	9.699799	-0.210457	-1.656094	-1.656875
1.990	0.505861	-13.912659	585.038119	-9.440884	10.215135	-0.217765	-1.746063	-1.613721
2.000	0.558596	-13.876001	583.396776	-9.145136	10.637978	-0.221620	-1.823455	-1.567567
2.010	0.661627	-13.786583	580.920405	-8.812108	10.980779	-0.224454	-1.890238	-1.516922
2.020	0.775766	-13.632577	577.757046	-8.440385	11.262276	-0.228533	-1.949310	-1.460888
2.030	0.860675	-13.409903	574.068879	-8.033724	11.504095	-0.235970	-2.003957	-1.399436
2.040	0.879919	-13.124275	570.044486	-7.601399	11.727032	-0.248587	-2.057213	-1.333475
2.050	0.807483	-12.791415	565.907938	-7.157014	11.947850	-0.267558	-2.111271	-1.264696
2.060	0.633107	-12.435413	561.917582	-6.716009	12.177333	-0.292904	-2.167103	-1.195195
2.070	0.363760	-12.086027	558.351982	-6.292726	12.419830	-0.323013	-2.224373	-1.127018
2.080	0.020589	-11.775645	555.485825	-5.898202	12.673947	-0.354501	-2.281597	-1.061810
2.090	-0.366969	-11.535942	553.561431	-5.539415	12.933611	-0.382672	-2.336436	-1.000687
2.100	-0.767036	-11.393681	552.761089	-5.219876	13.188802	-0.402638	-2.385986	-0.944328
2.110	-1.148910	-11.365595	553.184372	-4.940815	13.425653	-0.410783	-2.426976	-0.893159
2.120	-1.483882	-11.453458	554.834614	-4.702232	13.626236	-0.405956	-2.455909	-0.847502
2.130	-1.744222	-11.641510	557.617807	-4.503560	13.768715	-0.389808	-2.469203	-0.807643
2.140	-1.901743	-11.898275	561.353222	-4.344103	13.828415	-0.366087	-2.463407	-0.773863
2.150	-1.926974	-12.183203	565.790032	-4.223471	13.779847	-0.339206	-2.435505	-0.746473
2.160	-1.789226	-12.456343	570.622918	-4.141894	13.599374	-0.312729	-2.383251	-0.725855
2.170	-1.457955	-12.687946	575.503712	-4.100107	13.268173	-0.288304	-2.305489	-0.712438
2.180	-0.906640	-12.865171	580.051539	-4.098625	12.775427	-0.265337	-2.202464	-0.706597
2.190	-0.120785	-12.994179	583.866615	-4.136479	12.121808	-0.241407	-2.076126	-0.708463
2.200	0.890150	-13.097094	586.552482	-4.209690	11.322771	-0.213327	-1.930394	-0.717700
2.210	2.081022	-13.204402	587.749547	-4.309814	10.410347	-0.178663	-1.771222	-0.733274
2.220	3.366869	-13.344584	587.178687	-4.423049	9.431779	-0.137331	-1.606288	-0.753271
2.230	4.632480	-13.533850	584.687613	-4.530447	8.444345	-0.092635	-1.444249	-0.774849
2.240	5.755251	-13.769223	580.287657	-4.609681	7.507438	-0.051114	-1.293744	-0.794379
2.250	6.633221	-14.027360	574.169016	-4.638354	6.674351	-0.021035	-1.162437	-0.807838
2.260	7.206926	-14.269701	566.688968	-4.598221	5.986251	-0.010016	-1.056356	-0.811419
2.270	7.467134	-14.452439	558.336505	-4.479200	5.469704	-0.022729	-0.979643	-0.802240
2.280	7.447519	-14.538600	549.683210	-4.281952	5.137599	-0.059579	-0.934647	-0.778985
2.290	7.207232	-14.509373	541.331308	-4.018015	4.992268	-0.116732	-0.922220	-0.742247
2.300	6.810468	-14.372077	533.866007	-3.707122	5.029368	-0.187364	-0.942066	-0.694392
