Time[s]	Fx[N]	Fy[N]	Fz[N]	Mx[Nm]	My[Nm]	Mz[Nm]	COPx[cm]	COPy[cm]
0.010	-5.015577	-0.801589	668.912378	-0.024071	30.073778	-1.379030	-4.495922	-0.003599
0.020	-4.884519	-0.725853	669.399790	-0.037482	30.061097	-1.407725	-4.490754	-0.005599
0.030	-4.752891	-0.657644	669.789822	-0.047648	30.042771	-1.434109	-4.485403	-0.007114
0.040	-4.621833	-0.602900	670.015928	-0.053013	30.014211	-1.456668	-4.479626	-0.007912
0.050	-4.494145	-0.564181	670.057366	-0.054216	29.972995	-1.475361	-4.473198	-0.008091
0.060	-4.373645	-0.541034	669.940941	-0.053836	29.919205	-1.491394	-4.465947	-0.008036
0.070	-4.263955	-0.531312	669.728203	-0.055232	29.855299	-1.506451	-4.457823	-0.008247
0.080	-4.167645	-0.532567	669.494431	-0.060979	29.785702	-1.521842	-4.448984	-0.009108
0.090	-4.086250	-0.542850	669.307362	-0.071523	29.716247	-1.537932	-4.439851	-0.010686
0.100	-4.020726	-0.560589	669.211689	-0.084632	29.653389	-1.554045	-4.431093	-0.012647
0.110	-3.971376	-0.583736	669.221803	-0.095910	29.603148	-1.568809	-4.423518	-0.014332
0.120	-3.936732	-0.608792	669.322489	-0.100255	29.569940	-1.580777	-4.417891	-0.014979
0.130	-3.912168	-0.630517	669.476507	-0.093837	29.555704	-1.589060	-4.414749	-0.014017
0.140	-3.889805	-0.642814	669.637938	-0.075957	29.559721	-1.593650	-4.414284	-0.011343
0.150	-3.860664	-0.640678	669.768587	-0.050006	29.579147	-1.595240	-4.416323	-0.007466
0.160	-3.818269	-0.622522	669.852019	-0.022923	29.609987	-1.594629	-4.420377	-0.003422
0.170	-3.761688	-0.591713	669.899105	-0.003036	29.648144	-1.592118	-4.425763	-0.000453
0.180	-3.696237	-0.556220	669.942213	0.003002	29.690374	-1.587338	-4.431781	0.000448
0.190	-3.631560	-0.526014	670.020239	-0.007118	29.734956	-1.579661	-4.437919	-0.001062
0.200	-3.578286	-0.509178	670.160387	-0.030321	29.781831	-1.568921	-4.443986	-0.004524
0.210	-3.545003	-0.508483	670.363724	-0.059236	29.832006	-1.555929	-4.450122	-0.008836
0.220	-3.536682	-0.519973	670.600167	-0.084889	29.886419	-1.542448	-4.456667	-0.012659
0.230	-3.554676	-0.534096	670.814969	-0.099841	29.944812	-1.530618	-4.463945	-0.014884
0.240	-3.597711	-0.538967	670.944415	-0.100532	30.005273	-1.522186	-4.472095	-0.014984
0.250	-3.663045	-0.524643	670.935039	-0.088023	30.064659	-1.517925	-4.481009	-0.013119
0.260	-3.747041	-0.486826	670.759377	-0.067062	30.119608	-1.517495	-4.490374	-0.009998
0.270	-3.844880	-0.428484	670.422502	-0.044014	30.167483	-1.519739	-4.499772	-0.006565
0.280	-3.949971	-0.358877	669.957896	-0.024634	30.206758	-1.523206	-4.508755	-0.003677
0.290	-4.054032	-0.290688	669.416696	-0.012579	30.236870	-1.526608	-4.516898	-0.001879
0.300	-4.148339	-0.236633	668.856969	-0.009157	30.258001	-1.529057	-4.523837	-0.001369
0.310	-4.225676	-0.206598	668.337580	-0.014146	30.271243	-1.530145	-4.529334	-0.002117
0.320	-4.281994	-0.205698	667.916398	-0.027089	30.279094	-1.529999	-4.533366	-0.004056
0.330	-4.317102	-0.233180	667.648942	-0.048251	30.285697	-1.529299	-4.536171	-0.007227
0.340	-4.334302	-0.282279	667.583339	-0.078717	30.296332	-1.529125	-4.538210	-0.011791
0.350	-4.339171	-0.341404	667.750271	-0.119603	30.316145	-1.530569	-4.540042	-0.017911
0.360	-4.337704	-0.396882	668.150395	-0.170933	30.348681	-1.534211	-4.542193	-0.025583
0.370	-4.334247	-0.436621	668.744827	-0.230961	30.394781	-1.539725	-4.545049	-0.034537
0.380	-4.329971	-0.453397	669.454809	-0.296467	30.452186	-1.545784	-4.548804	-0.044285
0.390	-4.322811	-0.446700	670.173579	-0.363867	30.515988	-1.550379	-4.553445	-0.054294
0.400	-4.309260	-0.422910	670.787948	-0.430395	30.579860	-1.551436	-4.558797	-0.064163
0.410	-4.287492	-0.394135	671.202578	-0.494668	30.637795	-1.547480	-4.564612	-0.073699
0.420	-4.260249	-0.375879	671.359421	-0.556474	30.685783	-1.538031	-4.570694	-0.082888
0.430	-4.235662	-0.383492	671.247939	-0.616210	30.722817	-1.523581	-4.576970	-0.091801
0.440	-4.224997	-0.427754	670.905527	-0.674454	30.750865	-1.505237	-4.583487	-0.100529
0.450	-4.238036	-0.510977	670.409030	-0.731892	30.773978	-1.484268	-4.590329	-0.109171
0.460	-4.278278	-0.625387	669.858529	-0.789462	30.797062	-1.461790	-4.597547	-0.117855
0.470	-4.340504	-0.754722	669.356183	-0.848397	30.824828	-1.438726	-4.605146	-0.126748
0.480	-4.412205	-0.878483	668.985164	-0.909990	30.861142	-1.416004	-4.613128	-0.136025
0.490	-4.478495	-0.977327	668.794020	-0.975150	30.908789	-1.394775	-4.621571	-0.145807
0.500	-4.528545	-1.037883	668.789902	-1.044088	30.969469	-1.376404	-4.630672	-0.156116
0.510	-4.560732	-1.055700	668.941591	-1.116509	31.043880	-1.362138	-4.640746	-0.166907
0.520	-4.584143	-1.035777	669.190857	-1.192422	31.131742	-1.352585	-4.652147	-0.178189
0.530	-4.615569	-0.991095	669.468187	-1.273184	31.231735	-1.347305	-4.665156	-0.190178
0.540	-4.673194	-0.940169	669.707834	-1.362009	31.341467	-1.344731	-4.679872	-0.203374
0.550	-4.769750	-0.904368	669.858668	-1.463393	31.457618	-1.342468	-4.696157	-0.218463
0.560	-4.908041	-0.905072	669.890246	-1.581545	31.576381	-1.337820	-4.713665	-0.236090
0.570	-5.080452	-0.960440	669.795326	-1.718476	31.694180	-1.328424	-4.731920	-0.256567
0.580	-5.272097	-1.081831	669.589813	-1.872621	31.808491	-1.312875	-4.750444	-0.279667
0.590	-5.465811	-1.270521	669.309756	-2.038705	31.918492	-1.291221	-4.768867	-0.304598
0.600	-5.646831	-1.515982	669.004470	-2.209020	32.025268	-1.265109	-4.787004	-0.330195
0.610	-5.805459	-1.796969	668.726306	-2.375519	32.131327	-1.237447	-4.804855	-0.355230
0.620	-5.937084	-2.085787	668.519773	-2.531660	32.239510	-1.211659	-4.822522	-0.378696
0.630	-6.040279	-2.354620	668.413176	-2.673271	32.351671	-1.190877	-4.840071	-0.399943
0.640	-6.114608	-2.581666	668.414522	-2.798322	32.467686	-1.177393	-4.857418	-0.418651
0.650	-6.159758	-2.754780	668.511555	-2.906055	32.585156	-1.172487	-4.874285	-0.434705
0.660	-6.176615	-2.871554	668.674870	-2.996054	32.699790	-1.176495	-4.890238	-0.448058
0.670	-6.169505	-2.936596	668.863273	-3.067690	32.806279	-1.188962	-4.904781	-0.458642
0.680	-6.147954	-2.957930	669.031278	-3.120145	32.899410	-1.208806	-4.917470	-0.466368
0.690	-6.126553	-2.944280	669.138604	-3.152982	32.975199	-1.234486	-4.928007	-0.471200
0.700	-6.122523	-2.903921	669.160068	-3.166968	33.031782	-1.264175	-4.936305	-0.473275
0.710	-6.151702	-2.844736	669.093004	-3.164689	33.069734	-1.295921	-4.942472	-0.472982
0.720	-6.224248	-2.774725	668.959356	-3.150490	33.091543	-1.327731	-4.946719	-0.470954
0.730	-6.341424	-2.702253	668.800987	-3.129607	33.100245	-1.357622	-4.949192	-0.467943
0.740	-6.494567	-2.635611	668.668332	-3.106732	33.097697	-1.383726	-4.949793	-0.464615
0.750	-6.666799	-2.581911	668.604689	-3.084489	33.083217	-1.404567	-4.948098	-0.461332
0.760	-6.837020	-2.545666	668.631066	-3.062400	33.053343	-1.419461	-4.943435	-0.458010
0.770	-6.984533	-2.527604	668.737870	-3.036798	33.002876	-1.428842	-4.935099	-0.454109
0.780	-7.092236	-2.524127	668.887981	-3.001812	32.926769	-1.434312	-4.922613	-0.448777
0.790	-7.147285	-2.527664	669.031089	-2.951105	32.821860	-1.438373	-4.905880	-0.441101
0.800	-7.139827	-2.527880	669.123878	-2.879687	32.687581	-1.443932	-4.885131	-0.430367
0.810	-7.061453	-2.513494	669.147260	-2.785197	32.525429	-1.453737	-4.860728	-0.416231
0.820	-6.904836	-2.474354	669.112691	-2.668243	32.337750	-1.469872	-4.832930	-0.398773
0.830	-6.665084	-2.403460	669.054707	-2.531781	32.126754	-1.493395	-4.801813	-0.378412
0.840	-6.342425	-2.298494	669.013645	-2.379860	31.894329	-1.524144	-4.767366	-0.355727
0.850	-5.945324	-2.162384	669.017053	-2.216306	31.642645	-1.560693	-4.729722	-0.331278
0.860	-5.492761	-2.002663	669.068282	-2.043920	31.374966	-1.600510	-4.689352	-0.305487
0.870	-5.014365	-1.829813	669.147123	-1.864437	31.096026	-1.640317	-4.647113	-0.278629
0.880	-4.547676	-1.655159	669.222091	-1.679027	30.811681	-1.676595	-4.604104	-0.250892
0.890	-4.132906	-1.488861	669.269049	-1.488795	30.527952	-1.706046	-4.561387	-0.222451
0.900	-3.806424	-1.338310	669.287351	-1.294878	30.249811	-1.725889	-4.519705	-0.193471
0.910	-3.594244	-1.206928	669.304583	-1.098183	29.980129	-1.734025	-4.479295	-0.164078
0.920	-3.506683	-1.093273	669.365893	-0.899165	29.719221	-1.729249	-4.439907	-0.134331
0.930	-3.535376	-0.990608	669.512046	-0.698026	29.465237	-1.711629	-4.401002	-0.104259
0.940	-3.653644	-0.887484	669.756848	-0.495372	29.215232	-1.682938	-4.362066	-0.073963
0.950	-3.820308	-0.769970	670.075371	-0.292973	28.966409	-1.646777	-4.322858	-0.043722
0.960	-3.986020	-0.625682	670.409221	-0.094093	28.717023	-1.608141	-4.283507	-0.014035
0.970	-4.100911	-0.448729	670.686302	0.096929	28.466800	-1.572445	-4.244428	0.014452
0.980	-4.122603	-0.243680	670.844690	0.275683	28.216906	-1.544347	-4.206176	0.041095
0.990	-4.023656	-0.026421	670.848806	0.438772	27.969599	-1.526804	-4.169285	0.065405
1.000	-3.796975	0.179078	670.692508	0.584424	27.727688	-1.520652	-4.134188	0.087137
1.010	-3.457407	0.347221	670.392510	0.712424	27.494047	-1.524705	-4.101186	0.106270
1.020	-3.038588	0.457923	669.979508	0.823485	27.271355	-1.536226	-4.070476	0.122912
1.030	-2.585839	0.501630	669.492167	0.918420	27.062115	-1.551575	-4.042185	0.137182
1.040	-2.147404	0.480679	668.974863	0.997432	26.868792	-1.566949	-4.016413	0.149099
1.050	-1.766403	0.407250	668.477390	1.059661	26.693945	-1.579111	-3.993246	0.158519
1.060	-1.474989	0.299168	668.053718	1.103146	26.540240	-1.586023	-3.972770	0.165128
1.070	-1.291041	0.174998	667.757077	1.125382	26.410321	-1.587191	-3.955079	0.168532
1.080	-1.217233	0.049810	667.630723	1.124533	26.306487	-1.583593	-3.940275	0.168436
1.090	-1.242254	-0.067144	667.696764	1.101003	26.230273	-1.577113	-3.928471	0.164896
1.100	-1.344038	-0.172311	667.947163	1.058677	26.182019	-1.569700	-3.919774	0.158497
1.110	-1.494619	-0.265825	668.341077	1.005076	26.160527	-1.562631	-3.914248	0.150384
1.120	-1.665697	-0.348833	668.811302	0.950042	26.162833	-1.556220	-3.911841	0.142049
1.130	-1.833557	-0.421351	669.279481	0.903319	26.184178	-1.550031	-3.912294	0.134969
1.140	-1.982057	-0.481359	669.675322	0.872117	26.218351	-1.543355	-3.915084	0.130230
1.150	-2.103120	-0.525332	669.952622	0.859856	26.258527	-1.535676	-3.919460	0.128346
1.160	-2.195198	-0.549855	670.096561	0.866471	26.298493	-1.526896	-3.924583	0.129305
1.170	-2.260752	-0.553494	670.121150	0.889731	26.333878	-1.517321	-3.929719	0.132772
1.180	-2.303798	-0.537945	670.059651	0.926563	26.362970	-1.507518	-3.934421	0.138281
1.190	-2.328346	-0.507886	669.952539	0.973776	26.386782	-1.498170	-3.938605	0.145350
1.200	-2.338112	-0.469642	669.837054	1.028122	26.408307	-1.490043	-3.942497	0.153488
1.210	-2.337264	-0.429480	669.740482	1.086042	26.431219	-1.483980	-3.946487	0.162159
1.220	-2.331414	-0.392537	669.677312	1.143491	26.458541	-1.480785	-3.950939	0.170753
1.230	-2.328168	-0.362783	669.649315	1.196104	26.491828	-1.480905	-3.956075	0.178617
1.240	-2.336931	-0.343490	669.647769	1.239694	26.531133	-1.483993	-3.961953	0.185126
1.250	-2.367861	-0.337422	669.657584	1.270943	26.575599	-1.488643	-3.968536	0.189790
1.260	-2.429886	-0.346531	669.662851	1.288106	26.624247	-1.492555	-3.975769	0.192351
1.270	-2.528053	-0.371523	669.651991	1.291592	26.676372	-1.493238	-3.983617	0.192875
1.280	-2.661068	-0.411526	669.620162	1.284305	26.731250	-1.488988	-3.992002	0.191796
1.290	-2.820219	-0.463704	669.568074	1.271477	26.787358	-1.479668	-4.000692	0.189895
1.300	-2.990477	-0.522666	669.498726	1.259804	26.841747	-1.466874	-4.009230	0.188171
1.310	-3.153669	-0.580086	669.414402	1.255961	26.890202	-1.453431	-4.016974	0.187621
1.320	-3.292915	-0.625346	669.315084	1.265010	26.928334	-1.442507	-4.023267	0.189001
1.330	-3.397040	-0.647696	669.198295	1.289305	26.953197	-1.436715	-4.027685	0.192664
1.340	-3.463557	-0.639534	669.060443	1.328321	26.964705	-1.437510	-4.030235	0.198535
1.350	-3.499209	-0.599588	668.900256	1.379364	26.966093	-1.444959	-4.031407	0.206214
1.360	-3.517815	-0.534407	668.723876	1.438674	26.963145	-1.457843	-4.032030	0.215137
1.370	-3.535927	-0.457113	668.549021	1.502335	26.962496	-1.473954	-4.032987	0.224716
1.380	-3.567394	-0.383549	668.404685	1.566727	26.969751	-1.490518	-4.034943	0.234398
1.390	-3.618470	-0.327296	668.324762	1.628643	26.988108	-1.504710	-4.038173	0.243690
1.400	-3.685331	-0.295778	668.337693	1.685295	27.017791	-1.514237	-4.042536	0.252162
1.410	-3.755246	-0.289195	668.456756	1.734322	27.056249	-1.517907	-4.047569	0.259452
1.420	-3.811210	-0.302371	668.675035	1.773869	27.098872	-1.515959	-4.052622	0.265281
1.430	-3.838316	-0.327971	668.966303	1.802747	27.139973	-1.509953	-4.057002	0.269482
1.440	-3.829296	-0.359156	669.290413	1.820579	27.173870	-1.502161	-4.060101	0.272016
1.450	-3.787055	-0.390690	669.600661	1.827885	27.195940	-1.494668	-4.061516	0.272981
1.460	-3.723375	-0.418770	669.851048	1.826056	27.203494	-1.488602	-4.061126	0.272606
1.470	-3.654576	-0.440670	670.002980	1.817274	27.196273	-1.483894	-4.059127	0.271234
1.480	-3.595959	-0.455048	670.032163	1.804291	27.176452	-1.479620	-4.055992	0.269284
1.490	-3.557143	-0.462884	669.935421	1.790001	27.148157	-1.474686	-4.052354	0.267190
1.500	-3.540084	-0.468144	669.734600	1.776849	27.116550	-1.468471	-4.048850	0.265306
1.510	-3.540400	-0.477197	669.473974	1.766217	27.086636	-1.461185	-4.045958	0.263822
1.520	-3.550879	-0.496714	669.209994	1.757986	27.062134	-1.453863	-4.043893	0.262696
1.530	-3.564868	-0.530847	668.996251	1.750465	27.044726	-1.448094	-4.042583	0.261655
1.540	-3.577760	-0.579112	668.869267	1.740870	27.033904	-1.445570	-4.041732	0.260271
1.550	-3.586540	-0.636145	668.840687	1.726349	27.027435	-1.447572	-4.040938	0.258111
1.560	-3.588621	-0.693603	668.898463	1.705316	27.022313	-1.454506	-4.039823	0.254944
1.570	-3.581275	-0.743378	669.015362	1.678572	27.015929	-1.465637	-4.038163	0.250902
1.580	-3.562237	-0.780585	669.160153	1.649649	27.007079	-1.479153	-4.035966	0.246525
1.590	-3.531214	-0.804924	669.306520	1.624100	26.996478	-1.492575	-4.033500	0.242654
1.600	-3.491420	-0.819924	669.436837	1.607955	26.986509	-1.503434	-4.031226	0.240195
1.610	-3.450042	-0.830764	669.540765	1.605972	26.980166	-1.509996	-4.029652	0.239862
1.620	-3.416866	-0.841836	669.611101	1.620357	26.979547	-1.511777	-4.029137	0.241985
1.630	-3.401365	-0.854993	669.640708	1.650227	26.984695	-1.509604	-4.029727	0.246435
1.640	-3.409597	-0.868976	669.623627	1.691845	26.993515	-1.505181	-4.031147	0.252656
1.650	-3.442454	-0.880163	669.560565	1.739632	27.002920	-1.500331	-4.032932	0.259817
1.660	-3.495698	-0.884386	669.465440	1.787832	27.010508	-1.496289	-4.034638	0.267054
1.670	-3.561191	-0.879074	669.367903	1.832350	27.015858	-1.493332	-4.036025	0.273743
1.680	-3.628633	-0.864697	669.308134	1.871995	27.020811	-1.490858	-4.037126	0.279691
1.690	-3.687511	-0.844838	669.324214	1.908500	27.028691	-1.487788	-4.038206	0.285138
1.700	-3.729167	-0.824941	669.436613	1.945280	27.042864	-1.483106	-4.039645	0.290585
1.710	-3.748645	-0.810288	669.636377	1.985555	27.065248	-1.476357	-4.041783	0.296512
1.720	-3.745764	-0.803891	669.882905	2.030737	27.095399	-1.467914	-4.044796	0.303148
1.730	-3.724805	-0.805069	670.114236	2.079791	27.130624	-1.458935	-4.048657	0.310364
1.740	-3.692458	-0.809402	670.267655	2.129677	27.167152	-1.451033	-4.053180	0.317735
1.750	-3.654597	-0.810356	670.302574	2.176538	27.201828	-1.445849	-4.058142	0.324710
1.760	-3.613478	-0.802135	670.214678	2.217111	27.233388	-1.444671	-4.063383	0.330806
1.770	-3.567257	-0.782629	670.033607	2.249972	27.262617	-1.448162	-4.068843	0.335800
1.780	-3.512665	-0.755129	669.805424	2.276343	27.291383	-1.456183	-4.074524	0.339851
1.790	-3.449737	-0.727793	669.570211	2.300222	27.321314	-1.467704	-4.080426	0.343537
1.800	-3.385890	-0.710661	669.347687	2.327578	27.353098	-1.480882	-4.086531	0.347738
1.810	-3.336740	-0.711237	669.137683	2.364674	27.386881	-1.493369	-4.092862	0.353391
1.820	-3.322697	-0.730794	668.932397	2.415994	27.423367	-1.502822	-4.099572	0.361172
1.830	-3.362812	-0.763450	668.730850	2.482645	27.464617	-1.507428	-4.106976	0.371247
1.840	-3.468682	-0.798500	668.546680	2.562016	27.513826	-1.506205	-4.115468	0.383222
1.850	-3.640982	-0.824557	668.406299	2.648914	27.574085	-1.499015	-4.125348	0.396303
1.860	-3.869580	-0.833241	668.339671	2.737619	27.646789	-1.486446	-4.136637	0.409615
1.870	-4.136481	-0.820830	668.367897	2.823814	27.730481	-1.469676	-4.148985	0.422494
1.880	-4.419794	-0.787712	668.492035	2.905547	27.820516	-1.450354	-4.161682	0.434642
1.890	-4.697017	-0.736573	668.688053	2.983031	27.909612	-1.430410	-4.173787	0.446102
1.900	-4.946958	-0.670625	668.911938	3.057720	27.989141	-1.411830	-4.184279	0.457118
1.910	-5.150712	-0.592753	669.114663	3.131346	28.050861	-1.396427	-4.192235	0.467983
1.920	-5.292729	-0.505748	669.260450	3.205450	28.088624	-1.385642	-4.196965	0.478954
1.930	-5.362625	-0.412957	669.338813	3.281453	28.099500	-1.380379	-4.198098	0.490253
1.940	-5.357424	-0.318498	669.364291	3.360879	28.083979	-1.380940	-4.195619	0.502100
1.950	-5.283025	-0.226703	669.365483	3.445289	28.045271	-1.387119	-4.189829	0.514710
1.960	-5.153584	-0.141212	669.371135	3.535820	27.988059	-1.398412	-4.181247	0.528230
1.970	-4.988249	-0.064376	669.400977	3.632623	27.917058	-1.414165	-4.170454	0.542668
1.980	-4.805921	0.002771	669.463600	3.734522	27.835781	-1.433550	-4.157923	0.557838
1.990	-4.619905	0.060190	669.558029	3.839084	27.745873	-1.455429	-4.143909	0.573376
2.000	-4.434880	0.108656	669.674703	3.943115	27.647300	-1.478288	-4.128467	0.588810
2.010	-4.248019	0.149879	669.795327	4.043423	27.539299	-1.500368	-4.111599	0.603680
2.020	-4.054132	0.186649	669.894804	4.137582	27.421613	-1.519966	-4.093421	0.617646
2.030	-3.852311	0.222538	669.947835	4.224456	27.295478	-1.535806	-4.074269	0.630565
2.040	-3.650338	0.261021	669.938327	4.304405	27.163982	-1.547310	-4.054699	0.642508
2.050	-3.464224	0.304443	669.866424	4.379154	27.031731	-1.554676	-4.035391	0.653735
2.060	-3.312967	0.353418	669.748906	4.451278	26.903908	-1.558715	-4.017014	0.664619
2.070	-3.211373	0.406931	669.612867	4.523312	26.785053	-1.560449	-4.000080	0.675511
2.080	-3.164543	0.462896	669.486309	4.596701	26.677975	-1.560645	-3.984843	0.686601
2.090	-3.166382	0.518741	669.390091	4.670963	26.583176	-1.559485	-3.971253	0.697794
2.100	-3.202277	0.571803	669.333757	4.743363	26.499049	-1.556583	-3.959019	0.708669
2.110	-3.254356	0.619568	669.315249	4.809316	26.422792	-1.551338	-3.947735	0.718543
2.120	-3.306928	0.659764	669.323036	4.863543	26.351641	-1.543450	-3.937059	0.726636
2.130	-3.349870	0.690204	669.339556	4.901691	26.283890	-1.533300	-3.926839	0.732318
2.140	-3.378925	0.708489	669.346239	4.921802	26.219245	-1.521991	-3.917142	0.735315
2.150	-3.393495	0.712032	669.330483	4.924892	26.158486	-1.511056	-3.908157	0.735794
2.160	-3.393689	0.698701	669.292283	4.914366	26.102661	-1.502006	-3.900039	0.734263
2.170	-3.378433	0.667848	669.245584	4.894621	26.052229	-1.495973	-3.892776	0.731364
2.180	-3.345612	0.621072	669.211478	4.869633	26.006550	-1.493536	-3.886148	0.727667
2.190	-3.293839	0.562205	669.206493	4.842241	25.964051	-1.494733	-3.879827	0.723579
2.200	-3.224455	0.496466	669.233373	4.814267	25.923079	-1.499196	-3.873549	0.719370
2.210	-3.142277	0.429170	669.279747	4.787117	25.883034	-1.506300	-3.867297	0.715264
2.220	-3.054700	0.364542	669.324568	4.762249	25.845049	-1.515278	-3.861363	0.711501
2.230	-2.969973	0.305166	669.348295	4.741140	25.811742	-1.525294	-3.856250	0.708322
2.240	-2.895750	0.252212	669.342097	4.724762	25.786098	-1.535529	-3.852454	0.705881
2.250	-2.838395	0.206150	669.312182	4.712975	25.770140	-1.545296	-3.850242	0.704152
2.260	-2.802663	0.167297	669.277498	4.704329	25.764131	-1.554156	-3.849544	0.702897
2.270	-2.791283	0.135693	669.262103	4.696468	25.766662	-1.561953	-3.850011	0.701738
2.280	-2.804361	0.110490	669.285750	4.686836	25.775445	-1.568739	-3.851187	0.700274
2.290	-2.839066	0.089648	669.356003	4.673231	25.788300	-1.574636	-3.852703	0.698168
2.300	-2.889966	0.070461	669.463833	4.654056	25.803871	-1.579754	-3.854409	0.695192
2.310	-2.949915	0.050632	669.583950	4.628496	25.821863	-1.584207	-3.856404	0.691250
2.320	-3.011038	0.029101	669.680927	4.596952	25.842806	-1.588170	-3.858973	0.686439
