Time[s]	Fx[N]	Fy[N]	Fz[N]	Mx[Nm]	My[Nm]	Mz[Nm]	COPx[cm]	COPy[cm]
0.010	1.711670	-0.140452	584.032945	5.313313	22.634578	-0.214098	-3.875565	0.909763
0.020	1.699480	0.137600	584.079982	5.521691	22.576788	-0.211939	-3.865359	0.945366
0.030	1.672115	0.395367	584.365515	5.726619	22.542731	-0.211473	-3.857642	0.979972
0.040	1.617869	0.619365	585.069377	5.924815	22.550654	-0.213868	-3.854355	1.012669
0.050	1.531580	0.807013	586.276200	6.113076	22.609819	-0.219510	-3.856513	1.042696
0.060	1.416088	0.965529	587.966588	6.288313	22.719663	-0.227953	-3.864108	1.069502
0.070	1.281884	1.106718	590.036133	6.447520	22.871198	-0.238063	-3.876237	1.092733
0.080	1.145159	1.240330	592.331569	6.587833	23.049608	-0.248252	-3.891335	1.112187
0.090	1.024771	1.368848	594.689954	6.706782	23.237155	-0.256773	-3.907440	1.127778
0.100	0.938763	1.485520	596.969016	6.802527	23.416027	-0.262000	-3.922486	1.139511
0.110	0.901060	1.575854	599.062150	6.873693	23.570921	-0.262667	-3.934637	1.147409
0.120	0.918883	1.621471	600.897672	6.918763	23.691062	-0.258007	-3.942612	1.151404
0.130	0.991353	1.604809	602.427459	6.935547	23.771243	-0.247764	-3.945910	1.151267
0.140	1.109699	1.513462	603.613364	6.921443	23.811604	-0.232103	-3.944844	1.146668
0.150	1.259299	1.343335	604.419286	6.874557	23.816196	-0.211472	-3.940343	1.137382
0.160	1.423288	1.100018	604.812558	6.794963	23.790756	-0.186534	-3.933575	1.123482
0.170	1.586631	0.798079	604.772460	6.685213	23.740430	-0.158209	-3.925514	1.105410
0.180	1.738952	0.458444	604.299787	6.549754	23.668349	-0.127749	-3.916657	1.083858
0.190	1.874728	0.104629	603.421881	6.393757	23.575671	-0.096665	-3.906996	1.059583
0.200	1.990819	-0.241172	602.191477	6.222214	23.463081	-0.066395	-3.896282	1.033262
0.210	2.083051	-0.561162	600.681808	6.039924	23.332887	-0.037807	-3.884400	1.005511
0.220	2.144353	-0.843541	598.981833	5.852184	23.190483	-0.010818	-3.871650	0.977022
0.230	2.166070	-1.082599	597.193532	5.665421	23.044310	0.015610	-3.858768	0.948674
0.240	2.141973	-1.277629	595.429823	5.487121	22.904376	0.043011	-3.846696	0.921540
0.250	2.072721	-1.431077	593.810114	5.325098	22.780084	0.072654	-3.836257	0.896768
0.260	1.968214	-1.546360	592.452097	5.186591	22.678310	0.104770	-3.827872	0.875445
0.270	1.846453	-1.625884	591.461066	5.077641	22.602363	0.138089	-3.821446	0.858491
0.280	1.729216	-1.669791	590.918264	5.002753	22.552099	0.169843	-3.816450	0.846607
0.290	1.636146	-1.676039	590.868244	4.964698	22.525003	0.196328	-3.812187	0.840238
0.300	1.579211	-1.642166	591.305349	4.964263	22.517876	0.213889	-3.808164	0.839543
0.310	1.559184	-1.568374	592.162744	4.999916	22.528534	0.220053	-3.804450	0.844348
0.320	1.565069	-1.460405	593.311033	5.067644	22.556949	0.214356	-3.801876	0.854129
0.330	1.576729	-1.330124	594.573271	5.161420	22.605330	0.198506	-3.801942	0.868088
0.340	1.570341	-1.192623	595.757630	5.274548	22.677027	0.175743	-3.806418	0.885351
0.350	1.525499	-1.060812	596.700345	5.401526	22.774705	0.149701	-3.816774	0.905233
0.360	1.431876	-0.940263	597.304727	5.539472	22.898583	0.123298	-3.833652	0.927411
0.370	1.292839	-0.827276	597.561592	5.688330	23.045553	0.098164	-3.856599	0.951924
0.380	1.124065	-0.711508	597.543283	5.849712	23.209530	0.074766	-3.884159	0.978960
0.390	0.947090	-0.582085	597.374415	6.025053	23.382796	0.053014	-3.914261	1.008589
0.400	0.780200	-0.434201	597.191850	6.214043	23.557626	0.032944	-3.944733	1.040544
0.410	0.630818	-0.273121	597.109530	6.414039	23.727365	0.015086	-3.973704	1.074181
0.420	0.493316	-0.114015	597.199706	6.620499	23.886516	0.000411	-3.999753	1.108590
0.430	0.353569	0.022014	597.493411	6.828021	24.029966	-0.010005	-4.021796	1.142778
0.440	0.197924	0.114075	597.993968	7.031442	24.152011	-0.015363	-4.038839	1.175838
0.450	0.021871	0.147676	598.692101	7.226719	24.245859	-0.015398	-4.049804	1.207084
0.460	-0.165881	0.119049	599.572748	7.411467	24.303980	-0.010491	-4.053550	1.236125
0.470	-0.345230	0.036628	600.610920	7.585137	24.319065	-0.001676	-4.049055	1.262904
0.480	-0.490299	-0.080312	601.761565	7.748913	24.284957	0.009352	-4.035644	1.287705
0.490	-0.575239	-0.205242	602.951316	7.905434	24.196987	0.020233	-4.013091	1.311123
0.500	-0.577800	-0.309683	604.078112	8.058388	24.051727	0.027988	-3.981559	1.333998
0.510	-0.480900	-0.369456	605.020868	8.211929	23.846633	0.029302	-3.941456	1.357297
0.520	-0.274030	-0.370483	605.657749	8.369914	23.580105	0.021116	-3.893305	1.381954
0.530	0.044345	-0.312286	605.888377	8.535163	23.252161	0.001422	-3.837697	1.408702
0.540	0.463942	-0.207731	605.653311	8.709032	22.865452	-0.030000	-3.775337	1.437957
0.550	0.961276	-0.078832	604.944928	8.891540	22.426151	-0.071233	-3.707139	1.469810
0.560	1.501570	0.050178	603.807124	9.081908	21.944241	-0.118462	-3.634313	1.504107
0.570	2.044582	0.160279	602.324647	9.279153	21.433032	-0.166820	-3.558385	1.540557
0.580	2.553020	0.243102	600.605101	9.482348	20.908065	-0.211643	-3.481167	1.578799
0.590	3.000491	0.302712	598.758459	9.690434	20.385737	-0.249729	-3.404668	1.618421
0.600	3.375702	0.353598	596.880468	9.901764	19.881942	-0.280145	-3.330975	1.658919
0.610	3.681395	0.415861	595.045402	10.113803	19.410902	-0.304263	-3.262088	1.699669
0.620	3.929094	0.509056	593.309253	10.323340	18.984264	-0.324978	-3.199725	1.739959
0.630	4.132486	0.646301	591.719130	10.527278	18.610600	-0.345434	-3.145175	1.779101
0.640	4.302181	0.830355	590.322187	10.723552	18.295416	-0.367758	-3.099226	1.816559
0.650	4.443290	1.053097	589.169095	10.911592	18.041557	-0.392304	-3.062204	1.852031
0.660	4.555818	1.298576	588.311204	11.092008	17.849745	-0.417641	-3.034065	1.885398
0.670	4.636957	1.548265	587.793875	11.265781	17.718994	-0.441188	-3.014491	1.916621
0.680	4.683966	1.786296	587.649359	11.433572	17.646770	-0.460169	-3.002942	1.945645
0.690	4.696293	2.002877	587.891800	11.595647	17.628917	-0.472546	-2.998667	1.972412
0.700	4.676060	2.195165	588.515517	11.752360	17.659525	-0.477688	-3.000690	1.996950
0.710	4.627015	2.365909	589.495743	11.904696	17.730925	-0.476578	-3.007812	2.019471
0.720	4.552993	2.520850	590.789798	12.054376	17.834005	-0.471456	-3.018672	2.040383
0.730	4.457064	2.666031	592.337372	12.203360	17.958873	-0.465006	-3.031866	2.060204
0.740	4.341859	2.805907	594.060902	12.352957	18.095756	-0.459420	-3.046111	2.079409
0.750	4.210712	2.942547	595.868741	12.503056	18.235803	-0.455778	-3.060372	2.098290
0.760	4.068977	3.075917	597.662985	12.651962	18.371534	-0.453968	-3.073895	2.116906
0.770	3.924932	3.205013	599.350468	12.796941	18.496843	-0.453068	-3.086148	2.135135
0.780	3.789666	3.329367	600.851985	12.935128	18.606695	-0.451933	-3.096719	2.152798
0.790	3.675566	3.450164	602.104829	13.064291	18.696762	-0.449660	-3.105234	2.169770
0.800	3.593710	3.570280	603.058240	13.183130	18.763195	-0.445796	-3.111340	2.186046
0.810	3.551177	3.693149	603.667068	13.291099	18.802667	-0.440346	-3.114741	2.201727
0.820	3.549329	3.820960	603.890962	13.388041	18.812761	-0.433754	-3.115258	2.216963
0.830	3.583250	3.952999	603.702444	13.474003	18.792649	-0.426915	-3.112899	2.231895
0.840	3.641883	4.084744	603.100142	13.549303	18.743814	-0.421089	-3.107911	2.246609
0.850	3.708554	4.208091	602.119274	13.614648	18.670460	-0.417564	-3.100791	2.261121
0.860	3.762463	4.312978	600.833719	13.671122	18.579278	-0.417076	-3.092249	2.275359
0.870	3.781958	4.390390	599.349877	13.720129	18.478494	-0.419283	-3.083090	2.289169
0.880	3.749581	4.435900	597.796067	13.763474	18.376322	-0.422666	-3.074012	2.302369
0.890	3.657530	4.452203	596.310188	13.803533	18.279125	-0.425051	-3.065372	2.314824
0.900	3.511462	4.449231	595.025728	13.843161	18.189861	-0.424530	-3.056987	2.326481
0.910	3.330947	4.441469	594.055856	13.884978	18.107505	-0.420287	-3.048115	2.337319
0.920	3.146049	4.443429	593.477528	13.930118	18.027853	-0.412851	-3.037664	2.347202
0.930	2.990707	4.465081	593.319766	13.977059	17.945412	-0.403721	-3.024577	2.355738
0.940	2.894597	4.509006	593.559946	14.021243	17.855471	-0.394647	-3.008200	2.362229
0.950	2.875848	4.570153	594.129445	14.055787	17.755437	-0.386992	-2.988480	2.365779
0.960	2.937067	4.637890	594.927250	14.073031	17.645091	-0.381445	-2.965924	2.365505
0.970	3.066118	4.699215	595.838204	14.066360	17.526057	-0.378066	-2.941412	2.360768
0.980	3.241108	4.741959	596.751193	14.031728	17.401010	-0.376554	-2.915957	2.351353
0.990	3.437158	4.757332	597.572391	13.968421	17.272982	-0.376514	-2.890525	2.337528
1.000	3.632270	4.741579	598.231127	13.878824	17.144882	-0.377550	-2.865929	2.319977
1.010	3.810755	4.696543	598.680025	13.767226	17.019206	-0.379144	-2.842788	2.299597
1.020	3.964252	4.628960	598.893420	13.638170	16.897919	-0.380414	-2.821524	2.277228
1.030	4.091044	4.548534	598.866305	13.495076	16.782470	-0.380068	-2.802373	2.253437
1.040	4.194310	4.465350	598.612955	13.339721	16.673842	-0.376726	-2.785413	2.228438
1.050	4.279662	4.387451	598.163984	13.172512	16.572615	-0.369520	-2.770580	2.202157
1.060	4.352513	4.319359	597.562702	12.993002	16.479113	-0.358603	-2.757721	2.174333
1.070	4.416155	4.261727	596.862280	12.800144	16.393724	-0.345201	-2.746651	2.144572
1.080	4.471361	4.211821	596.123600	12.592306	16.317219	-0.331141	-2.737221	2.112365
1.090	4.517523	4.164306	595.411925	12.367435	16.250861	-0.318108	-2.729348	2.077123
1.100	4.554374	4.111980	594.790620	12.123564	16.196236	-0.306983	-2.723015	2.038291
1.110	4.582959	4.046388	594.312040	11.859550	16.154949	-0.297588	-2.718260	1.995509
1.120	4.605174	3.958467	594.008256	11.575670	16.128326	-0.288873	-2.715169	1.948739
1.130	4.622275	3.839377	593.885357	11.273811	16.117187	-0.279371	-2.713855	1.898314
1.140	4.633497	3.681622	593.923716	10.957215	16.121682	-0.267664	-2.714437	1.844886
1.150	4.635815	3.480394	594.083865	10.629885	16.141246	-0.252710	-2.716998	1.789290
1.160	4.625055	3.234845	594.315756	10.295943	16.174725	-0.234057	-2.721571	1.732403
1.170	4.597689	2.949054	594.568753	9.959133	16.220764	-0.212013	-2.728156	1.675018
1.180	4.552227	2.632523	594.799994	9.622566	16.278411	-0.187758	-2.736787	1.617782
1.190	4.489409	2.300174	594.979328	9.288592	16.347718	-0.163334	-2.747611	1.561162
1.200	4.411009	1.971688	595.089920	8.958661	16.430068	-0.141415	-2.760939	1.505430
1.210	4.317706	1.669880	595.125145	8.633161	16.528081	-0.124778	-2.777245	1.450646
1.220	4.206996	1.417891	595.084146	8.311461	16.645205	-0.115523	-2.797118	1.396687
1.230	4.072275	1.235423	594.969810	7.992339	16.785139	-0.114295	-2.821175	1.343318
1.240	3.904116	1.134993	594.792396	7.674677	16.951081	-0.119912	-2.849916	1.290312
1.250	3.694102	1.119346	594.578820	7.358060	17.144698	-0.129656	-2.883503	1.237525
1.260	3.440432	1.180533	594.382923	7.043031	17.364856	-0.140211	-2.921493	1.184932
1.270	3.153233	1.300419	594.289581	6.731083	17.606458	-0.148858	-2.962606	1.132627
1.280	2.856911	1.452363	594.407333	6.424414	17.859950	-0.154429	-3.004665	1.080810
1.290	2.587373	1.604221	594.848709	6.125343	18.111995	-0.157601	-3.044807	1.029731
1.300	2.383552	1.722918	595.702175	5.835272	18.347427	-0.160417	-3.079966	0.979562
1.310	2.275356	1.780205	597.003096	5.553522	18.551994	-0.165297	-3.107521	0.930233
1.320	2.272710	1.758317	598.712855	5.276704	18.714909	-0.173980	-3.125857	0.881341
1.330	2.361194	1.653845	600.714001	4.999180	18.830182	-0.186866	-3.134633	0.832206
1.340	2.507293	1.478301	602.824696	4.714554	18.896276	-0.202981	-3.134622	0.782077
1.350	2.671525	1.254644	604.829207	4.417606	18.914520	-0.220458	-3.127250	0.730389
1.360	2.823262	1.010280	606.515805	4.105886	18.887207	-0.237170	-3.114050	0.676963
1.370	2.950017	0.768659	607.711198	3.780452	18.816209	-0.251191	-3.096242	0.622080
1.380	3.057223	0.542779	608.302485	3.445584	18.702449	-0.261009	-3.074531	0.566426
1.390	3.160230	0.333400	608.242948	3.107638	18.546213	-0.265649	-3.049146	0.510921
1.400	3.274353	0.132637	607.544756	2.773498	18.348038	-0.264814	-3.020031	0.456509
1.410	3.408518	-0.069052	606.265753	2.449150	18.109870	-0.258992	-2.987117	0.403973
1.420	3.564259	-0.275933	604.496777	2.138769	17.836118	-0.249395	-2.950573	0.353810
1.430	3.738026	-0.483243	602.352211	1.844395	17.534289	-0.237701	-2.910969	0.306199
1.440	3.923641	-0.677902	599.963037	1.566106	17.214949	-0.225665	-2.869335	0.261034
1.450	4.113233	-0.842878	597.470301	1.302497	16.890955	-0.214751	-2.827079	0.218002
1.460	4.297167	-0.962908	595.017285	1.051386	16.576156	-0.205930	-2.785828	0.176698
1.470	4.464507	-1.029143	592.740022	0.810645	16.283921	-0.199703	-2.747228	0.136762
1.480	4.604878	-1.041335	590.757095	0.578953	16.025872	-0.196247	-2.712768	0.098002
1.490	4.711181	-1.007531	589.160459	0.356097	15.811099	-0.195536	-2.683666	0.060441
1.500	4.781778	-0.942019	588.009096	0.142627	15.645917	-0.197337	-2.660829	0.024256
1.510	4.820844	-0.862383	587.326938	-0.060866	15.533985	-0.201157	-2.644862	-0.010363
1.520	4.836386	-0.786311	587.105944	-0.254223	15.476491	-0.206249	-2.636064	-0.043301
1.530	4.836671	-0.728417	587.314115	-0.437568	15.472236	-0.211738	-2.634406	-0.074503
1.540	4.826947	-0.697157	587.906169	-0.610732	15.517713	-0.216828	-2.639488	-0.103883
1.550	4.808345	-0.692176	588.832605	-0.772851	15.607399	-0.220982	-2.650566	-0.131251
1.560	4.779420	-0.703125	590.043412	-0.922503	15.734381	-0.224057	-2.666648	-0.156345
1.570	4.739047	-0.711222	591.485867	-1.058301	15.891205	-0.226358	-2.686658	-0.178922
1.580	4.688599	-0.693900	593.099435	-1.179665	16.070709	-0.228619	-2.709615	-0.198898
1.590	4.632008	-0.631330	594.812288	-1.287587	16.266627	-0.231904	-2.734750	-0.216470
1.600	4.573662	-0.512602	596.542524	-1.385252	16.473825	-0.237448	-2.761551	-0.232214
1.610	4.515327	-0.339530	598.204044	-1.478429	16.688094	-0.246430	-2.789699	-0.247145
1.620	4.453934	-0.127138	599.714994	-1.575518	16.905520	-0.259624	-2.818926	-0.262711
1.630	4.381741	0.099082	601.006904	-1.687101	17.121663	-0.276938	-2.848830	-0.280712
1.640	4.289261	0.308136	602.033272	-1.824782	17.330897	-0.297008	-2.878727	-0.303103
1.650	4.169965	0.469190	602.775841	-1.999306	17.526254	-0.317077	-2.907591	-0.331683
1.660	4.025069	0.556489	603.246573	-2.218342	17.699863	-0.333392	-2.934101	-0.367734
1.670	3.866787	0.552781	603.484204	-2.484643	17.843796	-0.342098	-2.956796	-0.411716
1.680	3.718698	0.451276	603.545573	-2.795339	17.951010	-0.340343	-2.974259	-0.463153
1.690	3.612197	0.256244	603.492755	-3.142671	18.016102	-0.327122	-2.985305	-0.520747
1.700	3.578968	-0.018029	603.377896	-3.515954	18.035763	-0.303560	-2.989132	-0.582712
1.710	3.641312	-0.350003	603.229065	-3.904089	18.009046	-0.272609	-2.985441	-0.647199
1.720	3.803932	-0.714721	603.041836	-4.297789	17.937633	-0.238335	-2.974526	-0.712685
1.730	4.050778	-1.087662	602.780880	-4.690840	17.826170	-0.205035	-2.957322	-0.778200
1.740	4.348536	-1.447720	602.392555	-5.080103	17.682402	-0.176405	-2.935362	-0.843321
1.750	4.655505	-1.778868	601.824638	-5.464533	17.516693	-0.154944	-2.910598	-0.907994
1.760	4.932581	-2.070445	601.045998	-5.843852	17.340661	-0.141712	-2.885081	-0.972280
1.770	5.152687	-2.316438	600.059283	-6.217505	17.165188	-0.136493	-2.860582	-1.036148
1.780	5.306071	-2.514340	598.903271	-6.584249	16.998487	-0.138209	-2.838269	-1.099384
1.790	5.400569	-2.664214	597.645731	-6.942440	16.845007	-0.145357	-2.818561	-1.161631
1.800	5.457494	-2.768532	596.370417	-7.290769	16.705630	-0.156246	-2.801217	-1.222524
1.810	5.504635	-2.832969	595.162314	-7.629001	16.579170	-0.169015	-2.785655	-1.281835
1.820	5.568167	-2.867504	594.094061	-7.958196	16.464559	-0.181570	-2.771372	-1.339551
1.830	5.665432	-2.886421	593.214944	-8.280174	16.362804	-0.191595	-2.758326	-1.395813
1.840	5.800478	-2.906020	592.543840	-8.596416	16.277792	-0.196778	-2.747103	-1.450765
1.850	5.963528	-2.940250	592.068534	-8.906978	16.215686	-0.195203	-2.738819	-1.504383
1.860	6.134381	-2.996125	591.753274	-9.210047	16.183346	-0.185803	-2.734813	-1.556400
1.870	6.288557	-3.071251	591.553132	-9.502538	16.186646	-0.168699	-2.736296	-1.606371
1.880	6.404226	-3.154735	591.430130	-9.781546	16.229367	-0.145307	-2.744089	-1.653880
1.890	6.467718	-3.230914	591.365588	-10.045999	16.312874	-0.118134	-2.758509	-1.698780
1.900	6.475880	-3.284227	591.365681	-10.297757	16.436358	-0.090283	-2.779390	-1.741352
1.910	6.434927	-3.303715	591.459838	-10.541805	16.597334	-0.064729	-2.806164	-1.782337
1.920	6.356954	-3.286318	591.692433	-10.785549	16.792148	-0.043608	-2.837986	-1.822830
1.930	6.255919	-3.238406	592.108747	-11.037341	17.016422	-0.027681	-2.873868	-1.864073
1.940	6.144443	-3.174979	592.738016	-11.304373	17.265504	-0.016154	-2.912839	-1.907145
1.950	6.031928	-3.116366	593.578889	-11.590400	17.534917	-0.006852	-2.954101	-1.952630
1.960	5.923790	-3.083301	594.593323	-11.894129	17.820728	0.003244	-2.997129	-2.000380
1.970	5.821510	-3.092108	595.712338	-12.209079	18.119592	0.017233	-3.041668	-2.049492
1.980	5.723336	-3.151632	596.851480	-12.525092	18.428384	0.037513	-3.087600	-2.098527
1.990	5.625570	-3.262447	597.928659	-12.830880	18.743587	0.065218	-3.134753	-2.145888
2.000	5.524081	-3.417726	598.876295	-13.116604	19.060916	0.100005	-3.182780	-2.190203
2.010	5.415483	-3.604821	599.644426	-13.375594	19.375596	0.140162	-3.231181	-2.230588
2.020	5.297525	-3.807054	600.197539	-13.604882	19.683284	0.182938	-3.279468	-2.266734
2.030	5.168659	-4.005772	600.510764	-13.804715	19.981139	0.225025	-3.327357	-2.298829
2.040	5.027211	-4.182720	600.569561	-13.977425	20.268423	0.263170	-3.374867	-2.327362
2.050	4.870763	-4.322478	600.373460	-14.125973	20.546312	0.294788	-3.422255	-2.352864
2.060	4.696253	-4.414379	599.941123	-14.252440	20.816995	0.318401	-3.469840	-2.375640
2.070	4.501005	-4.453297	599.312678	-14.356865	21.082532	0.333727	-3.517785	-2.395555
2.080	4.284486	-4.439096	598.546864	-14.436892	21.343961	0.341410	-3.565963	-2.411990
2.090	4.050273	-4.375162	597.713469	-14.488488	21.601026	0.342539	-3.613943	-2.423986
2.100	3.807440	-4.266883	596.883341	-14.507583	21.852538	0.338170	-3.661107	-2.430556
2.110	3.570433	-4.120867	596.118826	-14.491965	22.097206	0.329046	-3.706846	-2.431053
2.120	3.356568	-3.945031	595.467862	-14.442535	22.334539	0.315540	-3.750755	-2.425410
2.130	3.181297	-3.748942	594.963948	-14.363285	22.565467	0.297781	-3.792745	-2.414144
2.140	3.052949	-3.543408	594.630576	-14.260137	22.792379	0.275820	-3.833032	-2.398151
2.150	2.969655	-3.338770	594.485411	-14.139386	23.018561	0.249793	-3.872014	-2.378424
2.160	2.920334	-3.142437	594.540580	-14.006518	23.247189	0.219995	-3.910110	-2.355856
2.170	2.889481	-2.957092	594.799583	-13.865803	23.480212	0.186834	-3.947584	-2.331172
2.180	2.863600	-2.780884	595.253851	-13.720678	23.717508	0.150677	-3.984436	-2.305013
2.190	2.836476	-2.609890	595.881116	-13.574712	23.956653	0.111731	-4.020375	-2.278091
2.200	2.811051	-2.441988	596.645752	-13.432638	24.193473	0.070157	-4.054914	-2.251359
2.210	2.797118	-2.280559	597.499933	-13.300846	24.423300	0.026504	-4.087582	-2.226083
2.220	2.805643	-2.136423	598.384530	-13.187042	24.642653	-0.017689	-4.118197	-2.203774
2.230	2.841968	-2.026803	599.229804	-13.099446	24.850871	-0.059465	-4.147135	-2.186047
2.240	2.900624	-1.971126	599.957151	-13.046150	25.051204	-0.094483	-4.175499	-2.174514
2.250	2.963775	-1.985024	600.483400	-13.034992	25.250918	-0.117580	-4.205098	-2.170750
2.260	3.003818	-2.075262	600.728683	-13.073693	25.460296	-0.123686	-4.238235	-2.176306
2.270	2.989272	-2.238178	600.628527	-13.169710	25.690803	-0.108783	-4.277320	-2.192655
2.280	2.892266	-2.462395	600.149984	-13.329447	25.953012	-0.070679	-4.324421	-2.221019
2.290	2.695648	-2.734455	599.308523	-13.556919	26.254903	-0.009472	-4.380866	-2.262093
2.300	2.397649	-3.044933	598.178255	-13.852243	26.601003	0.072355	-4.447003	-2.315738
2.310	2.012363	-3.392706	596.886704	-14.210445	26.992462	0.170192	-4.522209	-2.380761
2.320	1.565045	-3.785928	595.590505	-14.621098	27.427935	0.277866	-4.605167	-2.454891
2.330	1.082951	-4.239145	594.438440	-15.069156	27.904881	0.388433	-4.694327	-2.535024
2.340	0.584793	-4.767113	593.536943	-15.536964	28.420727	0.495030	-4.788367	-2.617691
2.350	0.073957	-5.376969	592.933792	-16.006853	28.973166	0.591569	-4.886408	-2.699602
2.360	-0.459666	-6.061128	592.627069	-16.463444	29.559084	0.673060	-4.987805	-2.778045
