Time[s]	Fx[N]	Fy[N]	Fz[N]	Mx[Nm]	My[Nm]	Mz[Nm]	COPx[cm]	COPy[cm]
0.010	2.666323	-1.903376	607.659449	-4.474580	19.293390	-0.160232	-3.175033	-0.736363
0.020	2.670317	-1.692502	607.649853	-4.341698	19.392354	-0.161664	-3.191370	-0.714506
0.030	2.639760	-1.498441	607.593916	-4.211022	19.502177	-0.166310	-3.209739	-0.693065
0.040	2.548042	-1.332917	607.461589	-4.084517	19.631524	-0.176110	-3.231731	-0.672391
0.050	2.382623	-1.199539	607.248479	-3.962844	19.785944	-0.190962	-3.258294	-0.652590
0.060	2.147417	-1.093233	606.978551	-3.845105	19.967278	-0.208833	-3.289618	-0.633483
0.070	1.861107	-1.002142	606.697763	-3.729057	20.173676	-0.226579	-3.325161	-0.614648
0.080	1.551888	-0.911289	606.460642	-3.611814	20.400070	-0.241098	-3.363791	-0.595556
0.090	1.249987	-0.806974	606.314651	-3.490869	20.639060	-0.250358	-3.404018	-0.575752
0.100	0.980109	-0.680708	606.287885	-3.365095	20.882090	-0.253952	-3.444253	-0.555033
0.110	0.756262	-0.531564	606.383589	-3.235439	21.120682	-0.253007	-3.483056	-0.533563
0.120	0.580803	-0.366314	606.581727	-3.105142	21.347428	-0.249550	-3.519300	-0.511908
0.130	0.447741	-0.197399	606.845434	-2.979506	21.556528	-0.245656	-3.552227	-0.490983
0.140	0.348276	-0.039423	607.129642	-2.865230	21.743923	-0.242808	-3.581430	-0.471930
0.150	0.275557	0.094618	607.389866	-2.769412	21.907191	-0.241677	-3.606776	-0.455953
0.160	0.226361	0.196139	607.589939	-2.698377	22.045440	-0.242251	-3.628342	-0.444111
0.170	0.199451	0.262008	607.707917	-2.656546	22.159265	-0.244096	-3.646368	-0.437142
0.180	0.192241	0.293733	607.739226	-2.645568	22.250789	-0.246554	-3.661240	-0.435313
0.190	0.198199	0.295334	607.696329	-2.663916	22.323616	-0.248845	-3.673482	-0.438363
0.200	0.206865	0.271036	607.605147	-2.707195	22.382501	-0.250138	-3.683725	-0.445552
0.210	0.206905	0.223975	607.499109	-2.769162	22.432544	-0.249685	-3.692605	-0.455830
0.220	0.190899	0.156486	607.411646	-2.843162	22.477872	-0.247016	-3.700599	-0.468078
0.230	0.159472	0.071523	607.367994	-2.923413	22.520088	-0.242098	-3.707816	-0.481325
0.240	0.122667	-0.025913	607.378007	-3.005698	22.557153	-0.235345	-3.713857	-0.494864
0.250	0.097694	-0.128454	607.432384	-3.087363	22.583450	-0.227460	-3.717854	-0.508264
0.260	0.103486	-0.227597	607.504397	-3.166887	22.591343	-0.219254	-3.718713	-0.521294
0.270	0.153658	-0.316058	607.557813	-3.243396	22.573807	-0.211557	-3.715499	-0.533841
0.280	0.250614	-0.390052	607.559654	-3.316406	22.527141	-0.205215	-3.707807	-0.545857
0.290	0.383687	-0.450277	607.494093	-3.385829	22.452687	-0.201057	-3.695951	-0.557344
0.300	0.532688	-0.501121	607.371513	-3.452084	22.356865	-0.199746	-3.680921	-0.568364
0.310	0.675398	-0.548542	607.226741	-3.516078	22.249416	-0.201522	-3.664103	-0.579039
0.320	0.795510	-0.597712	607.105134	-3.578996	22.140465	-0.205954	-3.646891	-0.589518
0.330	0.887598	-0.651568	607.042761	-3.642017	22.037502	-0.211834	-3.630305	-0.599961
0.340	0.957453	-0.710948	607.051004	-3.706155	21.943510	-0.217343	-3.614772	-0.610518
0.350	1.018200	-0.776181	607.113087	-3.772232	21.856971	-0.220475	-3.600148	-0.621339
0.360	1.083975	-0.849151	607.193019	-3.840850	21.773667	-0.219587	-3.585955	-0.632558
0.370	1.163637	-0.934288	607.251633	-3.912265	21.689406	-0.213899	-3.571733	-0.644258
0.380	1.257048	-1.037392	607.262367	-3.986384	21.602454	-0.203725	-3.557351	-0.656452
0.390	1.355598	-1.162655	607.220741	-4.063168	21.514622	-0.190353	-3.543130	-0.669142
0.400	1.446798	-1.309676	607.144650	-4.143367	21.430601	-0.175629	-3.529736	-0.682435
0.410	1.520672	-1.472277	607.066378	-4.229042	21.355849	-0.161423	-3.517877	-0.696636
0.420	1.574691	-1.639642	607.020244	-4.323164	21.294013	-0.149180	-3.507958	-0.712194
0.430	1.614851	-1.798995	607.030769	-4.428113	21.245086	-0.139690	-3.499837	-0.729471
0.440	1.652616	-1.938578	607.104976	-4.543750	21.205254	-0.133130	-3.492848	-0.748429
0.450	1.699563	-2.049935	607.230360	-4.666175	21.168590	-0.129322	-3.486089	-0.768436
0.460	1.762441	-2.129058	607.378495	-4.788038	21.129780	-0.128017	-3.478849	-0.788312
0.470	1.840681	-2.176519	607.513202	-4.900380	21.086539	-0.129012	-3.470960	-0.806629
0.480	1.927015	-2.196844	607.601349	-4.995150	21.040589	-0.132039	-3.462894	-0.822110
0.490	2.010505	-2.197203	607.623242	-5.067158	20.996925	-0.136535	-3.455583	-0.833931
0.500	2.080474	-2.185430	607.578881	-5.114627	20.961884	-0.141479	-3.450068	-0.841805
0.510	2.129726	-2.167831	607.487316	-5.138303	20.940913	-0.145408	-3.447136	-0.845829
0.520	2.156179	-2.147612	607.379375	-5.139829	20.936821	-0.146676	-3.447075	-0.846230
0.530	2.162862	-2.124515	607.287086	-5.120407	20.948977	-0.143932	-3.449600	-0.843161
0.540	2.156617	-2.095671	607.234061	-5.080516	20.973589	-0.136718	-3.453955	-0.836665
0.550	2.145892	-2.057301	607.229579	-5.020811	21.004832	-0.125908	-3.459125	-0.826839
0.560	2.137999	-2.006824	607.267343	-4.943607	21.036365	-0.113674	-3.464103	-0.814074
0.570	2.136574	-1.944741	607.328761	-4.853922	21.062716	-0.102848	-3.468091	-0.799225
0.580	2.140238	-1.875497	607.389890	-4.759276	21.080204	-0.095892	-3.470621	-0.783562
0.590	2.143376	-1.806678	607.430130	-4.668174	21.087284	-0.093983	-3.471557	-0.768512
0.600	2.139116	-1.746527	607.439310	-4.587945	21.084379	-0.096679	-3.471027	-0.755293
0.610	2.123275	-1.700681	607.419490	-4.522987	21.073358	-0.102324	-3.469325	-0.744623
0.620	2.097241	-1.669709	607.380107	-4.474176	21.056804	-0.108941	-3.466825	-0.736635
0.630	2.067979	-1.648727	607.329925	-4.439543	21.037286	-0.115150	-3.463897	-0.730994
0.640	2.044956	-1.629378	607.272280	-4.415674	21.016879	-0.120670	-3.460866	-0.727132
0.650	2.035595	-1.603210	607.207806	-4.399084	20.997119	-0.126225	-3.457979	-0.724478
0.660	2.041814	-1.564912	607.142416	-4.387011	20.979246	-0.132981	-3.455408	-0.722567
0.670	2.059548	-1.514049	607.093224	-4.377511	20.964335	-0.141804	-3.453232	-0.721061
0.680	2.081446	-1.454607	607.085610	-4.369122	20.952984	-0.152706	-3.451405	-0.719688
0.690	2.101072	-1.392633	607.140511	-4.360566	20.944663	-0.164731	-3.449723	-0.718214
0.700	2.116172	-1.333091	607.258266	-4.350802	20.937238	-0.176337	-3.447831	-0.716466
0.710	2.129225	-1.277464	607.409242	-4.339365	20.927160	-0.186085	-3.445315	-0.714405
0.720	2.145230	-1.223257	607.538885	-4.326575	20.910493	-0.193295	-3.441836	-0.712148
0.730	2.168222	-1.165655	607.586904	-4.313158	20.884411	-0.198357	-3.437271	-0.709883
0.740	2.198444	-1.100375	607.512050	-4.299308	20.848538	-0.202518	-3.431790	-0.707691
0.750	2.231556	-1.026192	607.310876	-4.283813	20.805486	-0.207233	-3.425838	-0.705374
0.760	2.260139	-0.946041	607.022241	-4.263975	20.760252	-0.213364	-3.420015	-0.702441
0.770	2.276725	-0.866501	606.716354	-4.236652	20.718613	-0.220647	-3.414876	-0.698292
0.780	2.277036	-0.796030	606.473472	-4.199948	20.685184	-0.227779	-3.410732	-0.692520
0.790	2.262267	-0.742428	606.360391	-4.154533	20.661951	-0.233092	-3.407536	-0.685159
0.800	2.239612	-0.710177	606.412221	-4.103656	20.647793	-0.235434	-3.404910	-0.676711
0.810	2.220664	-0.698695	606.623944	-4.051669	20.638987	-0.234714	-3.402270	-0.667905
0.820	2.217877	-0.702346	606.952684	-4.001884	20.630369	-0.231824	-3.399008	-0.659340
0.830	2.240186	-0.712250	607.328994	-3.955087	20.616772	-0.228123	-3.394663	-0.651226
0.840	2.289493	-0.718985	607.674207	-3.909582	20.594485	-0.224865	-3.389067	-0.643368
0.850	2.359479	-0.715067	607.919901	-3.862634	20.562437	-0.222862	-3.382425	-0.635385
0.860	2.437057	-0.696452	608.024299	-3.812439	20.522785	-0.222447	-3.375323	-0.627021
0.870	2.505566	-0.662958	607.980221	-3.759628	20.480567	-0.223608	-3.368624	-0.618380
0.880	2.548463	-0.617904	607.812068	-3.707736	20.442366	-0.226160	-3.363271	-0.610014
0.890	2.552845	-0.567359	607.564495	-3.662486	20.414298	-0.229852	-3.360021	-0.602814
0.900	2.512650	-0.519199	607.288653	-3.630112	20.400002	-0.234358	-3.359194	-0.597757
0.910	2.431066	-0.481983	607.030835	-3.615339	20.399455	-0.239224	-3.360530	-0.595578
0.920	2.320989	-0.463613	606.825112	-3.619719	20.409074	-0.243925	-3.363255	-0.596501
0.930	2.202590	-0.469738	606.689756	-3.640941	20.423056	-0.248055	-3.366310	-0.600132
0.940	2.098195	-0.502076	606.627539	-3.673352	20.435352	-0.251503	-3.368682	-0.605537
0.950	2.026131	-0.557335	606.630019	-3.709587	20.441586	-0.254428	-3.369696	-0.611507
0.960	1.995825	-0.627718	606.684478	-3.742830	20.440262	-0.257008	-3.369175	-0.616932
0.970	2.006081	-0.703377	606.780414	-3.768839	20.432923	-0.259142	-3.367433	-0.621121
0.980	2.047133	-0.775788	606.912384	-3.786935	20.423232	-0.260357	-3.365104	-0.623967
0.990	2.105424	-0.840243	607.077676	-3.799585	20.415354	-0.259955	-3.362890	-0.625881
1.000	2.168891	-0.896221	607.269841	-3.810883	20.412226	-0.257323	-3.361311	-0.627544
1.010	2.230422	-0.945683	607.471861	-3.824663	20.414365	-0.252241	-3.360545	-0.629603
1.020	2.288280	-0.990495	607.654289	-3.843025	20.419664	-0.245055	-3.360408	-0.632436
1.030	2.343889	-1.030396	607.781629	-3.865744	20.424251	-0.236641	-3.360459	-0.636042
1.040	2.398570	-1.062479	607.824906	-3.890634	20.424087	-0.228148	-3.360193	-0.640091
1.050	2.450879	-1.082310	607.774073	-3.914564	20.416672	-0.220609	-3.359254	-0.644082
1.060	2.495538	-1.086108	607.644346	-3.934633	20.402274	-0.214592	-3.357601	-0.647522
1.070	2.524066	-1.072933	607.473781	-3.949083	20.384238	-0.210050	-3.355575	-0.650083
1.080	2.526836	-1.045903	607.312630	-3.957777	20.368175	-0.206445	-3.353820	-0.651687
1.090	2.496115	-1.011991	607.207555	-3.962268	20.360166	-0.203047	-3.353082	-0.652539
1.100	2.429424	-0.980624	607.186150	-3.965538	20.364541	-0.199239	-3.353921	-0.653101
1.110	2.332088	-0.961657	607.247551	-3.971473	20.382050	-0.194667	-3.356465	-0.654012
1.120	2.217683	-0.963281	607.362362	-3.984101	20.409093	-0.189218	-3.360283	-0.655968
1.130	2.105547	-0.990150	607.481411	-4.006657	20.438351	-0.182920	-3.364441	-0.659552
1.140	2.015805	-1.041943	607.550149	-4.040614	20.460677	-0.175900	-3.367735	-0.665067
1.150	1.963564	-1.112714	607.524462	-4.084956	20.467709	-0.168400	-3.369034	-0.672394
1.160	1.954529	-1.191583	607.383684	-4.136065	20.454389	-0.160802	-3.367622	-0.680964
1.170	1.983737	-1.264946	607.137354	-4.188407	20.420591	-0.153609	-3.363422	-0.689862
1.180	2.037803	-1.319724	606.823840	-4.235826	20.371381	-0.147374	-3.357050	-0.698032
1.190	2.099499	-1.346708	606.501283	-4.273017	20.315870	-0.142570	-3.349683	-0.704536
1.200	2.152744	-1.342942	606.233462	-4.296794	20.264961	-0.139416	-3.342765	-0.708769
1.210	2.186240	-1.312343	606.074805	-4.306890	20.228540	-0.137746	-3.337631	-0.710620
1.220	2.194965	-1.264344	606.059022	-4.306145	20.212852	-0.137011	-3.335129	-0.710516
1.230	2.179716	-1.211144	606.194291	-4.299936	20.218853	-0.136412	-3.335375	-0.709333
1.240	2.145712	-1.164640	606.464659	-4.294895	20.242143	-0.135098	-3.337728	-0.708186
1.250	2.101348	-1.133929	606.834665	-4.297240	20.274526	-0.132392	-3.341030	-0.708140
1.260	2.057343	-1.123788	607.254521	-4.311245	20.306671	-0.128024	-3.344013	-0.709957
1.270	2.025512	-1.134177	607.665935	-4.338347	20.330820	-0.122334	-3.345723	-0.713936
1.280	2.016305	-1.160866	608.010489	-4.377130	20.342569	-0.116326	-3.345760	-0.719910
1.290	2.035429	-1.197167	608.240958	-4.424098	20.341234	-0.111497	-3.344272	-0.727359
1.300	2.081119	-1.236327	608.332440	-4.474912	20.329057	-0.109443	-3.341768	-0.735603
1.310	2.143733	-1.273544	608.288184	-4.525649	20.309834	-0.111392	-3.338851	-0.743997
1.320	2.208278	-1.306665	608.136555	-4.573739	20.287490	-0.117803	-3.336009	-0.752091
1.330	2.259012	-1.335451	607.919812	-4.618362	20.264912	-0.128160	-3.333484	-0.759699
1.340	2.284454	-1.360278	607.679478	-4.660289	20.243222	-0.141049	-3.331233	-0.766899
1.350	2.281061	-1.381351	607.444728	-4.701289	20.221591	-0.154526	-3.328960	-0.773945
1.360	2.254221	-1.398826	607.228646	-4.743241	20.197681	-0.166712	-3.326207	-0.781129
1.370	2.216104	-1.413487	607.033403	-4.787285	20.168685	-0.176397	-3.322500	-0.788636
1.380	2.181154	-1.427188	606.861063	-4.833376	20.132658	-0.183414	-3.317507	-0.796455
1.390	2.161106	-1.442470	606.723527	-4.880493	20.089574	-0.188616	-3.311158	-0.804401
1.400	2.161525	-1.461504	606.645131	-4.927381	20.041587	-0.193410	-3.303676	-0.812235
1.410	2.181118	-1.485238	606.655263	-4.973360	19.992408	-0.199018	-3.295514	-0.819800
1.420	2.213788	-1.513654	606.774566	-5.018721	19.946139	-0.205800	-3.287240	-0.827115
1.430	2.252171	-1.547126	607.002362	-5.064512	19.906050	-0.212983	-3.279402	-0.834348
1.440	2.290614	-1.587812	607.312149	-5.111895	19.873696	-0.218912	-3.272402	-0.841724
1.450	2.326019	-1.639874	607.657249	-5.161528	19.848632	-0.221701	-3.266419	-0.849414
1.460	2.356635	-1.708135	607.983454	-5.213333	19.828761	-0.219979	-3.261398	-0.857479
1.470	2.380364	-1.795830	608.242680	-5.266681	19.811087	-0.213464	-3.257102	-0.865885
1.480	2.394187	-1.902555	608.402245	-5.320668	19.792527	-0.203162	-3.253198	-0.874531
1.490	2.395149	-2.023313	608.447693	-5.374120	19.770593	-0.191107	-3.249350	-0.883251
1.500	2.382159	-2.149062	608.380703	-5.425229	19.743809	-0.179683	-3.245305	-0.891749
1.510	2.357528	-2.268576	608.215221	-5.471185	19.711803	-0.170820	-3.240926	-0.899548
1.520	2.327411	-2.371075	607.974551	-5.508235	19.674977	-0.165438	-3.236151	-0.905998
1.530	2.300798	-2.448770	607.690537	-5.532305	19.633870	-0.163398	-3.230899	-0.910382
1.540	2.287274	-2.498397	607.403271	-5.539869	19.588555	-0.163914	-3.224967	-0.912058
1.550	2.294380	-2.521054	607.157353	-5.528666	19.538400	-0.166149	-3.218013	-0.910582
1.560	2.325588	-2.520498	606.991966	-5.498092	19.482329	-0.169661	-3.209652	-0.905793
1.570	2.379608	-2.500810	606.927293	-5.449215	19.419399	-0.174428	-3.199625	-0.897837
1.580	2.451150	-2.464507	606.954321	-5.384412	19.349382	-0.180477	-3.187947	-0.887120
1.590	2.532768	-2.411763	607.034723	-5.306671	19.273144	-0.187393	-3.174966	-0.874196
1.600	2.617051	-2.340839	607.112683	-5.218776	19.192705	-0.194113	-3.161309	-0.859606
1.610	2.698263	-2.249473	607.134736	-5.122699	19.111040	-0.199187	-3.147743	-0.843750
1.620	2.772768	-2.136636	607.069917	-5.019484	19.031704	-0.201350	-3.135010	-0.826838
1.630	2.838244	-2.003959	606.922334	-4.909656	18.958435	-0.200042	-3.123700	-0.808943
1.640	2.892419	-1.856403	606.731223	-4.793939	18.894774	-0.195621	-3.114192	-0.790126
1.650	2.932367	-1.702047	606.558407	-4.673925	18.843645	-0.189206	-3.106650	-0.770565
1.660	2.955035	-1.551079	606.467768	-4.552434	18.806840	-0.182270	-3.101045	-0.750647
1.670	2.958875	-1.414073	606.503884	-4.433354	18.784520	-0.176181	-3.097180	-0.730969
1.680	2.945785	-1.299801	606.676478	-4.320867	18.774936	-0.171875	-3.094720	-0.712219
1.690	2.922317	-1.213028	606.954890	-4.218214	18.774526	-0.169758	-3.093233	-0.694980
1.700	2.899274	-1.153023	607.274099	-4.126481	18.778371	-0.169785	-3.092240	-0.679509
1.710	2.889492	-1.113583	607.551269	-4.044071	18.781027	-0.171599	-3.091266	-0.665635
1.720	2.904312	-1.084902	607.709057	-3.967263	18.777706	-0.174594	-3.089917	-0.652823
1.730	2.949839	-1.056650	607.699353	-3.891640	18.765576	-0.177923	-3.087970	-0.640389
1.740	3.024305	-1.020815	607.519864	-3.813599	18.744672	-0.180591	-3.085442	-0.627732
1.750	3.117652	-0.972929	607.217484	-3.731203	18.717970	-0.181698	-3.082581	-0.614476
1.760	3.213721	-0.911334	606.876803	-3.644219	18.690599	-0.180711	-3.079801	-0.600487
1.770	3.294445	-0.835524	606.597615	-3.553656	18.668613	-0.177613	-3.077594	-0.585834
1.780	3.344589	-0.745079	606.468551	-3.461249	18.657730	-0.172887	-3.076455	-0.570722
1.790	3.355431	-0.640042	606.544309	-3.369032	18.662272	-0.167446	-3.076819	-0.555447
1.800	3.326495	-0.522356	606.832484	-3.279029	18.684327	-0.162561	-3.078993	-0.540352
1.810	3.265444	-0.397231	607.293144	-3.193033	18.723200	-0.159719	-3.083058	-0.525781
1.820	3.186665	-0.273348	607.850313	-3.112487	18.775261	-0.160392	-3.088797	-0.512048
1.830	3.108633	-0.161396	608.410860	-3.038423	18.834358	-0.165706	-3.095664	-0.499403
1.840	3.049766	-0.071292	608.884693	-2.971444	18.892824	-0.176105	-3.102858	-0.488014
1.850	3.023031	-0.009187	609.200930	-2.911783	18.942933	-0.191111	-3.109472	-0.477968
1.860	3.030939	0.024444	609.317526	-2.859465	18.978489	-0.209285	-3.114713	-0.469290
1.870	3.063348	0.034803	609.224907	-2.814512	18.996184	-0.228461	-3.118091	-0.461982
1.880	3.099770	0.030805	608.945137	-2.777055	18.996367	-0.246197	-3.119553	-0.456044
1.890	3.115807	0.021852	608.526606	-2.747302	18.982952	-0.260359	-3.119494	-0.451468
1.900	3.091338	0.014575	608.033317	-2.725360	18.962422	-0.269675	-3.118649	-0.448225
1.910	3.017262	0.010989	607.530093	-2.711008	18.942182	-0.274068	-3.117900	-0.446234
1.920	2.898456	0.008917	607.068619	-2.703548	18.928751	-0.274612	-3.118058	-0.445345
1.930	2.752279	0.004422	606.679956	-2.701885	18.926313	-0.273155	-3.119654	-0.445356
1.940	2.603403	-0.005217	606.376103	-2.704788	18.936039	-0.271718	-3.122821	-0.446058
1.950	2.476581	-0.019698	606.158624	-2.711122	18.956411	-0.271884	-3.127302	-0.447263
1.960	2.389387	-0.035933	606.029177	-2.719917	18.984378	-0.274386	-3.132585	-0.448810
1.970	2.347152	-0.049914	605.996247	-2.730270	19.016839	-0.279029	-3.138112	-0.450542
1.980	2.341854	-0.058984	606.074519	-2.741232	19.051762	-0.284944	-3.143469	-0.452293
1.990	2.355563	-0.063472	606.277062	-2.751733	19.088475	-0.291017	-3.148474	-0.453874
2.000	2.367306	-0.067127	606.604043	-2.760705	19.127034	-0.296309	-3.153133	-0.455108
2.010	2.360739	-0.076258	607.033500	-2.767501	19.167000	-0.300276	-3.157486	-0.455906
2.020	2.329655	-0.097896	607.518862	-2.772563	19.206310	-0.302766	-3.161434	-0.456375
2.030	2.279325	-0.137561	607.995028	-2.777940	19.240940	-0.303851	-3.164654	-0.456902
2.040	2.223457	-0.197247	608.391168	-2.787200	19.265698	-0.303617	-3.166663	-0.458126
2.050	2.178152	-0.274221	608.645876	-2.804540	19.275815	-0.302017	-3.167000	-0.460783
2.060	2.155305	-0.361240	608.720030	-2.833393	19.268622	-0.298826	-3.165433	-0.465467
2.070	2.158072	-0.448523	608.604207	-2.875199	19.244548	-0.293757	-3.162079	-0.472425
2.080	2.180101	-0.527126	608.319652	-2.928994	19.207059	-0.286714	-3.157396	-0.481489
2.090	2.208622	-0.592517	607.913445	-2.992114	19.161706	-0.278065	-3.152045	-0.492194
2.100	2.229995	-0.646830	607.449496	-3.061715	19.114806	-0.268737	-3.146732	-0.504028
2.110	2.235460	-0.698639	606.997383	-3.136319	19.072247	-0.259981	-3.142064	-0.516694
2.120	2.224732	-0.760186	606.620725	-3.216589	19.038647	-0.252942	-3.138476	-0.530247
2.130	2.205896	-0.843167	606.366556	-3.304937	19.016797	-0.248262	-3.136188	-0.545039
2.140	2.191815	-0.954743	606.257360	-3.404185	19.007405	-0.245911	-3.135204	-0.561508
2.150	2.195054	-1.095182	606.287727	-3.515956	19.009252	-0.245202	-3.135352	-0.579915
2.160	2.223707	-1.257714	606.427045	-3.639558	19.019806	-0.244934	-3.136372	-0.600164
2.170	2.279375	-1.430468	606.628332	-3.771827	19.036073	-0.243675	-3.138013	-0.621769
2.180	2.357040	-1.599765	606.841519	-3.907774	19.055321	-0.240228	-3.140082	-0.643953
2.190	2.445971	-1.753746	607.027455	-4.041541	19.075488	-0.234137	-3.142442	-0.665792
2.200	2.531381	-1.885097	607.167533	-4.167216	19.095324	-0.225919	-3.144984	-0.686337
2.210	2.597220	-1.991803	607.265009	-4.279530	19.114390	-0.216767	-3.147619	-0.704722
2.220	2.630259	-2.075663	607.337900	-4.374663	19.132869	-0.207858	-3.150284	-0.720301
2.230	2.624420	-2.139573	607.407453	-4.451084	19.151130	-0.199653	-3.152930	-0.732800
2.240	2.583529	-2.185324	607.488023	-4.509881	19.169130	-0.191634	-3.155475	-0.742382
2.250	2.520986	-2.213047	607.582634	-4.554071	19.185989	-0.182585	-3.157758	-0.749539
2.260	2.456118	-2.222232	607.684604	-4.587056	19.200062	-0.171221	-3.159544	-0.754842
2.270	2.408224	-2.213339	607.781931	-4.611053	19.209494	-0.156802	-3.160590	-0.758669
2.280	2.390455	-2.188918	607.860528	-4.626357	19.212847	-0.139457	-3.160733	-0.761089
2.290	2.405989	-2.153538	607.905193	-4.631707	19.209407	-0.120175	-3.159935	-0.761913
2.300	2.448097	-2.112488	607.900913	-4.625300	19.199094	-0.100572	-3.158260	-0.760864
2.310	2.503738	-2.069891	607.837853	-4.605803	19.182245	-0.082584	-3.155816	-0.757735
2.320	2.558575	-2.027194	607.719877	-4.572976	19.159554	-0.068074	-3.152695	-0.752481
