Time[s]	Fx[N]	Fy[N]	Fz[N]	Mx[Nm]	My[Nm]	Mz[Nm]	COPx[cm]	COPy[cm]
0.010	-4.972191	-1.225408	723.388213	1.414980	3.393811	-0.711437	-0.469155	0.195605
0.020	-4.707850	-0.996152	724.983498	1.645202	3.221312	-0.747895	-0.444329	0.226930
0.030	-4.408506	-0.797419	726.321084	1.880805	3.018809	-0.778828	-0.415630	0.258950
0.040	-4.056898	-0.651160	727.177973	2.125409	2.764305	-0.799379	-0.380141	0.292282
0.050	-3.664569	-0.562968	727.406354	2.379943	2.449435	-0.806266	-0.336735	0.327182
0.060	-3.268650	-0.519647	726.961285	2.642563	2.080611	-0.798406	-0.286207	0.363508
0.070	-2.918395	-0.492467	725.913028	2.909591	1.676065	-0.777161	-0.230891	0.400818
0.080	-2.658453	-0.445331	724.437058	3.176936	1.260409	-0.746024	-0.173985	0.438539
0.090	-2.515563	-0.345394	722.779501	3.441184	0.858711	-0.709806	-0.118807	0.476104
0.100	-2.492255	-0.172871	721.204627	3.699910	0.491752	-0.673574	-0.068185	0.513018
0.110	-2.567845	0.072841	719.939313	3.951366	0.173224	-0.641670	-0.024061	0.548847
0.120	-2.704795	0.372321	719.131162	4.194027	-0.091107	-0.617049	0.012669	0.583207
0.130	-2.857549	0.690657	718.831139	4.426368	-0.302769	-0.600983	0.042120	0.615773
0.140	-2.981046	0.985998	719.001884	4.646943	-0.469137	-0.593072	0.065248	0.646305
0.150	-3.037040	1.219717	719.544139	4.854611	-0.601709	-0.591437	0.083624	0.674679
0.160	-2.997819	1.365289	720.329412	5.048748	-0.714412	-0.593108	0.099178	0.700894
0.170	-2.848037	1.413564	721.229014	5.229201	-0.821940	-0.594657	0.113964	0.725040
0.180	-2.585698	1.373370	722.135126	5.395837	-0.938021	-0.593091	0.129896	0.747206
0.190	-2.222761	1.267825	722.973396	5.547801	-1.073589	-0.586765	0.148496	0.767359
0.200	-1.784829	1.127816	723.706195	5.682966	-1.235095	-0.575945	0.170663	0.785259
0.210	-1.308889	0.984603	724.324813	5.798131	-1.423348	-0.562728	0.196507	0.800488
0.220	-0.838559	0.863468	724.832011	5.890149	-1.633205	-0.550327	0.225322	0.812623
0.230	-0.417433	0.779713	725.222878	5.957563	-1.854310	-0.542004	0.255688	0.821480
0.240	-0.081908	0.737381	725.475501	6.001899	-2.072960	-0.540123	0.285738	0.827306
0.250	0.144900	0.730388	725.558339	6.027815	-2.274909	-0.545634	0.313539	0.830783
0.260	0.256737	0.745510	725.450358	6.041844	-2.448604	-0.558066	0.337529	0.832840
0.270	0.264260	0.766711	725.161530	6.050153	-2.588035	-0.575891	0.356891	0.834318
0.280	0.191451	0.780099	724.741575	6.056325	-2.694286	-0.597094	0.371758	0.835653
0.290	0.069627	0.778281	724.272506	6.060204	-2.775085	-0.619829	0.383155	0.836730
0.300	-0.069023	0.762514	723.848748	6.058373	-2.842248	-0.643002	0.392658	0.836967
0.310	-0.196914	0.741677	723.552673	6.046050	-2.907837	-0.666572	0.401883	0.835606
0.320	-0.295187	0.728422	723.433085	6.019534	-2.980527	-0.691412	0.411998	0.832079
0.330	-0.356458	0.734015	723.492314	5.978114	-3.063613	-0.718771	0.423448	0.826286
0.340	-0.385464	0.763736	723.685755	5.924605	-3.155295	-0.749618	0.436004	0.818671
0.350	-0.396377	0.814330	723.935284	5.864434	-3.250817	-0.784173	0.449048	0.810077
0.360	-0.406542	0.874309	724.153371	5.803890	-3.345325	-0.821794	0.461964	0.801473
0.370	-0.428562	0.927134	724.269193	5.748404	-3.436113	-0.861134	0.474425	0.793683
0.380	-0.464305	0.956265	724.246166	5.701389	-3.523418	-0.900452	0.486495	0.787217
0.390	-0.503965	0.950080	724.085051	5.663709	-3.609786	-0.937982	0.498531	0.782188
0.400	-0.530690	0.904479	723.815016	5.633621	-3.698685	-0.972278	0.510999	0.778323
0.410	-0.528322	0.822159	723.480349	5.607084	-3.793152	-1.002446	0.524292	0.775015
0.420	-0.488360	0.709600	723.129757	5.578439	-3.894864	-1.028198	0.538612	0.771430
0.430	-0.413125	0.573978	722.810972	5.541383	-4.003707	-1.049693	0.553908	0.766643
0.440	-0.314223	0.421697	722.569425	5.490065	-4.117771	-1.067259	0.569879	0.759798
0.450	-0.207732	0.258551	722.447483	5.420045	-4.233725	-1.081120	0.586025	0.750234
0.460	-0.108885	0.090258	722.480455	5.328937	-4.347448	-1.091288	0.601739	0.737589
0.470	-0.028764	-0.077757	722.687785	5.216633	-4.454674	-1.097706	0.616404	0.721838
0.480	0.026009	-0.241431	723.062082	5.085046	-4.551419	-1.100551	0.629464	0.703265
0.490	0.051492	-0.399228	723.561788	4.937426	-4.634114	-1.100503	0.640459	0.682378
0.500	0.044405	-0.552615	724.112933	4.777469	-4.699629	-1.098806	0.649019	0.659769
0.510	0.001520	-0.705513	724.621728	4.608497	-4.745449	-1.097096	0.654886	0.635987
0.520	-0.078809	-0.862833	724.995325	4.432943	-4.770237	-1.097106	0.657968	0.611444
0.530	-0.193503	-1.028451	725.165009	4.252241	-4.774760	-1.100345	0.658438	0.586383
0.540	-0.331560	-1.203215	725.104989	4.067069	-4.762849	-1.107829	0.656850	0.560894
0.550	-0.472882	-1.383809	724.840442	3.877745	-4.741874	-1.119895	0.654196	0.534979
0.560	-0.590702	-1.563250	724.441365	3.684559	-4.722256	-1.136143	0.651848	0.508607
0.570	-0.657869	-1.733096	724.003849	3.487941	-4.715853	-1.155485	0.651357	0.481757
0.580	-0.655436	-1.886441	723.625302	3.288624	-4.733528	-1.176277	0.654141	0.454465
0.590	-0.580459	-2.020181	723.381467	3.087971	-4.782527	-1.196537	0.661135	0.426880
0.600	-0.449500	-2.135343	723.310566	2.888440	-4.864513	-1.214180	0.672534	0.399336
0.610	-0.295495	-2.235316	723.406913	2.693933	-4.975040	-1.227234	0.687724	0.372395
0.620	-0.158358	-2.322865	723.624921	2.509807	-5.104795	-1.234004	0.705448	0.346838
0.630	-0.072678	-2.397344	723.893449	2.342452	-5.242283	-1.233259	0.724179	0.323591
0.640	-0.057387	-2.453513	724.137286	2.198413	-5.377023	-1.224465	0.742542	0.303591
0.650	-0.111207	-2.482937	724.298749	2.083201	-5.502210	-1.208028	0.759660	0.287616
0.660	-0.214794	-2.477788	724.351647	2.000152	-5.616055	-1.185390	0.775322	0.276130
0.670	-0.337782	-2.435559	724.303514	1.949863	-5.721494	-1.158857	0.789930	0.269205
0.680	-0.447763	-2.362402	724.186998	1.930462	-5.824539	-1.131174	0.804287	0.266570
0.690	-0.518469	-2.273204	724.044911	1.938542	-5.931918	-1.104943	0.819275	0.267738
0.700	-0.535119	-2.187947	723.914930	1.970183	-6.048869	-1.082124	0.835577	0.272157
0.710	-0.495696	-2.125563	723.819366	2.021699	-6.177838	-1.063792	0.853505	0.279310
0.720	-0.408036	-2.097607	723.762491	2.090087	-6.318425	-1.050188	0.872997	0.288781
0.730	-0.284067	-2.104102	723.734305	2.173270	-6.468373	-1.040933	0.893750	0.300286
0.740	-0.133818	-2.133063	723.717616	2.270156	-6.624904	-1.035208	0.915399	0.313680
0.750	0.037982	-2.163869	723.695232	2.380471	-6.785604	-1.031820	0.937633	0.328933
0.760	0.231195	-2.173374	723.655008	2.504501	-6.948396	-1.029206	0.960181	0.346090
0.770	0.446272	-2.142631	723.592313	2.642912	-7.110726	-1.025464	0.982698	0.365249
0.780	0.679657	-2.061811	723.511501	2.796666	-7.268598	-1.018550	1.004628	0.386541
0.790	0.921479	-1.931633	723.427889	2.966752	-7.416167	-1.006713	1.025143	0.410096
0.800	1.156868	-1.761320	723.369075	3.153476	-7.546239	-0.989081	1.043207	0.435943
0.810	1.370035	-1.564550	723.372297	3.355428	-7.651501	-0.966143	1.057754	0.463859
0.820	1.548815	-1.355494	723.475756	3.568672	-7.725975	-0.939810	1.067897	0.493268
0.830	1.687477	-1.146515	723.705404	3.786735	-7.766151	-0.912924	1.073109	0.523243
0.840	1.786763	-0.947734	724.061784	4.001559	-7.771465	-0.888397	1.073315	0.552654
0.850	1.851601	-0.767425	724.512076	4.205070	-7.744080	-0.868375	1.068868	0.580400
0.860	1.887642	-0.612145	724.990814	4.390720	-7.688180	-0.853785	1.060452	0.605624
0.870	1.897944	-0.486352	725.409937	4.554564	-7.609088	-0.844365	1.048936	0.627861
0.880	1.880897	-0.392091	725.676780	4.695734	-7.512390	-0.838965	1.035225	0.647083
0.890	1.830273	-0.329135	725.717087	4.816378	-7.403065	-0.835891	1.020103	0.663672
0.900	1.737616	-0.295507	725.498006	4.921071	-7.284623	-0.833174	1.004086	0.678303
0.910	1.596188	-0.287930	725.043260	5.015701	-7.158544	-0.828858	0.987326	0.691780
0.920	1.404824	-0.301957	724.432475	5.105967	-7.024355	-0.821380	0.969636	0.704823
0.930	1.170051	-0.331796	723.782057	5.195931	-6.880520	-0.810008	0.950634	0.717886
0.940	0.905727	-0.370039	723.213793	5.287149	-6.725778	-0.795120	0.929985	0.731063
0.950	0.630607	-0.407613	722.823081	5.378704	-6.560309	-0.778109	0.907595	0.744125
0.960	0.364805	-0.434412	722.657642	5.468067	-6.386212	-0.760855	0.883712	0.756661
0.970	0.126057	-0.440886	722.711681	5.552380	-6.207225	-0.745016	0.858880	0.768270
0.980	-0.073366	-0.420389	722.934677	5.629726	-6.028070	-0.731471	0.833833	0.778732
0.990	-0.228221	-0.371474	723.250156	5.700047	-5.853849	-0.720155	0.809381	0.788116
1.000	-0.339685	-0.298965	723.577903	5.765506	-5.689634	-0.710234	0.786319	0.796805
1.010	-0.412802	-0.212888	723.852983	5.830204	-5.540029	-0.700466	0.765353	0.805440
1.020	-0.453278	-0.125157	724.037042	5.899364	-5.408534	-0.689577	0.746997	0.814788
1.030	-0.465349	-0.045038	724.120514	5.978240	-5.296785	-0.676552	0.731478	0.825586
1.040	-0.451813	0.024645	724.117027	6.071023	-5.204017	-0.660809	0.718671	0.838404
1.050	-0.415820	0.088688	724.053240	6.179910	-5.127140	-0.642235	0.708116	0.853516
1.060	-0.362949	0.157357	723.958862	6.304558	-5.061493	-0.621212	0.699141	0.870845
1.070	-0.301896	0.241957	723.860976	6.442132	-5.002072	-0.598653	0.691027	0.889968
1.080	-0.242873	0.350363	723.782893	6.588019	-4.944758	-0.575997	0.683182	0.910220
1.090	-0.194178	0.484611	723.743541	6.736899	-4.887045	-0.555010	0.675245	0.930841
1.100	-0.158832	0.641264	723.753991	6.883695	-4.828036	-0.537379	0.667082	0.951110
1.110	-0.133600	0.813634	723.812345	7.024072	-4.767822	-0.524325	0.658710	0.970427
1.120	-0.111289	0.994184	723.901644	7.154518	-4.706675	-0.516484	0.650182	0.988327
1.130	-0.084878	1.175896	723.994237	7.272185	-4.644416	-0.514102	0.641499	1.004453
1.140	-0.050894	1.352406	724.061964	7.374572	-4.580083	-0.517350	0.632554	1.018500
1.150	-0.010461	1.517470	724.087588	7.459194	-4.511821	-0.526483	0.623104	1.030151
1.160	0.031618	1.664433	724.071441	7.523459	-4.436974	-0.541726	0.612781	1.039049
1.170	0.068399	1.786183	724.029376	7.564994	-4.352393	-0.563002	0.601135	1.044846
1.180	0.092126	1.875877	723.983082	7.582300	-4.254919	-0.589694	0.587710	1.047304
1.190	0.095408	1.928478	723.948371	7.575325	-4.141892	-0.620552	0.572125	1.046390
1.200	0.072567	1.942686	723.928271	7.545650	-4.011520	-0.653745	0.554132	1.042320
1.210	0.021134	1.922362	723.914973	7.496267	-3.863027	-0.687041	0.533630	1.035518
1.220	-0.056974	1.876332	723.899391	7.431117	-3.696561	-0.718125	0.510646	1.026540
1.230	-0.155348	1.816085	723.882051	7.354573	-3.512956	-0.745087	0.485294	1.015991
1.240	-0.264655	1.752081	723.877601	7.271010	-3.313379	-0.766917	0.457726	1.004453
1.250	-0.375905	1.690479	723.909053	7.184488	-3.098803	-0.783741	0.428065	0.992457
1.260	-0.484511	1.632072	723.994509	7.098449	-2.869239	-0.796630	0.396307	0.980456
1.270	-0.593623	1.573983	724.133796	7.015264	-2.622844	-0.807132	0.362204	0.968780
1.280	-0.715245	1.513167	724.302747	6.935575	-2.355226	-0.816811	0.325172	0.957552
1.290	-0.868266	1.449821	724.459212	6.857623	-2.059487	-0.827032	0.284279	0.946585
1.300	-1.073664	1.388841	724.559420	6.776895	-1.727373	-0.838934	0.238403	0.935312
1.310	-1.348400	1.338235	724.577976	6.686448	-1.351439	-0.853411	0.186514	0.922806
1.320	-1.700325	1.304721	724.522012	6.577990	-0.927400	-0.870916	0.128002	0.907908
1.330	-2.126121	1.288239	724.431261	6.443450	-0.455630	-0.891129	0.062895	0.889449
1.340	-2.612805	1.278220	724.361102	6.276620	0.058785	-0.912753	-0.008115	0.866504
1.350	-3.141571	1.254217	724.353968	6.074368	0.607120	-0.933673	-0.083815	0.838591
1.360	-3.691909	1.191570	724.412328	5.837046	1.178319	-0.951564	-0.162659	0.805763
1.370	-4.244501	1.070051	724.488176	5.567895	1.759843	-0.964724	-0.242908	0.768528
1.380	-4.782408	0.881583	724.496585	5.271613	2.338057	-0.972809	-0.322715	0.727624
1.390	-5.291051	0.633505	724.348271	4.952710	2.898807	-0.977114	-0.400195	0.683747
1.400	-5.758052	0.346020	723.986570	4.614449	3.428834	-0.980251	-0.473605	0.637367
1.410	-6.173963	0.044955	723.413429	4.258779	3.917999	-0.985302	-0.541599	0.588706
1.420	-6.534062	-0.247159	722.695637	3.886943	4.361456	-0.994838	-0.603498	0.537840
1.430	-6.840146	-0.518155	721.951148	3.500017	4.760671	-1.010197	-0.659417	0.484800
1.440	-7.100707	-0.768870	721.321373	3.098922	5.122612	-1.031257	-0.710171	0.429617
1.450	-7.328713	-1.011022	720.937598	2.684174	5.457330	-1.056688	-0.756977	0.372317
1.460	-7.537612	-1.262102	720.889433	2.255955	5.774838	-1.084438	-0.801071	0.312941
1.470	-7.737122	-1.539616	721.202496	1.814746	6.082328	-1.112229	-0.843359	0.251628
1.480	-7.930251	-1.856304	721.831179	1.362172	6.382357	-1.137886	-0.884190	0.188711
1.490	-8.112102	-2.216987	722.669082	0.901514	6.672110	-1.159558	-0.923259	0.124748
1.500	-8.270384	-2.617220	723.574169	0.437588	6.943675	-1.175917	-0.959636	0.060476
1.510	-8.387636	-3.043805	724.400680	-0.023900	7.185369	-1.186406	-0.991905	-0.003299
1.520	-8.445553	-3.477124	725.028610	-0.477057	7.384247	-1.191456	-1.018477	-0.065798
1.530	-8.431238	-3.894820	725.384639	-0.916193	7.529586	-1.192508	-1.038013	-0.126304
1.540	-8.343885	-4.276059	725.452723	-1.335842	7.616459	-1.191718	-1.049890	-0.184139
1.550	-8.199379	-4.605380	725.274595	-1.730678	7.648053	-1.191307	-1.054504	-0.238624
1.560	-8.030356	-4.875132	724.939485	-2.095556	7.635536	-1.192695	-1.053265	-0.289066
1.570	-7.880510	-5.085771	724.562133	-2.425719	7.595083	-1.195755	-1.048231	-0.334784
1.580	-7.793814	-5.243868	724.251744	-2.717003	7.542798	-1.198588	-1.041461	-0.375146
1.590	-7.801232	-5.358513	724.080204	-2.965995	7.489171	-1.198059	-1.034301	-0.409622
1.600	-7.909015	-5.437415	724.060647	-3.170272	7.435129	-1.190964	-1.026865	-0.437846
1.610	-8.093049	-5.484350	724.144877	-3.328907	7.371282	-1.175382	-1.017929	-0.459702
1.620	-8.302463	-5.499176	724.241567	-3.443096	7.280756	-1.151683	-1.005294	-0.475407
1.630	-8.472467	-5.480522	724.249682	-3.516424	7.144607	-1.122751	-0.986484	-0.485526
1.640	-8.542710	-5.429883	724.095670	-3.554425	6.947847	-1.093240	-0.959521	-0.490878
1.650	-8.474899	-5.355100	723.761285	-3.563570	6.684082	-1.067999	-0.923520	-0.492368
1.660	-8.263482	-5.271396	723.292697	-3.550191	6.357379	-1.050255	-0.878950	-0.490837
1.670	-7.935683	-5.198989	722.788945	-3.519786	5.980976	-1.040364	-0.827486	-0.486973
1.680	-7.541269	-5.157645	722.374591	-3.476748	5.573392	-1.035735	-0.771538	-0.481294
1.690	-7.136253	-5.159911	722.165015	-3.424309	5.153136	-1.031932	-0.713568	-0.474173
1.700	-6.766539	-5.205534	722.233674	-3.364391	4.733529	-1.024446	-0.655401	-0.465831
1.710	-6.456632	-5.279317	722.590236	-3.297255	4.319070	-1.010403	-0.597720	-0.456310
1.720	-6.205875	-5.353570	723.176502	-3.221117	3.904466	-0.989584	-0.539905	-0.445412
1.730	-5.992046	-5.394914	723.882103	-3.132156	3.476795	-0.964422	-0.480299	-0.432689
1.740	-5.780495	-5.373819	724.574868	-3.025145	3.020340	-0.939050	-0.416843	-0.417506
1.750	-5.536167	-5.273956	725.135092	-2.894638	2.522587	-0.917786	-0.347878	-0.399186
1.760	-5.235213	-5.097778	725.482136	-2.736363	1.979228	-0.903646	-0.272816	-0.377179
1.770	-4.872697	-4.865649	725.586270	-2.548398	1.396230	-0.897402	-0.192428	-0.351219
1.780	-4.463909	-4.608423	725.465653	-2.331643	0.788173	-0.897457	-0.108644	-0.321400
1.790	-4.038885	-4.356339	725.173618	-2.089359	0.173564	-0.900522	-0.023934	-0.288118
1.800	-3.632220	-4.128621	724.782719	-1.825937	-0.431009	-0.902826	0.059467	-0.251929
1.810	-3.272074	-3.927741	724.370002	-1.545516	-1.015711	-0.901399	0.140220	-0.213360
1.820	-2.972523	-3.740239	724.005390	-1.251063	-1.579755	-0.894990	0.218197	-0.172798
1.830	-2.731735	-3.543279	723.743777	-0.944158	-2.130794	-0.884289	0.294413	-0.130455
1.840	-2.535365	-3.313890	723.620936	-0.625239	-2.682212	-0.871509	0.370665	-0.086404
1.850	-2.362044	-3.037112	723.652485	-0.293960	-3.249680	-0.859647	0.449066	-0.040622
1.860	-2.187575	-2.710205	723.834061	0.050463	-3.848093	-0.851800	0.531626	0.006972
1.870	-1.986557	-2.342044	724.141321	0.408638	-4.489254	-0.850700	0.619942	0.056431
1.880	-1.732871	-1.948816	724.530473	0.779903	-5.180106	-0.858373	0.714960	0.107643
1.890	-1.401476	-1.548509	724.941570	1.161074	-5.921344	-0.875716	0.816803	0.160161
1.900	-0.972713	-1.156726	725.306198	1.545772	-6.706599	-0.901985	0.924658	0.213120
1.910	-0.438068	-0.785288	725.559103	1.924982	-7.522682	-0.934479	1.036812	0.265310
1.920	0.195164	-0.443443	725.651371	2.288817	-8.351239	-0.968763	1.150861	0.315415
1.930	0.902935	-0.140101	725.562010	2.628776	-9.171738	-0.999602	1.264087	0.362309
1.940	1.648533	0.115147	725.304920	2.939556	-9.965188	-1.022332	1.373931	0.405285
1.950	2.390789	0.313661	724.929197	3.219821	-10.717622	-1.034134	1.478437	0.444157
1.960	3.093648	0.451533	724.512113	3.471873	-11.422289	-1.034701	1.576549	0.479202
1.970	3.733827	0.533146	724.145262	3.700486	-12.079877	-1.026036	1.668157	0.511014
1.980	4.304057	0.571932	723.914952	3.911278	-12.696707	-1.011499	1.753895	0.540295
1.990	4.810981	0.587292	723.879244	4.109037	-13.281507	-0.994496	1.834768	0.567641
2.000	5.268710	0.598909	724.047052	4.296514	-13.841830	-0.977399	1.911731	0.593403
2.010	5.690791	0.621184	724.367543	4.474039	-14.381173	-0.961121	1.985342	0.617648
2.020	6.083857	0.660308	724.737231	4.639909	-14.897630	-0.945449	2.055590	0.640220
2.030	6.445181	0.714751	725.025987	4.791100	-15.384340	-0.929817	2.121902	0.660818
2.040	6.764447	0.777965	725.114403	4.923817	-15.831448	-0.914028	2.183304	0.679040
2.050	7.028375	0.841339	724.928884	5.033754	-16.228784	-0.898577	2.238673	0.694379
2.060	7.225816	0.896234	724.461687	5.116345	-16.568310	-0.884533	2.286982	0.706227
2.070	7.350971	0.935140	723.770652	5.167408	-16.845548	-0.873181	2.327470	0.713956
2.080	7.403657	0.952383	722.962377	5.184238	-17.059650	-0.865640	2.359687	0.717083
2.090	7.387461	0.944520	722.167025	5.166757	-17.212414	-0.862572	2.383439	0.715452
2.100	7.307871	0.910328	721.511925	5.118058	-17.306907	-0.864006	2.398700	0.709352
2.110	7.172073	0.850506	721.098244	5.043954	-17.346489	-0.869299	2.405565	0.699482
2.120	6.990325	0.767454	720.983527	4.951613	-17.334721	-0.877265	2.404316	0.686786
2.130	6.777286	0.665243	721.172898	4.847768	-17.276160	-0.886447	2.395564	0.672206
2.140	6.551649	0.549435	721.621015	4.737228	-17.177402	-0.895423	2.380391	0.656470
2.150	6.333513	0.426304	722.244358	4.622271	-17.047466	-0.903035	2.360346	0.639987
2.160	6.140121	0.301584	722.940072	4.503149	-16.896938	-0.908502	2.337253	0.622894
2.170	5.981350	0.179362	723.605692	4.379405	-16.735953	-0.911465	2.312855	0.605220
2.180	5.856652	0.061690	724.155122	4.251350	-16.571725	-0.912035	2.288422	0.587077
2.190	5.754725	-0.050931	724.529044	4.120994	-16.406501	-0.910881	2.264437	0.568782
2.200	5.656203	-0.158498	724.700283	3.991972	-16.236743	-0.909300	2.240477	0.550845
2.210	5.538691	-0.260479	724.675057	3.868529	-16.053979	-0.909107	2.215335	0.533829
2.220	5.382755	-0.355452	724.490299	3.754096	-15.847190	-0.912228	2.187357	0.518171
2.230	5.177202	-0.441667	724.206778	3.650173	-15.606010	-0.920084	2.154911	0.504024
2.240	4.922040	-0.518287	723.898437	3.556073	-15.323683	-0.932993	2.116828	0.491239
2.250	4.628146	-0.586479	723.639206	3.469612	-14.998809	-0.949926	2.072692	0.479467
2.260	4.313791	-0.649533	723.488883	3.388294	-14.635420	-0.968739	2.022895	0.468327
2.270	3.999222	-0.711778	723.480124	3.310310	-14.241547	-0.986794	1.968478	0.457554
2.280	3.701137	-0.776868	723.609894	3.234830	-13.826887	-1.001717	1.910821	0.447041
2.290	3.428714	-0.846303	723.839584	3.161630	-13.400408	-1.012014	1.851295	0.436786
2.300	3.182149	-0.918786	724.106064	3.090547	-12.968577	-1.017393	1.790978	0.426809
2.310	2.953766	-0.990677	724.341368	3.021180	-12.534536	-1.018687	1.730474	0.417093
2.320	2.730922	-1.057529	724.494292	2.952960	-12.098156	-1.017441	1.669876	0.407589
2.330	2.499471	-1.116299	724.545540	2.885435	-11.656634	-1.015269	1.608820	0.398241
2.340	2.246634	-1.167405	724.510190	2.818639	-11.205379	-1.013206	1.546614	0.389041
2.350	1.962799	-1.215524	724.426596	2.753499	-10.739043	-1.011306	1.482420	0.380094
2.360	1.642359	-1.268354	724.336899	2.692103	-10.252612	-1.008650	1.415448	0.371665
2.370	1.283830	-1.333474	724.268222	2.637553	-9.742409	-1.003769	1.345138	0.364168
2.380	0.889450	-1.414535	724.223398	2.593273	-9.206849	-0.995236	1.271272	0.358076
