Time[s]	Fx[N]	Fy[N]	Fz[N]	Mx[Nm]	My[Nm]	Mz[Nm]	COPx[cm]	COPy[cm]
0.010	-0.513183	-1.583473	601.868584	-15.858859	-4.043132	-1.921757	0.671763	-2.634937
0.020	-0.606057	-1.641630	601.722830	-15.893833	-3.911969	-1.928219	0.650128	-2.641388
0.030	-0.695700	-1.684397	601.553395	-15.925181	-3.779463	-1.932611	0.628284	-2.647343
0.040	-0.780896	-1.702881	601.348109	-15.949842	-3.644386	-1.933182	0.606036	-2.652348
0.050	-0.862907	-1.698168	601.115520	-15.965990	-3.505729	-1.928680	0.583204	-2.656060
0.060	-0.944752	-1.679814	600.883943	-15.973754	-3.362819	-1.918645	0.559645	-2.658376
0.070	-1.029746	-1.660831	600.691702	-15.975540	-3.215356	-1.903587	0.535276	-2.659524
0.080	-1.120047	-1.651877	600.571992	-15.975479	-3.063338	-1.884920	0.510070	-2.660044
0.090	-1.215566	-1.657184	600.539566	-15.977967	-2.906944	-1.864670	0.484055	-2.660602
0.100	-1.313269	-1.673606	600.587164	-15.985841	-2.746472	-1.845079	0.457298	-2.661702
0.110	-1.407105	-1.692784	600.694347	-15.999046	-2.582461	-1.828204	0.429913	-2.663425
0.120	-1.489060	-1.705265	600.842486	-16.014495	-2.415981	-1.815551	0.402099	-2.665340
0.130	-1.551461	-1.704618	601.025116	-16.027369	-2.248887	-1.807767	0.374175	-2.666672
0.140	-1.589824	-1.689531	601.247399	-16.033344	-2.083721	-1.804500	0.346566	-2.666680
0.150	-1.604906	-1.663031	601.517310	-16.030657	-1.923149	-1.804562	0.319716	-2.665037
0.160	-1.602826	-1.629846	601.836227	-16.020969	-1.769112	-1.806391	0.293952	-2.662015
0.170	-1.592999	-1.593950	602.195224	-16.008651	-1.622140	-1.808646	0.269371	-2.658382
0.180	-1.584696	-1.557658	602.578625	-15.998963	-1.481199	-1.810649	0.245810	-2.655083
0.190	-1.583738	-1.522219	602.971826	-15.995917	-1.344093	-1.812520	0.222911	-2.652846
0.200	-1.591004	-1.488960	603.368002	-16.000626	-1.208193	-1.815004	0.200241	-2.651885
0.210	-1.603624	-1.459994	603.769344	-16.010752	-1.071107	-1.819093	0.177403	-2.651799
0.220	-1.618138	-1.438035	604.182106	-16.021327	-0.931113	-1.825560	0.154111	-2.651738
0.230	-1.633395	-1.425548	604.608076	-16.026610	-0.787364	-1.834602	0.130227	-2.650744
0.240	-1.650967	-1.423914	605.036249	-16.022086	-0.639998	-1.845730	0.105778	-2.648120
0.250	-1.672572	-1.433103	605.437898	-16.005718	-0.490191	-1.857961	0.080965	-2.643660
0.260	-1.696407	-1.451778	605.767580	-15.978061	-0.340066	-1.870166	0.056138	-2.637655
0.270	-1.715488	-1.477514	605.971762	-15.941346	-0.192325	-1.881365	0.031738	-2.630708
0.280	-1.720061	-1.507118	606.004089	-15.898030	-0.049607	-1.890883	0.008186	-2.623420
0.290	-1.703361	-1.537251	605.842217	-15.849521	0.086332	-1.898416	-0.014250	-2.616114
0.300	-1.667416	-1.565082	605.498510	-15.795686	0.215320	-1.904118	-0.035561	-2.608708
0.310	-1.625042	-1.588327	605.018713	-15.735323	0.339110	-1.908654	-0.056050	-2.600799
0.320	-1.596317	-1.604366	604.468744	-15.667164	0.461186	-1.913088	-0.076296	-2.591890
0.330	-1.600998	-1.608972	603.915962	-15.590756	0.586060	-1.918498	-0.097043	-2.581610
0.340	-1.650544	-1.595540	603.413152	-15.506718	0.718196	-1.925471	-0.119022	-2.569834
0.350	-1.743493	-1.555460	602.990112	-15.416425	0.860768	-1.933755	-0.142750	-2.556663
0.360	-1.866254	-1.479813	602.653335	-15.321469	1.014640	-1.942317	-0.168362	-2.542335
0.370	-1.998914	-1.362203	602.391994	-15.223218	1.177913	-1.949751	-0.195539	-2.527128
0.380	-2.123326	-1.202041	602.187353	-15.122559	1.346322	-1.954803	-0.223572	-2.511271
0.390	-2.229802	-1.006818	602.021831	-15.019823	1.514419	-1.956762	-0.251556	-2.494897
0.400	-2.319520	-0.791776	601.884602	-14.914884	1.677187	-1.955606	-0.278656	-2.478031
0.410	-2.402103	-0.576452	601.773245	-14.807479	1.831557	-1.951923	-0.304360	-2.460641
0.420	-2.490128	-0.379343	601.693084	-14.697700	1.977337	-1.946684	-0.328629	-2.442724
0.430	-2.593515	-0.212998	601.655633	-14.586504	2.117234	-1.940984	-0.351901	-2.424394
0.440	-2.716082	-0.081550	601.676343	-14.476003	2.255984	-1.935821	-0.374950	-2.405945
0.450	-2.854879	0.018588	601.771671	-14.369346	2.398888	-1.931964	-0.398638	-2.387840
0.460	-3.001657	0.095548	601.955858	-14.270117	2.550267	-1.929880	-0.423663	-2.370625
0.470	-3.145630	0.158001	602.237559	-14.181397	2.712281	-1.929690	-0.450367	-2.354785
0.480	-3.276907	0.212116	602.615940	-14.104834	2.884417	-1.931146	-0.478649	-2.340601
0.490	-3.389697	0.260442	603.076184	-14.040073	3.063719	-1.933697	-0.508015	-2.328076
0.500	-3.484165	0.302544	603.585636	-13.984722	3.245630	-1.936719	-0.537725	-2.316941
0.510	-3.566091	0.336513	604.093128	-13.934769	3.425116	-1.939848	-0.566985	-2.306725
0.520	-3.644469	0.360388	604.533845	-13.885286	3.597648	-1.943247	-0.595111	-2.296858
0.530	-3.728138	0.372945	604.839780	-13.831392	3.759792	-1.947610	-0.621618	-2.286786
0.540	-3.823006	0.373727	604.953005	-13.769438	3.909457	-1.953878	-0.646241	-2.276117
0.550	-3.931090	0.362691	604.837666	-13.698120	4.045998	-1.962811	-0.668939	-2.264760
0.560	-4.051414	0.339980	604.487288	-13.618842	4.170277	-1.974645	-0.689887	-2.252958
0.570	-4.181804	0.306240	603.925525	-13.534901	4.284550	-1.988920	-0.709450	-2.241154
0.580	-4.320416	0.263511	603.200296	-13.449856	4.391998	-2.004533	-0.728116	-2.229750
0.590	-4.466319	0.216320	602.373345	-13.366145	4.495872	-2.019986	-0.746360	-2.218914
0.600	-4.619129	0.172148	601.509073	-13.284888	4.598506	-2.033743	-0.764495	-2.208593
0.610	-4.778179	0.140380	600.666714	-13.206771	4.700556	-2.044602	-0.782556	-2.198685
0.620	-4.941845	0.129476	599.898033	-13.133081	4.800808	-2.052002	-0.800271	-2.189219
0.630	-5.107276	0.143358	599.249626	-13.065898	4.896605	-2.056245	-0.817123	-2.180376
0.640	-5.270358	0.178882	598.766128	-13.007294	4.984644	-2.058531	-0.832486	-2.172350
0.650	-5.425580	0.225997	598.489965	-12.958207	5.061787	-2.060698	-0.845760	-2.165150
0.660	-5.565839	0.270832	598.455456	-12.917761	5.125652	-2.064708	-0.856480	-2.158517
0.670	-5.682650	0.300437	598.678985	-12.883390	5.174996	-2.072066	-0.864402	-2.151970
0.680	-5.767147	0.307176	599.149683	-12.851596	5.209886	-2.083459	-0.869547	-2.144972
0.690	-5.811776	0.290948	599.825148	-12.818890	5.231631	-2.098672	-0.872193	-2.137104
0.700	-5.811976	0.258397	600.634731	-12.782548	5.242401	-2.116753	-0.872810	-2.128173
0.710	-5.767206	0.219572	601.490054	-12.741002	5.244522	-2.136298	-0.871922	-2.118240
0.720	-5.681158	0.183638	602.299811	-12.693924	5.239567	-2.155804	-0.869927	-2.107576
0.730	-5.561460	0.155543	602.984390	-12.642131	5.227477	-2.174093	-0.866934	-2.096593
0.740	-5.419089	0.134925	603.486690	-12.587337	5.206113	-2.190688	-0.862672	-2.085769
0.750	-5.267241	0.117337	603.777915	-12.531699	5.171609	-2.205980	-0.856542	-2.075548
0.760	-5.119241	0.096843	603.858842	-12.477181	5.119577	-2.221023	-0.847810	-2.066241
0.770	-4.985666	0.068600	603.756373	-12.424919	5.046746	-2.236981	-0.835891	-2.057936
0.780	-4.871788	0.030406	603.514319	-12.374889	4.952332	-2.254487	-0.820582	-2.050471
0.790	-4.776677	-0.017005	603.179701	-12.326088	4.838553	-2.273240	-0.802174	-2.043518
0.800	-4.694400	-0.070391	602.790087	-12.277128	4.710111	-2.292025	-0.781385	-2.036717
0.810	-4.616636	-0.124617	602.368387	-12.226820	4.572830	-2.309158	-0.759142	-2.029791
0.820	-4.535455	-0.173335	601.927036	-12.174307	4.431920	-2.323159	-0.736289	-2.022555
0.830	-4.445306	-0.209878	601.477872	-12.118685	4.290404	-2.333353	-0.713310	-2.014818
0.840	-4.343875	-0.228405	601.041683	-12.058564	4.148287	-2.340150	-0.690183	-2.006277
0.850	-4.231909	-0.225216	600.652803	-11.992094	4.002867	-2.344876	-0.666419	-1.996510
0.860	-4.112254	-0.199950	600.356842	-11.917648	3.850180	-2.349180	-0.641315	-1.985094
0.870	-3.988413	-0.156110	600.202091	-11.834767	3.686980	-2.354245	-0.614290	-1.971797
0.880	-3.863016	-0.100273	600.226943	-11.744759	3.512250	-2.360134	-0.585154	-1.956720
0.890	-3.736633	-0.039945	600.447058	-11.650509	3.327467	-2.365609	-0.554165	-1.940306
0.900	-3.607289	0.018921	600.846742	-11.555582	3.135563	-2.368556	-0.521857	-1.923216
0.910	-3.470809	0.073367	601.378517	-11.463088	2.939339	-2.366892	-0.488767	-1.906135
0.920	-3.321998	0.123133	601.972461	-11.374870	2.740254	-2.359567	-0.455212	-1.889600
0.930	-3.156380	0.169215	602.552843	-11.291289	2.538117	-2.347226	-0.421227	-1.873909
0.940	-2.972034	0.212524	603.055806	-11.211522	2.331624	-2.332132	-0.386635	-1.859119
0.950	-2.771033	0.253604	603.441397	-11.134081	2.119270	-2.317328	-0.351197	-1.845097
0.960	-2.560161	0.293352	603.696822	-11.057272	1.900239	-2.305360	-0.314767	-1.831594
0.970	-2.350429	0.333728	603.832210	-10.979475	1.674948	-2.297224	-0.277386	-1.818299
0.980	-2.154934	0.377419	603.872132	-10.899255	1.445088	-2.292039	-0.239304	-1.804894
0.990	-1.985315	0.426470	603.845932	-10.815498	1.213150	-2.287495	-0.200904	-1.791102
1.000	-1.848213	0.480869	603.779240	-10.727727	0.981686	-2.280742	-0.162590	-1.776763
1.010	-1.743528	0.538121	603.688275	-10.636435	0.752702	-2.269283	-0.124684	-1.761908
1.020	-1.665313	0.594003	603.577724	-10.543119	0.527494	-2.251623	-0.087395	-1.746771
1.030	-1.604512	0.644036	603.442747	-10.449844	0.306880	-2.227612	-0.050855	-1.731704
1.040	-1.551979	0.685060	603.275358	-10.358611	0.091549	-2.198509	-0.015175	-1.717062
1.050	-1.500644	0.716470	603.073244	-10.270917	-0.117742	-2.166772	0.019524	-1.703096
1.060	-1.446718	0.740679	602.845930	-10.187658	-0.320205	-2.135537	0.053116	-1.689927
1.070	-1.390254	0.762457	602.613392	-10.109163	-0.515150	-2.107819	0.085486	-1.677554
1.080	-1.335024	0.787106	602.397649	-10.035185	-0.702078	-2.085644	0.116547	-1.665874
1.090	-1.287277	0.818017	602.213735	-9.964924	-0.880716	-2.069432	0.146246	-1.654716
1.100	-1.253312	0.854713	602.066469	-9.897290	-1.051057	-2.057919	0.174575	-1.643887
1.110	-1.236597	0.892458	601.953517	-9.831413	-1.213398	-2.048647	0.201577	-1.633251
1.120	-1.235626	0.923754	601.870035	-9.767171	-1.368313	-2.038819	0.227344	-1.622804
1.130	-1.243491	0.941000	601.811219	-9.705470	-1.516538	-2.026184	0.251996	-1.612710
1.140	-1.249566	0.939092	601.773944	-9.648081	-1.658860	-2.009610	0.275662	-1.603273
1.150	-1.242795	0.916987	601.760202	-9.597031	-1.796072	-1.989213	0.298470	-1.594827
1.160	-1.215347	0.877844	601.781319	-9.553716	-1.928993	-1.966120	0.320547	-1.587573
1.170	-1.165041	0.827902	601.858621	-9.518109	-2.058460	-1.942076	0.342017	-1.581453
1.180	-1.095436	0.774610	602.017829	-9.488489	-2.185184	-1.919024	0.362977	-1.576114
1.190	-1.013650	0.724723	602.278867	-9.461948	-2.309475	-1.898684	0.383456	-1.571024
1.200	-0.927115	0.682956	602.645841	-9.435499	-2.430935	-1.882133	0.403377	-1.565679
1.210	-0.841091	0.651438	603.102067	-9.407287	-2.548323	-1.869519	0.422536	-1.559817
1.220	-0.758311	0.629903	603.612295	-9.377342	-2.659733	-1.860047	0.440636	-1.553537
1.230	-0.680758	0.616344	604.130455	-9.347508	-2.763072	-1.852344	0.457363	-1.547266
1.240	-0.612119	0.607919	604.608582	-9.320491	-2.856709	-1.845077	0.472489	-1.541574
1.250	-0.558833	0.601900	605.003397	-9.298379	-2.940102	-1.837545	0.485965	-1.536913
1.260	-0.528586	0.596537	605.280384	-9.281275	-3.014195	-1.829962	0.497983	-1.533384
1.270	-0.526944	0.591557	605.417673	-9.266774	-3.081386	-1.823261	0.508969	-1.530642
1.280	-0.554295	0.588068	605.410748	-9.250581	-3.144947	-1.818588	0.519473	-1.527984
1.290	-0.605083	0.587902	605.275588	-9.227974	-3.208027	-1.816775	0.530011	-1.524590
1.300	-0.669871	0.592776	605.046327	-9.195444	-3.272615	-1.818074	0.540887	-1.519792
1.310	-0.739058	0.603726	604.765917	-9.151846	-3.338896	-1.822208	0.552097	-1.513287
1.320	-0.806208	0.621043	604.472641	-9.098701	-3.405332	-1.828595	0.563356	-1.505230
1.330	-0.869383	0.644595	604.188526	-9.039607	-3.469519	-1.836556	0.574244	-1.496157
1.340	-0.930138	0.674166	603.915530	-8.979040	-3.529422	-1.845425	0.584423	-1.486804
1.350	-0.991135	0.709485	603.641685	-8.921033	-3.584323	-1.854595	0.593783	-1.477869
1.360	-1.053818	0.749955	603.354075	-8.868150	-3.634938	-1.863599	0.602455	-1.469809
1.370	-1.117316	0.794420	603.051445	-8.820932	-3.682744	-1.872234	0.610685	-1.462716
1.380	-1.178832	0.841424	602.749175	-8.777782	-3.729086	-1.880651	0.618680	-1.456291
1.390	-1.234939	0.890013	602.473801	-8.735242	-3.774686	-1.889318	0.626531	-1.449896
1.400	-1.282862	0.940539	602.250546	-8.688708	-3.819711	-1.898929	0.634240	-1.442707
1.410	-1.321062	0.994692	602.090900	-8.633546	-3.864241	-1.910293	0.641804	-1.433927
1.420	-1.348940	1.054497	601.986381	-8.566462	-3.908776	-1.924180	0.649313	-1.423033
1.430	-1.365999	1.120853	601.911161	-8.486790	-3.954514	-1.941027	0.656993	-1.409974
1.440	-1.371272	1.192563	601.832522	-8.397237	-4.003177	-1.960561	0.665165	-1.395278
1.450	-1.363835	1.266553	601.725032	-8.303634	-4.056351	-1.981542	0.674120	-1.379971
1.460	-1.344360	1.339167	601.582215	-8.213456	-4.114635	-2.001872	0.683969	-1.365309
1.470	-1.316790	1.407819	601.419935	-8.133402	-4.177122	-2.019166	0.694543	-1.352367
1.480	-1.288849	1.472008	601.269430	-8.066864	-4.241654	-2.031598	0.705450	-1.341639
1.490	-1.270659	1.533072	601.163607	-8.012419	-4.305833	-2.038656	0.716250	-1.332818
1.500	-1.271692	1.592792	601.123854	-7.964142	-4.368264	-2.041409	0.726683	-1.324875
1.510	-1.297177	1.651678	601.153655	-7.913768	-4.429264	-2.042138	0.736794	-1.316430
1.520	-1.345491	1.708017	601.240486	-7.853884	-4.490647	-2.043446	0.746897	-1.306280
1.530	-1.407731	1.758320	601.362748	-7.780862	-4.554782	-2.047267	0.757410	-1.293872
1.540	-1.469828	1.799075	601.497092	-7.696279	-4.623610	-2.054217	0.768684	-1.279521
1.550	-1.516337	1.828961	601.623341	-7.606155	-4.698233	-2.063573	0.780926	-1.264272
1.560	-1.534273	1.850277	601.727127	-7.518309	-4.779160	-2.073851	0.794240	-1.249455
1.570	-1.515709	1.868416	601.801609	-7.439079	-4.866801	-2.083590	0.808705	-1.236135
1.580	-1.458669	1.889319	601.848696	-7.370987	-4.961711	-2.091887	0.824412	-1.224724
1.590	-1.366626	1.916432	601.878824	-7.312327	-5.064379	-2.098431	0.841428	-1.214917
1.600	-1.247207	1.949349	601.908624	-7.258651	-5.174724	-2.103134	0.859719	-1.205939
1.610	-1.110775	1.985215	601.957410	-7.205205	-5.291657	-2.105727	0.879075	-1.196963
1.620	-0.969118	2.021804	602.043875	-7.149025	-5.413017	-2.105644	0.899107	-1.187459
1.630	-0.833901	2.059875	602.183305	-7.089754	-5.535991	-2.102268	0.919320	-1.177342
1.640	-0.714616	2.102899	602.384820	-7.029087	-5.657871	-2.095327	0.939245	-1.166877
1.650	-0.616580	2.154019	602.648562	-6.969531	-5.776825	-2.085191	0.958573	-1.156484
1.660	-0.540051	2.212158	602.963648	-6.913383	-5.892301	-2.072915	0.977223	-1.146567
1.670	-0.481004	2.270091	603.308305	-6.862390	-6.004876	-2.060045	0.995325	-1.137460
1.680	-0.433048	2.316219	603.653256	-6.817938	-6.115675	-2.048241	1.013111	-1.129446
1.690	-0.389481	2.339385	603.967933	-6.781307	-6.225771	-2.038808	1.030811	-1.122793
1.700	-0.344701	2.334006	604.226998	-6.753657	-6.335879	-2.032273	1.048592	-1.117735
1.710	-0.294833	2.302621	604.414266	-6.735695	-6.446440	-2.028216	1.066560	-1.114417
1.720	-0.237963	2.254501	604.523097	-6.727194	-6.557859	-2.025448	1.084799	-1.112810
1.730	-0.174532	2.201206	604.554749	-6.726639	-6.670663	-2.022494	1.103401	-1.112660
1.740	-0.107967	2.151564	604.516411	-6.731374	-6.785468	-2.018144	1.122462	-1.113514
1.750	-0.044853	2.108625	604.419575	-6.738408	-6.902764	-2.011822	1.142048	-1.114856
1.760	0.006361	2.069772	604.278994	-6.745629	-7.022622	-2.003657	1.162149	-1.116310
1.770	0.038279	2.029293	604.112940	-6.752845	-7.144452	-1.994296	1.182635	-1.117812
1.780	0.047799	1.981677	603.944624	-6.762040	-7.266986	-1.984637	1.203254	-1.119646
1.790	0.037655	1.924147	603.802094	-6.776640	-7.388615	-1.975626	1.223682	-1.122328
1.800	0.015251	1.857884	603.712869	-6.800101	-7.507951	-1.968146	1.243629	-1.126380
1.810	-0.010440	1.787940	603.692952	-6.834432	-7.624312	-1.962935	1.262945	-1.132104
1.820	-0.032069	1.721992	603.735707	-6.879234	-7.737787	-1.960451	1.281651	-1.139445
1.830	-0.045727	1.668205	603.808540	-6.931618	-7.848828	-1.960651	1.299887	-1.147983
1.840	-0.051048	1.632754	603.861287	-6.986971	-7.957640	-1.962783	1.317793	-1.157049
1.850	-0.050145	1.617727	603.843150	-7.040243	-8.063819	-1.965420	1.335416	-1.165906
1.860	-0.046262	1.620104	603.720303	-7.087289	-8.166507	-1.966856	1.352697	-1.173936
1.870	-0.042751	1.632399	603.486554	-7.125913	-8.264935	-1.965780	1.369531	-1.180791
1.880	-0.042517	1.644903	603.162982	-7.156420	-8.358869	-1.961879	1.385839	-1.186482
1.890	-0.047805	1.648602	602.786964	-7.181563	-8.448553	-1.956072	1.401582	-1.191393
1.900	-0.060121	1.637459	602.395239	-7.205728	-8.534181	-1.950249	1.416708	-1.196179
1.910	-0.080145	1.609224	602.008571	-7.233451	-8.615377	-1.946669	1.431105	-1.201553
1.920	-0.107439	1.564948	601.625094	-7.267761	-8.691127	-1.947290	1.444608	-1.208022
1.930	-0.139890	1.507914	601.225017	-7.309087	-8.760265	-1.953229	1.457069	-1.215699
1.940	-0.173087	1.442697	600.783772	-7.355249	-8.822229	-1.964445	1.468453	-1.224276
1.950	-0.200145	1.374701	600.287668	-7.402538	-8.877612	-1.979663	1.478893	-1.233165
1.960	-0.212415	1.309999	599.746218	-7.447392	-8.928115	-1.996586	1.488649	-1.241757
1.970	-0.201074	1.254907	599.197112	-7.487956	-8.975898	-2.012410	1.497988	-1.249665
1.980	-0.159129	1.214849	598.702309	-7.524849	-9.022686	-2.024592	1.507040	-1.256860
1.990	-0.083055	1.192775	598.336628	-7.560824	-9.069171	-2.031589	1.515730	-1.263641
2.000	0.026594	1.188149	598.172078	-7.599569	-9.114977	-2.033311	1.523805	-1.270465
2.010	0.165751	1.197370	598.261323	-7.644337	-9.159033	-2.031097	1.530942	-1.277759
2.020	0.328095	1.215572	598.622978	-7.697033	-9.199911	-2.027209	1.536846	-1.285790
2.030	0.506168	1.238683	599.231656	-7.757978	-9.235917	-2.023974	1.541293	-1.294654
2.040	0.691986	1.264573	600.016813	-7.826205	-9.265053	-2.022902	1.544132	-1.304331
2.050	0.877487	1.292921	600.874076	-7.899969	-9.285254	-2.024133	1.545291	-1.314746
2.060	1.055166	1.324268	601.688402	-7.977311	-9.294946	-2.026432	1.544811	-1.325821
2.070	1.218680	1.358783	602.362052	-8.056630	-9.293616	-2.027723	1.542862	-1.337506
2.080	1.362878	1.394973	602.836957	-8.137191	-9.281961	-2.025902	1.539713	-1.349816
2.090	1.483188	1.428593	603.103370	-8.219351	-9.261492	-2.019653	1.535639	-1.362843
2.100	1.574964	1.452455	603.192751	-8.304354	-9.233806	-2.008953	1.530822	-1.376733
2.110	1.633416	1.457798	603.158869	-8.393798	-9.199848	-1.995086	1.525278	-1.391640
2.120	1.654218	1.437034	603.054678	-8.489086	-9.159486	-1.980127	1.518848	-1.407681
2.130	1.634192	1.386714	602.913051	-8.591197	-9.111539	-1.966105	1.511253	-1.424948
2.140	1.571575	1.309095	602.738077	-8.700888	-9.054220	-1.954191	1.502181	-1.443560
2.150	1.466009	1.211408	602.510381	-8.819162	-8.985751	-1.944245	1.491385	-1.463736
2.160	1.318938	1.103259	602.204397	-8.947556	-8.904894	-1.934901	1.478716	-1.485801
2.170	1.134682	0.993429	601.809357	-9.087863	-8.811214	-1.924125	1.464120	-1.510090
2.180	0.921448	0.887256	601.343209	-9.241326	-8.705132	-1.910026	1.447615	-1.536781
2.190	0.691074	0.785305	600.852442	-9.407842	-8.587902	-1.891623	1.429286	-1.565749
2.200	0.457104	0.683661	600.398403	-9.585752	-8.461520	-1.869294	1.409318	-1.596565
2.210	0.231970	0.575802	600.037484	-9.772373	-8.328577	-1.844742	1.388009	-1.628627
2.220	0.024608	0.455276	599.804982	-9.964949	-8.192023	-1.820469	1.365781	-1.661365
2.230	-0.160619	0.317955	599.709724	-10.161411	-8.054915	-1.798923	1.343136	-1.694388
2.240	-0.323654	0.163029	599.740357	-10.360448	-7.920140	-1.781615	1.320595	-1.727489
2.250	-0.467659	-0.007200	599.878414	-10.560853	-7.790150	-1.768560	1.298621	-1.760499
2.260	-0.597553	-0.188086	600.110804	-10.760594	-7.666721	-1.758286	1.277551	-1.793101
2.270	-0.718376	-0.373516	600.435600	-10.956356	-7.550808	-1.748475	1.257555	-1.824735
2.280	-0.833570	-0.556949	600.858799	-11.143985	-7.442554	-1.736976	1.238653	-1.854676
2.290	-0.943564	-0.732728	601.384573	-11.319710	-7.341571	-1.722756	1.220778	-1.882275
2.300	-1.045185	-0.897249	602.004728	-11.481549	-7.247406	-1.706360	1.203879	-1.907219
2.310	-1.132289	-1.049305	602.692866	-11.630220	-7.159940	-1.689756	1.187992	-1.929709
2.320	-1.197567	-1.189374	603.405588	-11.769047	-7.079461	-1.675673	1.173251	-1.950437
