Time[s]	Fx[N]	Fy[N]	Fz[N]	Mx[Nm]	My[Nm]	Mz[Nm]	COPx[cm]	COPy[cm]
0.010	3.220726	-1.046783	597.152956	-1.516711	14.986712	-0.174497	-2.509694	-0.253990
0.020	3.141035	-0.904500	597.123543	-1.491199	15.013625	-0.164528	-2.514325	-0.249730
0.030	3.074300	-0.788942	597.120985	-1.462477	15.039345	-0.155602	-2.518643	-0.244921
0.040	3.029062	-0.717553	597.160884	-1.428410	15.063127	-0.148393	-2.522457	-0.239200
0.050	3.006946	-0.692703	597.241137	-1.388553	15.084930	-0.142980	-2.525769	-0.232495
0.060	3.002693	-0.702711	597.341023	-1.344357	15.105151	-0.138985	-2.528732	-0.225057
0.070	3.006526	-0.728058	597.427148	-1.298684	15.124209	-0.135934	-2.531557	-0.217380
0.080	3.007757	-0.749316	597.465101	-1.254785	15.142380	-0.133618	-2.534437	-0.210018
0.090	2.998195	-0.753161	597.433615	-1.215160	15.159972	-0.132261	-2.537516	-0.203397
0.100	2.974204	-0.734681	597.336213	-1.180804	15.177642	-0.132414	-2.540888	-0.197678
0.110	2.936902	-0.696364	597.204867	-1.151077	15.196518	-0.134644	-2.544607	-0.192744
0.120	2.890828	-0.645222	597.092429	-1.124134	15.217902	-0.139156	-2.548668	-0.188268
0.130	2.841986	-0.589442	597.055339	-1.097661	15.242638	-0.145514	-2.552969	-0.183846
0.140	2.796141	-0.535565	597.132926	-1.069563	15.270462	-0.152610	-2.557297	-0.179116
0.150	2.757820	-0.486926	597.331564	-1.038409	15.299720	-0.158969	-2.561345	-0.173841
0.160	2.729845	-0.443573	597.620123	-1.003635	15.327630	-0.163275	-2.564778	-0.167939
0.170	2.713129	-0.403262	597.938642	-0.965612	15.351030	-0.164863	-2.567325	-0.161490
0.180	2.706724	-0.362907	598.216706	-0.925485	15.367285	-0.163902	-2.568849	-0.154707
0.190	2.708310	-0.320101	598.394106	-0.884728	15.374964	-0.161166	-2.569371	-0.147850
0.200	2.715144	-0.274414	598.436136	-0.844567	15.374010	-0.157563	-2.569031	-0.141129
0.210	2.724994	-0.227932	598.339243	-0.805756	15.365406	-0.153683	-2.568009	-0.134665
0.220	2.736439	-0.184516	598.127100	-0.768997	15.350669	-0.149602	-2.566456	-0.128567
0.230	2.748298	-0.147971	597.840223	-0.735717	15.331513	-0.145022	-2.564483	-0.123063
0.240	2.758689	-0.120145	597.523399	-0.708470	15.309865	-0.139661	-2.562220	-0.118568
0.250	2.764632	-0.100204	597.215275	-0.690463	15.288085	-0.133647	-2.559895	-0.115614
0.260	2.762840	-0.085597	596.943451	-0.684436	15.269038	-0.127674	-2.557870	-0.114657
0.270	2.751530	-0.073996	596.725761	-0.691512	15.255771	-0.122802	-2.556580	-0.115884
0.280	2.732237	-0.064881	596.575113	-0.710557	15.250770	-0.120027	-2.556387	-0.119106
0.290	2.710290	-0.059819	596.503575	-0.738194	15.255088	-0.119916	-2.557418	-0.123753
0.300	2.693214	-0.061522	596.522450	-0.769427	15.267772	-0.122499	-2.559463	-0.128985
0.310	2.687514	-0.072251	596.637697	-0.798790	15.285954	-0.127388	-2.562016	-0.133882
0.320	2.695388	-0.092139	596.842980	-0.821866	15.305632	-0.133942	-2.564432	-0.137702
0.330	2.712991	-0.118045	597.114359	-0.836746	15.322799	-0.141374	-2.566141	-0.140132
0.340	2.731190	-0.143736	597.410549	-0.844787	15.334443	-0.148871	-2.566818	-0.141408
0.350	2.738689	-0.161928	597.680657	-0.850204	15.339101	-0.155761	-2.566438	-0.142251
0.360	2.726394	-0.167575	597.877999	-0.858604	15.336948	-0.161623	-2.565230	-0.143609
0.370	2.691240	-0.160831	597.974995	-0.875087	15.329547	-0.166234	-2.563577	-0.146342
0.380	2.637861	-0.148075	597.972312	-0.902747	15.319405	-0.169409	-2.561892	-0.150968
0.390	2.577330	-0.140239	597.897574	-0.942072	15.309468	-0.170919	-2.560550	-0.157564
0.400	2.523443	-0.148937	597.793964	-0.991334	15.302541	-0.170610	-2.559835	-0.165832
0.410	2.488043	-0.181870	597.703413	-1.047678	15.300650	-0.168635	-2.559907	-0.175284
0.420	2.477113	-0.239468	597.650718	-1.108431	15.304449	-0.165598	-2.560768	-0.185465
0.430	2.488972	-0.314299	597.635037	-1.172065	15.312876	-0.162472	-2.562245	-0.196117
0.440	2.515062	-0.393522	597.633122	-1.238264	15.323286	-0.160266	-2.563995	-0.207195
0.450	2.542929	-0.463232	597.613286	-1.307061	15.332151	-0.159599	-2.565564	-0.218713
0.460	2.560276	-0.512911	597.553018	-1.377643	15.336131	-0.160420	-2.566489	-0.230547
0.470	2.558681	-0.538480	597.451206	-1.447712	15.333053	-0.162104	-2.566411	-0.242315
0.480	2.535894	-0.543060	597.328999	-1.513830	15.322386	-0.163966	-2.565150	-0.253433
0.490	2.496233	-0.535186	597.219258	-1.572650	15.305155	-0.165866	-2.562736	-0.263329
0.500	2.449126	-0.525133	597.150449	-1.622464	15.283494	-0.168490	-2.559404	-0.271701
0.510	2.406242	-0.520982	597.133941	-1.664412	15.260076	-0.173052	-2.555553	-0.278733
0.520	2.378070	-0.526280	597.161611	-1.702735	15.237513	-0.180528	-2.551656	-0.285138
0.530	2.370992	-0.540112	597.214111	-1.743766	15.217808	-0.190878	-2.548133	-0.291983
0.540	2.385755	-0.558954	597.273567	-1.793929	15.202031	-0.202705	-2.545238	-0.300353
0.550	2.417672	-0.578907	597.332613	-1.857508	15.190275	-0.213593	-2.543018	-0.310967
0.560	2.458322	-0.597235	597.395339	-1.935149	15.181799	-0.221001	-2.541332	-0.323931
0.570	2.498216	-0.612907	597.471265	-2.023747	15.175198	-0.223302	-2.539904	-0.338719
0.580	2.529743	-0.626525	597.566659	-2.117839	15.168578	-0.220437	-2.538391	-0.354410
0.590	2.549550	-0.640066	597.677761	-2.212020	15.159827	-0.213896	-2.536455	-0.370103
0.600	2.559437	-0.656590	597.789144	-2.303519	15.147004	-0.206105	-2.533837	-0.385340
0.610	2.565389	-0.679800	597.878229	-2.393902	15.128689	-0.199565	-2.530396	-0.400400
0.620	2.575205	-0.713442	597.924028	-2.489119	15.104200	-0.196171	-2.526107	-0.416294
0.630	2.595784	-0.760862	597.915901	-2.597615	15.073727	-0.196891	-2.521045	-0.434445
0.640	2.630981	-0.824854	597.858033	-2.727060	15.038450	-0.201780	-2.515388	-0.456138
0.650	2.680481	-0.907419	597.767241	-2.880914	15.000501	-0.210165	-2.509422	-0.481946
0.660	2.739867	-1.008817	597.664854	-3.056283	14.962585	-0.220837	-2.503508	-0.511371
0.670	2.801800	-1.125955	597.566964	-3.244048	14.927302	-0.232201	-2.498013	-0.542876
0.680	2.857862	-1.251046	597.479232	-3.431183	14.896498	-0.242447	-2.493224	-0.574277
0.690	2.900414	-1.371836	597.399935	-3.604243	14.871050	-0.249855	-2.489296	-0.603322
0.700	2.924100	-1.473961	597.328885	-3.752638	14.851229	-0.253226	-2.486273	-0.628236
0.710	2.926885	-1.544762	597.275154	-3.870719	14.837343	-0.252295	-2.484172	-0.648063
0.720	2.910541	-1.577059	597.257410	-3.958318	14.830132	-0.247860	-2.483039	-0.662749
0.730	2.880198	-1.571445	597.296117	-4.019962	14.830515	-0.241498	-2.482942	-0.673027
0.740	2.842854	-1.536327	597.401870	-4.063254	14.838775	-0.234943	-2.483885	-0.680154
0.750	2.805413	-1.485781	597.565749	-4.096972	14.853717	-0.229417	-2.485704	-0.685610
0.760	2.773329	-1.435883	597.756562	-4.129206	14.872322	-0.225231	-2.488023	-0.690784
0.770	2.750459	-1.400633	597.927310	-4.165677	14.890099	-0.221836	-2.490286	-0.696686
0.780	2.739687	-1.388524	598.029529	-4.208526	14.901959	-0.218267	-2.491843	-0.703732
0.790	2.743243	-1.400600	598.030265	-4.256020	14.903292	-0.213752	-2.492063	-0.711673
0.800	2.762021	-1.430516	597.924131	-4.303468	14.891014	-0.208152	-2.490452	-0.719735
0.810	2.794197	-1.466708	597.734467	-4.345096	14.864523	-0.202009	-2.486810	-0.726927
0.820	2.834181	-1.496242	597.503284	-4.376134	14.826383	-0.196191	-2.481389	-0.732403
0.830	2.872874	-1.509319	597.275661	-4.394279	14.782315	-0.191349	-2.474957	-0.735720
0.840	2.899502	-1.502795	597.086163	-4.400137	14.740115	-0.187521	-2.468675	-0.736935
0.850	2.904503	-1.481005	596.952016	-4.396737	14.707602	-0.184107	-2.463783	-0.736531
0.860	2.882450	-1.453385	596.873624	-4.388559	14.690338	-0.180206	-2.461214	-0.735258
0.870	2.833959	-1.430223	596.840479	-4.380443	14.689997	-0.175054	-2.461294	-0.733939
0.880	2.765897	-1.418827	596.839293	-4.376508	14.703990	-0.168330	-2.463643	-0.733281
0.890	2.689784	-1.421756	596.860841	-4.379172	14.726423	-0.160227	-2.467313	-0.733701
0.900	2.618844	-1.437190	596.902882	-4.388535	14.750018	-0.151374	-2.471092	-0.735218
0.910	2.564552	-1.460367	596.968737	-4.402448	14.768400	-0.142701	-2.473898	-0.737467
0.920	2.533674	-1.484955	597.063182	-4.417256	14.778042	-0.135275	-2.475122	-0.739831
0.930	2.526740	-1.503987	597.188168	-4.428787	14.779187	-0.130065	-2.474796	-0.741607
0.940	2.538481	-1.510766	597.340462	-4.433168	14.775366	-0.127686	-2.473525	-0.742151
0.950	2.560262	-1.500291	597.511754	-4.427372	14.771636	-0.128186	-2.472192	-0.740968
0.960	2.583824	-1.471102	597.689784	-4.409721	14.772263	-0.130969	-2.471560	-0.737794
0.970	2.605057	-1.426524	597.858595	-4.380443	14.778810	-0.134901	-2.471958	-0.732689
0.980	2.626140	-1.374083	597.997797	-4.341949	14.789360	-0.138618	-2.473146	-0.726081
0.990	2.654850	-1.322905	598.083049	-4.298268	14.799129	-0.141002	-2.474427	-0.718674
1.000	2.701178	-1.280330	598.089929	-4.253510	14.802203	-0.141603	-2.474913	-0.711182
1.010	2.772816	-1.249493	598.000958	-4.210004	14.793710	-0.140779	-2.473861	-0.704013
1.020	2.871601	-1.228854	597.812800	-4.167138	14.771604	-0.139458	-2.470941	-0.697064
1.030	2.992222	-1.213349	597.540347	-4.121559	14.737467	-0.138648	-2.466355	-0.689754
1.040	3.123375	-1.196236	597.216647	-4.068612	14.696188	-0.139022	-2.460780	-0.681262
1.050	3.250607	-1.171048	596.889606	-4.004297	14.654802	-0.140763	-2.455195	-0.670861
1.060	3.359646	-1.133401	596.615642	-3.927020	14.620885	-0.143738	-2.450637	-0.658216
1.070	3.439224	-1.082375	596.449095	-3.838680	14.600862	-0.147804	-2.447964	-0.643589
1.080	3.482982	-1.020859	596.428063	-3.744734	14.598596	-0.152990	-2.447671	-0.627860
1.090	3.490591	-0.954459	596.561478	-3.652984	14.614624	-0.159415	-2.449810	-0.612340
1.100	3.468090	-0.889304	596.823813	-3.571276	14.646258	-0.166993	-2.454034	-0.598380
1.110	3.426974	-0.829720	597.160752	-3.505046	14.688590	-0.175175	-2.459738	-0.586952
1.120	3.381578	-0.776677	597.504302	-3.455834	14.736055	-0.182935	-2.466268	-0.578378
1.130	3.345185	-0.727480	597.791936	-3.421327	14.783974	-0.189077	-2.473097	-0.572327
1.140	3.326149	-0.676857	597.982826	-3.396692	14.829416	-0.192763	-2.479907	-0.568025
1.150	3.325549	-0.619283	598.065729	-3.376548	14.871119	-0.194032	-2.486536	-0.564578
1.160	3.337358	-0.551815	598.056990	-3.356845	14.908816	-0.194006	-2.492876	-0.561292
1.170	3.351171	-0.476263	597.990907	-3.336136	14.942545	-0.194591	-2.498791	-0.557891
1.180	3.356558	-0.399666	597.906672	-3.315928	14.972367	-0.197757	-2.504131	-0.554590
1.190	3.347442	-0.332723	597.836384	-3.300110	14.998446	-0.204702	-2.508788	-0.552009
1.200	3.324797	-0.286716	597.797710	-3.293757	15.021231	-0.215306	-2.512761	-0.550982
1.210	3.296531	-0.270228	597.792650	-3.301864	15.041542	-0.228065	-2.516181	-0.552343
1.220	3.274621	-0.287120	597.811399	-3.328449	15.060533	-0.240491	-2.519278	-0.556772
1.230	3.270758	-0.336466	597.838873	-3.376064	15.079564	-0.249809	-2.522346	-0.564711
1.240	3.292241	-0.413996	597.861295	-3.445524	15.100063	-0.253695	-2.525680	-0.576308
1.250	3.339334	-0.513845	597.870452	-3.535706	15.123339	-0.250870	-2.529535	-0.591383
1.260	3.404623	-0.629683	597.864137	-3.643492	15.150426	-0.241389	-2.534092	-0.609418
1.270	3.474467	-0.755019	597.843234	-3.764089	15.182035	-0.226615	-2.539468	-0.629611
1.280	3.532182	-0.883116	597.808085	-3.891824	15.218718	-0.208921	-2.545753	-0.651016
1.290	3.562193	-1.007124	597.757422	-4.021195	15.261125	-0.191228	-2.553063	-0.672714
1.300	3.554082	-1.120809	597.691213	-4.147816	15.310122	-0.176497	-2.561544	-0.693973
1.310	3.505453	-1.219637	597.615110	-4.268948	15.366596	-0.167196	-2.571320	-0.714331
1.320	3.422617	-1.301573	597.542053	-4.383603	15.430974	-0.164832	-2.582408	-0.733606
1.330	3.318612	-1.367184	597.488323	-4.492364	15.502685	-0.169626	-2.594642	-0.751875
1.340	3.209024	-1.419207	597.465992	-4.597027	15.579891	-0.180448	-2.607662	-0.769421
1.350	3.107196	-1.462014	597.476872	-4.700059	15.659698	-0.195030	-2.620971	-0.786651
1.360	3.020671	-1.500937	597.511770	-4.803877	15.738878	-0.210406	-2.634070	-0.803980
1.370	2.950019	-1.541079	597.554711	-4.910056	15.814928	-0.223514	-2.646608	-0.821692
1.380	2.890035	-1.585517	597.589011	-5.018716	15.887081	-0.231879	-2.658530	-0.839827
1.390	2.832405	-1.633646	597.602584	-5.128335	15.956811	-0.234297	-2.670137	-0.858151
1.400	2.768772	-1.680801	597.591697	-5.236142	16.027421	-0.231268	-2.682002	-0.876207
1.410	2.693395	-1.719806	597.562747	-5.338924	16.102708	-0.224935	-2.694731	-0.893450
1.420	2.605006	-1.744014	597.530490	-5.433845	16.185189	-0.218374	-2.708680	-0.909384
1.430	2.507442	-1.750402	597.511500	-5.518834	16.274661	-0.214412	-2.723740	-0.923636
1.440	2.408659	-1.740972	597.515048	-5.592353	16.367764	-0.214518	-2.739306	-0.935935
1.450	2.318264	-1.721399	597.537066	-5.652757	16.458797	-0.218323	-2.754439	-0.946009
1.460	2.244544	-1.697493	597.561533	-5.697794	16.541510	-0.224022	-2.768169	-0.953507
1.470	2.192289	-1.671571	597.568147	-5.724826	16.611145	-0.229361	-2.779791	-0.958021
1.480	2.162170	-1.640993	597.540890	-5.731825	16.665826	-0.232656	-2.789069	-0.959236
1.490	2.151511	-1.599756	597.472569	-5.718508	16.706726	-0.233334	-2.796233	-0.957116
1.500	2.155588	-1.542195	597.364612	-5.686847	16.736999	-0.231854	-2.801806	-0.951989
1.510	2.168790	-1.466702	597.225008	-5.640647	16.760156	-0.229225	-2.806339	-0.944476
1.520	2.185626	-1.377491	597.067401	-5.584631	16.778783	-0.226486	-2.810199	-0.935343
1.530	2.201936	-1.283597	596.911308	-5.523786	16.794181	-0.224397	-2.813514	-0.925395
1.540	2.216203	-1.195849	596.780991	-5.463285	16.806806	-0.223358	-2.816243	-0.915459
1.550	2.230059	-1.123438	596.701058	-5.408521	16.816893	-0.223432	-2.818311	-0.906404
1.560	2.247187	-1.071561	596.689703	-5.364608	16.824766	-0.224386	-2.819684	-0.899062
1.570	2.270945	-1.040658	596.752678	-5.335275	16.830733	-0.225788	-2.820387	-0.894051
1.580	2.301995	-1.027028	596.880908	-5.321804	16.834844	-0.227191	-2.820470	-0.891602
1.590	2.337297	-1.024486	597.052820	-5.322854	16.836823	-0.228347	-2.819989	-0.891521
1.600	2.371052	-1.026648	597.240562	-5.335401	16.836303	-0.229268	-2.819015	-0.893342
1.610	2.397274	-1.029174	597.417928	-5.356342	16.833241	-0.230085	-2.817666	-0.896582
1.620	2.412952	-1.031142	597.566869	-5.383881	16.828191	-0.230790	-2.816119	-0.900967
1.630	2.420315	-1.035127	597.679469	-5.418008	16.822194	-0.231066	-2.814584	-0.906507
1.640	2.426962	-1.046040	597.754523	-5.459905	16.816361	-0.230411	-2.813255	-0.913403
1.650	2.443295	-1.069095	597.791823	-5.510687	16.811531	-0.228530	-2.812272	-0.921840
1.660	2.477912	-1.107452	597.789450	-5.570099	16.808228	-0.225741	-2.811731	-0.931783
1.670	2.532959	-1.160434	597.746926	-5.635739	16.806886	-0.223070	-2.811706	-0.942830
1.680	2.602020	-1.223195	597.671569	-5.703076	16.808011	-0.221924	-2.812249	-0.954216
1.690	2.672071	-1.288072	597.581769	-5.766352	16.812131	-0.223528	-2.813361	-0.964948
1.700	2.728728	-1.346926	597.503058	-5.820160	16.819623	-0.228455	-2.814985	-0.974080
1.710	2.762097	-1.393372	597.458922	-5.861115	16.830634	-0.236451	-2.817036	-0.981007
1.720	2.770311	-1.424156	597.462899	-5.888869	16.845263	-0.246587	-2.819466	-0.985646
1.730	2.759238	-1.439499	597.517096	-5.905975	16.863836	-0.257601	-2.822319	-0.988419
1.740	2.738900	-1.442622	597.616433	-5.916689	16.887034	-0.268228	-2.825731	-0.990048
1.750	2.718689	-1.438874	597.753279	-5.925291	16.915642	-0.277383	-2.829870	-0.991260
1.760	2.703866	-1.434919	597.917761	-5.934639	16.950026	-0.284206	-2.834842	-0.992551
1.770	2.694761	-1.438014	598.093548	-5.945526	16.989577	-0.288100	-2.840622	-0.994080
1.780	2.688517	-1.454947	598.253026	-5.957004	17.032374	-0.288892	-2.847018	-0.995733
1.790	2.682047	-1.490272	598.356745	-5.967387	17.075230	-0.287060	-2.853687	-0.997296
1.800	2.674656	-1.544285	598.359756	-5.975328	17.114209	-0.283842	-2.860187	-0.998618
1.810	2.669056	-1.611909	598.223875	-5.980438	17.145621	-0.280990	-2.866088	-0.999699
1.820	2.670138	-1.683505	597.931939	-5.983289	17.167256	-0.280162	-2.871105	-1.000664
1.830	2.681885	-1.747746	597.498662	-5.984929	17.179365	-0.282178	-2.875214	-1.001664
1.840	2.704095	-1.795454	596.973086	-5.986254	17.184938	-0.286506	-2.878679	-1.002768
1.850	2.731117	-1.822642	596.430396	-5.987486	17.189142	-0.291299	-2.882003	-1.003887
1.860	2.753849	-1.831305	595.955325	-5.987931	17.198141	-0.294041	-2.885810	-1.004762
1.870	2.764145	-1.827654	595.623145	-5.986020	17.217703	-0.292567	-2.890704	-1.005001
1.880	2.759034	-1.818723	595.484263	-5.979507	17.251962	-0.285973	-2.897132	-1.004142
1.890	2.742143	-1.809012	595.555361	-5.965671	17.302598	-0.274961	-2.905288	-1.001699
1.900	2.721628	-1.798660	595.817456	-5.941478	17.368593	-0.261529	-2.915086	-0.997198
1.910	2.706266	-1.783734	596.220933	-5.903876	17.446543	-0.248251	-2.926188	-0.990216
1.920	2.702142	-1.758167	596.697225	-5.850472	17.531337	-0.237575	-2.938063	-0.980476
1.930	2.711382	-1.716206	597.174793	-5.780642	17.616991	-0.231340	-2.950056	-0.967998
1.940	2.732657	-1.654459	597.594928	-5.696725	17.697570	-0.230544	-2.961466	-0.953275
1.950	2.762287	-1.573345	597.922615	-5.604562	17.768158	-0.235252	-2.971648	-0.937339
1.960	2.795121	-1.478097	598.149196	-5.512795	17.825728	-0.244583	-2.980147	-0.921642
1.970	2.825227	-1.379135	598.286275	-5.430921	17.869708	-0.256834	-2.986816	-0.907746
1.980	2.846846	-1.291063	598.353798	-5.366739	17.902095	-0.269809	-2.991891	-0.896917
1.990	2.855772	-1.229636	598.367870	-5.324170	17.927037	-0.281350	-2.995989	-0.889782
2.000	2.850707	-1.206901	598.334022	-5.302271	17.949853	-0.289917	-2.999972	-0.886172
2.010	2.833861	-1.226020	598.249096	-5.295705	17.975614	-0.294979	-3.004704	-0.885201
2.020	2.810295	-1.278116	598.110267	-5.296286	18.007679	-0.297084	-3.010762	-0.885503
2.030	2.786033	-1.343195	597.925446	-5.294993	18.046753	-0.297548	-3.018228	-0.885561
2.040	2.765648	-1.395660	597.718597	-5.283969	18.090879	-0.297898	-3.026655	-0.884023
2.050	2.750448	-1.412846	597.526664	-5.258078	18.136422	-0.299272	-3.035249	-0.879974
2.060	2.738227	-1.383196	597.389244	-5.215660	18.179760	-0.302076	-3.043202	-0.873076
2.070	2.724763	-1.310296	597.335093	-5.158258	18.219086	-0.305991	-3.050061	-0.863545
2.080	2.706259	-1.210574	597.370755	-5.089517	18.255555	-0.310252	-3.055984	-0.851986
2.090	2.681456	-1.105447	597.476549	-5.013688	18.293093	-0.313995	-3.061726	-0.839144
2.100	2.652338	-1.011458	597.613173	-4.934176	18.336788	-0.316517	-3.068337	-0.825647
2.110	2.623015	-0.933084	597.737215	-4.852467	18.390587	-0.317413	-3.076701	-0.811806
2.120	2.597410	-0.861653	597.818095	-4.767818	18.455512	-0.316637	-3.087145	-0.797537
2.130	2.577128	-0.780911	597.847367	-4.678040	18.529306	-0.314548	-3.099337	-0.782481
2.140	2.560901	-0.676511	597.836348	-4.581349	18.607578	-0.311961	-3.112487	-0.766322
2.150	2.545898	-0.544706	597.805749	-4.478528	18.685685	-0.310153	-3.125712	-0.749161
2.160	2.529993	-0.396017	597.774622	-4.374246	18.760370	-0.310654	-3.138368	-0.731755
2.170	2.513470	-0.252295	597.753850	-4.276652	18.830577	-0.314745	-3.150223	-0.715454
2.180	2.498988	-0.138937	597.744957	-4.195211	18.897398	-0.322813	-3.161448	-0.701840
2.190	2.489697	-0.075921	597.742274	-4.137648	18.963402	-0.333873	-3.172505	-0.692213
2.200	2.486675	-0.071156	597.736096	-4.107303	19.031644	-0.345568	-3.183954	-0.687143
2.210	2.487296	-0.118197	597.715324	-4.102006	19.104750	-0.354770	-3.196296	-0.686281
2.220	2.485390	-0.198736	597.669492	-4.114910	19.184377	-0.358593	-3.209864	-0.688493
2.230	2.473047	-0.288677	597.591034	-4.136845	19.271154	-0.355412	-3.224806	-0.692254
2.240	2.443196	-0.365608	597.478057	-4.159211	19.364803	-0.345410	-3.241090	-0.696128
2.250	2.391878	-0.415196	597.336325	-4.176297	19.464163	-0.330431	-3.258493	-0.699153
2.260	2.319354	-0.434541	597.179220	-4.186322	19.567101	-0.313265	-3.276588	-0.701016
2.270	2.229740	-0.431545	597.025754	-4.191104	19.670613	-0.296699	-3.294768	-0.701997
2.280	2.129531	-0.420628	596.897358	-4.194808	19.771329	-0.282698	-3.312350	-0.702769
2.290	2.025823	-0.416354	596.813593	-4.202457	19.866311	-0.272018	-3.328730	-0.704149
2.300	1.925018	-0.427476	596.787372	-4.218781	19.953776	-0.264361	-3.343532	-0.706915
2.310	1.832303	-0.453873	596.821353	-4.247509	20.033420	-0.258994	-3.356686	-0.711688
