Time[s]	Fx[N]	Fy[N]	Fz[N]	Mx[Nm]	My[Nm]	Mz[Nm]	COPx[cm]	COPy[cm]
0.010	3.187951	-2.029297	643.276737	4.510334	-3.972039	0.538146	0.617470	0.701150
0.020	3.157145	-2.096882	643.602926	4.328283	-3.926012	0.527413	0.610005	0.672508
0.030	3.112925	-2.163278	643.861720	4.150106	-3.875801	0.520407	0.601962	0.644565
0.040	3.048819	-2.228306	644.001397	3.979057	-3.819517	0.519581	0.593091	0.617865
0.050	2.967726	-2.292942	643.999526	3.817507	-3.758726	0.525642	0.583654	0.592781
0.060	2.880955	-2.359690	643.865828	3.667058	-3.698085	0.537647	0.574356	0.569538
0.070	2.803918	-2.432293	643.635409	3.528720	-3.643615	0.553661	0.566099	0.548248
0.080	2.750812	-2.514483	643.354393	3.402991	-3.600460	0.571580	0.559639	0.528945
0.090	2.730413	-2.607953	643.062670	3.289983	-3.571076	0.589735	0.555323	0.511612
0.100	2.743804	-2.710339	642.780304	3.189776	-3.554470	0.607105	0.552984	0.496247
0.110	2.784217	-2.814233	642.503675	3.102844	-3.546597	0.623221	0.551996	0.482930
0.120	2.838978	-2.907983	642.213939	3.030178	-3.541652	0.637944	0.551475	0.471833
0.130	2.893204	-2.978135	641.894177	2.972895	-3.533759	0.651248	0.550521	0.463144
0.140	2.934062	-3.012744	641.545920	2.931608	-3.518500	0.663065	0.548441	0.456960
0.150	2.954178	-3.004646	641.195146	2.905958	-3.493851	0.673196	0.544897	0.453210
0.160	2.953170	-2.953903	640.884169	2.894524	-3.460400	0.681303	0.539942	0.451645
0.170	2.936803	-2.868664	640.654962	2.894971	-3.420928	0.687006	0.533974	0.451877
0.180	2.913695	-2.763801	640.534284	2.904318	-3.379509	0.690064	0.527608	0.453421
0.190	2.890536	-2.657389	640.528181	2.919314	-3.340266	0.690596	0.521486	0.455767
0.200	2.868033	-2.566043	640.626174	2.936926	-3.306015	0.689200	0.516060	0.458446
0.210	2.839950	-2.500613	640.809925	2.954900	-3.277279	0.686859	0.511428	0.461120
0.220	2.795972	-2.463626	641.060486	2.972212	-3.252115	0.684604	0.507302	0.463640
0.230	2.726821	-2.449295	641.360997	2.989304	-3.226971	0.683152	0.503144	0.466088
0.240	2.628960	-2.446001	641.695374	3.008018	-3.198250	0.682736	0.498406	0.468761
0.250	2.506842	-2.440290	642.046022	3.031146	-3.163960	0.683215	0.492793	0.472107
0.260	2.372122	-2.421019	642.393527	3.061539	-3.124783	0.684252	0.486428	0.476583
0.270	2.240593	-2.382433	642.718880	3.100962	-3.084148	0.685379	0.479860	0.482476
0.280	2.128247	-2.325378	643.006366	3.149172	-3.047253	0.685921	0.473907	0.489757
0.290	2.047704	-2.256377	643.245278	3.203672	-3.019427	0.684995	0.469405	0.498048
0.300	2.005771	-2.185099	643.430435	3.260306	-3.004417	0.681685	0.466937	0.506707
0.310	2.002412	-2.121368	643.562345	3.314426	-3.003257	0.675318	0.466661	0.515012
0.320	2.031212	-2.072857	643.646862	3.362138	-3.014081	0.665623	0.468282	0.522358
0.330	2.081225	-2.043943	643.693439	3.401155	-3.032893	0.652705	0.471170	0.528381
0.340	2.139723	-2.035581	643.711865	3.430901	-3.054980	0.636867	0.474588	0.532987
0.350	2.195020	-2.045741	643.708662	3.451942	-3.076454	0.618479	0.477926	0.536258
0.360	2.238523	-2.070019	643.684816	3.465207	-3.095371	0.597961	0.480883	0.538339
0.370	2.265645	-2.102349	643.635926	3.471560	-3.112031	0.575927	0.483508	0.539367
0.380	2.275683	-2.136029	643.554692	3.471885	-3.128360	0.553355	0.486106	0.539486
0.390	2.270995	-2.165208	643.434513	3.467346	-3.146715	0.531628	0.489050	0.538881
0.400	2.255940	-2.186497	643.272606	3.459401	-3.168684	0.512364	0.492588	0.537782
0.410	2.235954	-2.199897	643.071774	3.449527	-3.194415	0.497103	0.496743	0.536414
0.420	2.216832	-2.208354	642.840712	3.438857	-3.222693	0.486975	0.501321	0.534947
0.430	2.203863	-2.216000	642.593122	3.427998	-3.251598	0.482468	0.506012	0.533463
0.440	2.200580	-2.226062	642.346262	3.417045	-3.279316	0.483360	0.510522	0.531963
0.450	2.207447	-2.239684	642.119672	3.405717	-3.304748	0.488813	0.514662	0.530387
0.460	2.221120	-2.256177	641.934079	3.393476	-3.327769	0.497572	0.518397	0.528633
0.470	2.234875	-2.274206	641.809453	3.379568	-3.349214	0.508198	0.521839	0.526569
0.480	2.240384	-2.293007	641.761627	3.363115	-3.370684	0.519273	0.525224	0.524044
0.490	2.230536	-2.312983	641.798756	3.343356	-3.394210	0.529583	0.528859	0.520935
0.500	2.202290	-2.335568	641.919701	3.320012	-3.421841	0.538265	0.533064	0.517200
0.510	2.158127	-2.362657	642.115091	3.293614	-3.455217	0.544894	0.538099	0.512932
0.520	2.105112	-2.396084	642.369928	3.265594	-3.495255	0.549442	0.544119	0.508367
0.530	2.051906	-2.437414	642.665899	3.238031	-3.542128	0.552190	0.551162	0.503844
0.540	2.005239	-2.487827	642.982495	3.213036	-3.595629	0.553686	0.559211	0.499708
0.550	1.967587	-2.547549	643.297727	3.191911	-3.655793	0.554774	0.568289	0.496179
0.560	1.937049	-2.614727	643.590140	3.174365	-3.723366	0.556537	0.578531	0.493228
0.570	1.909379	-2.684577	643.842854	3.158251	-3.799857	0.559988	0.590184	0.490531
0.580	1.881280	-2.750093	644.048020	3.140181	-3.887165	0.565610	0.603552	0.487569
0.590	1.853535	-2.804657	644.208489	3.116948	-3.987080	0.573031	0.618912	0.483841
0.600	1.832514	-2.845258	644.334318	3.087063	-4.100925	0.581085	0.636459	0.479109
0.610	1.829223	-2.874358	644.435131	3.051581	-4.229466	0.588237	0.656306	0.473528
0.620	1.856036	-2.899322	644.512734	3.013772	-4.373070	0.593141	0.678508	0.467605
0.630	1.922432	-2.929779	644.558768	2.977947	-4.531895	0.595010	0.703100	0.462013
0.640	2.031570	-2.974161	644.558517	2.948023	-4.705936	0.593682	0.730102	0.457371
0.650	2.179181	-3.036653	644.497081	2.926439	-4.894810	0.589441	0.759477	0.454065
0.660	2.355027	-3.115544	644.362673	2.913670	-5.097403	0.582781	0.791077	0.452179
0.670	2.546024	-3.203635	644.145597	2.908388	-5.311667	0.574253	0.824607	0.451511
0.680	2.739805	-3.290688	643.836893	2.908093	-5.534825	0.564424	0.859663	0.451682
0.690	2.927684	-3.366936	643.431879	2.910000	-5.763964	0.553904	0.895816	0.452262
0.700	3.106195	-3.426207	642.938816	2.911842	-5.996677	0.543372	0.932698	0.452896
0.710	3.276595	-3.467542	642.386552	2.912334	-6.231403	0.533542	0.970039	0.453362
0.720	3.442542	-3.494903	641.824218	2.911203	-6.467388	0.525102	1.007657	0.453583
0.730	3.607212	-3.515280	641.311773	2.908925	-6.704418	0.518633	1.045423	0.453590
0.740	3.771409	-3.536049	640.906518	2.906411	-6.942469	0.514586	1.083226	0.453484
0.750	3.933420	-3.562680	640.652132	2.904871	-7.181333	0.513316	1.120941	0.453424
0.760	4.090207	-3.597585	640.573203	2.905905	-7.420345	0.515124	1.158391	0.453641
0.770	4.238980	-3.640224	640.674057	2.911652	-7.658314	0.520216	1.195353	0.454467
0.780	4.378471	-3.688013	640.939321	2.924719	-7.893693	0.528559	1.231582	0.456318
0.790	4.509636	-3.737465	641.335228	2.947764	-8.124788	0.539728	1.266855	0.459629
0.800	4.635680	-3.785156	641.812635	2.982866	-8.349840	0.552877	1.300978	0.464757
0.810	4.761234	-3.828318	642.313177	3.030903	-8.567012	0.566932	1.333775	0.471873
0.820	4.890695	-3.865154	642.778208	3.091233	-8.774434	0.580961	1.365080	0.480918
0.830	5.026226	-3.895092	643.157387	3.161891	-8.970328	0.594573	1.394733	0.491620
0.840	5.166349	-3.919147	643.412791	3.240290	-9.153075	0.608103	1.422582	0.503610
0.850	5.305896	-3.940141	643.517520	3.324201	-9.321113	0.622401	1.448463	0.516567
0.860	5.437423	-3.962312	643.452450	3.412566	-9.472826	0.638275	1.472187	0.530352
0.870	5.553466	-3.989992	643.206277	3.505786	-9.606596	0.655839	1.493548	0.545049
0.880	5.648556	-4.025673	642.780690	3.605427	-9.721026	0.674184	1.512340	0.560911
0.890	5.720127	-4.068269	642.197622	3.713637	-9.815170	0.691578	1.528372	0.578270
0.900	5.768076	-4.112239	641.502810	3.832662	-9.888676	0.706102	1.541486	0.597450
0.910	5.793582	-4.147699	640.761770	3.964605	-9.941927	0.716346	1.551579	0.618733
0.920	5.798067	-4.161438	640.049602	4.111380	-9.976208	0.721819	1.558662	0.642353
0.930	5.782929	-4.138988	639.440147	4.274776	-9.993888	0.723006	1.562912	0.668518
0.940	5.750211	-4.067710	638.998546	4.456671	-9.998410	0.721177	1.564700	0.697446
0.950	5.703783	-3.940158	638.776000	4.659322	-9.993935	0.718064	1.564545	0.729414
0.960	5.650023	-3.756303	638.802928	4.885465	-9.984554	0.715446	1.563010	0.764784
0.970	5.596886	-3.523526	639.079771	5.137888	-9.973344	0.714684	1.560579	0.803951
0.980	5.551129	-3.254398	639.569964	5.418368	-9.961666	0.716410	1.557557	0.847189
0.990	5.514947	-2.963265	640.201471	5.726359	-9.949104	0.720517	1.554058	0.894462
1.000	5.484050	-2.663139	640.880217	6.058093	-9.934070	0.726473	1.550067	0.945277
1.010	5.448607	-2.364035	641.513028	6.406592	-9.914762	0.733734	1.545528	0.998669
1.020	5.396855	-2.073212	642.032605	6.762565	-9.890072	0.742011	1.540431	1.053306
1.030	5.319732	-1.796793	642.414689	7.115771	-9.860129	0.751223	1.534854	1.107660
1.040	5.214638	-1.541617	642.679684	7.456427	-9.826464	0.761232	1.528983	1.160209
1.050	5.087010	-1.316127	642.877717	7.776405	-9.791815	0.771587	1.523122	1.209624
1.060	4.949258	-1.129611	643.064597	8.070140	-9.759634	0.781484	1.517675	1.254950
1.070	4.817388	-0.989878	643.280288	8.335197	-9.733298	0.790011	1.513073	1.295733
1.080	4.706547	-0.900320	643.538113	8.572397	-9.715194	0.796504	1.509653	1.332073
1.090	4.627231	-0.857735	643.825426	8.785352	-9.705968	0.800807	1.507546	1.364555
1.100	4.583580	-0.852072	644.111704	8.979412	-9.704339	0.803297	1.506624	1.394077
1.110	4.574028	-0.868353	644.359689	9.160320	-9.707645	0.804687	1.506557	1.421616
1.120	4.593512	-0.890142	644.536541	9.333015	-9.712980	0.805691	1.506971	1.448019
1.130	4.635860	-0.903338	644.622237	9.500990	-9.718464	0.806651	1.507622	1.473885
1.140	4.695299	-0.898939	644.612596	9.666243	-9.724090	0.807309	1.508517	1.499543
1.150	4.766930	-0.873960	644.516068	9.829585	-9.731758	0.806843	1.509933	1.525111
1.160	4.846703	-0.830762	644.346913	9.991002	-9.744517	0.804224	1.512309	1.550563
1.170	4.931429	-0.775651	644.119465	10.149860	-9.765389	0.798762	1.516083	1.575773
1.180	5.018849	-0.717290	643.846442	10.304909	-9.796254	0.790579	1.521520	1.600523
1.190	5.107556	-0.664846	643.540410	10.454201	-9.837192	0.780757	1.528605	1.624482
1.200	5.196626	-0.625749	643.215747	10.595203	-9.886429	0.771006	1.537032	1.647224
1.210	5.285137	-0.603575	642.889418	10.725359	-9.940808	0.762979	1.546270	1.668305
1.220	5.371713	-0.597087	642.580171	10.843058	-9.996503	0.757559	1.555682	1.687425
1.230	5.454151	-0.601110	642.306052	10.948631	-10.049761	0.754464	1.564637	1.704582
1.240	5.529108	-0.608936	642.080529	11.044819	-10.097509	0.752390	1.572623	1.720161
1.250	5.592050	-0.615088	641.909045	11.136298	-10.137788	0.749616	1.579318	1.734872
1.260	5.637823	-0.617123	641.788701	11.228270	-10.169943	0.744807	1.584625	1.749528
1.270	5.662129	-0.615934	641.712193	11.324692	-10.194582	0.737695	1.588653	1.764762
1.280	5.663651	-0.614944	641.674127	11.427008	-10.213402	0.729306	1.591681	1.780812
1.290	5.645868	-0.619001	641.675876	11.533976	-10.228948	0.721601	1.594099	1.797477
1.300	5.617298	-0.633379	641.725502	11.642562	-10.244265	0.716670	1.596362	1.814259
1.310	5.589599	-0.662710	641.831989	11.749287	-10.262359	0.715886	1.598917	1.830586
1.320	5.574156	-0.709506	641.996833	11.851440	-10.285516	0.719426	1.602113	1.846028
1.330	5.578724	-0.772529	642.208451	11.947797	-10.314699	0.726315	1.606129	1.860424
1.340	5.605618	-0.845953	642.443268	12.038786	-10.349317	0.734859	1.610931	1.873906
1.350	5.652017	-0.920300	642.672893	12.126202	-10.387503	0.743229	1.616297	1.886839
1.360	5.711881	-0.985236	642.872921	12.212644	-10.426830	0.750030	1.621911	1.899698
1.370	5.778375	-1.033176	643.028585	12.300871	-10.465177	0.754683	1.627482	1.912959
1.380	5.845873	-1.061963	643.135374	12.393248	-10.501358	0.757488	1.632838	1.927004
1.390	5.911044	-1.075138	643.195924	12.491402	-10.535237	0.759304	1.637951	1.942083
1.400	5.973012	-1.079458	643.215698	12.596194	-10.567331	0.760997	1.642891	1.958316
1.410	6.032815	-1.080843	643.199455	12.707975	-10.598214	0.762904	1.647734	1.975744
1.420	6.092569	-1.081017	643.149851	12.826967	-10.628063	0.764585	1.652502	1.994398
1.430	6.154627	-1.076753	643.068552	12.953550	-10.656554	0.764961	1.657141	2.014334
1.440	6.220825	-1.061997	642.958700	13.088349	-10.683002	0.762769	1.661538	2.035644
1.450	6.291910	-1.031422	642.826517	13.232156	-10.706568	0.757123	1.665546	2.058433
1.460	6.367285	-0.983335	642.680676	13.385689	-10.726475	0.747906	1.669021	2.082790
1.470	6.445189	-0.920552	642.530302	13.549215	-10.742287	0.735842	1.671873	2.108728
1.480	6.523241	-0.848996	642.383663	13.722121	-10.754309	0.722236	1.674125	2.136125
1.490	6.599031	-0.774806	642.248385	13.902782	-10.763907	0.708557	1.675973	2.164705
1.500	6.670498	-0.701371	642.131871	14.088931	-10.773451	0.696035	1.677763	2.194087
1.510	6.736124	-0.627662	642.040412	14.278379	-10.785643	0.685338	1.679901	2.223907
1.520	6.795181	-0.548516	641.977036	14.469637	-10.802358	0.676385	1.682671	2.253918
1.530	6.848170	-0.456506	641.939033	14.662129	-10.823478	0.668322	1.686060	2.284038
1.540	6.897200	-0.344405	641.915475	14.856005	-10.846288	0.659753	1.689675	2.314324
1.550	6.945861	-0.207322	641.885097	15.051660	-10.865754	0.649175	1.692788	2.344915
1.560	6.998280	-0.044041	641.816638	15.249144	-10.875531	0.635466	1.694492	2.375935
1.570	7.057633	0.142529	641.674699	15.447695	-10.869301	0.618234	1.693896	2.407403
1.580	7.124856	0.345532	641.431478	15.645631	-10.842047	0.597925	1.690289	2.439174
1.590	7.198377	0.554708	641.080150	15.840693	-10.791009	0.575685	1.683254	2.470938
1.600	7.275143	0.757245	640.643331	16.030602	-10.716189	0.553069	1.672723	2.502266
1.610	7.352347	0.939192	640.172027	16.213373	-10.620323	0.531700	1.658980	2.532659
1.620	7.428701	1.087698	639.734737	16.387139	-10.508253	0.513012	1.642595	2.561552
1.630	7.504205	1.193721	639.400538	16.549684	-10.385707	0.498115	1.624288	2.588313
1.640	7.578305	1.254044	639.222362	16.698244	-10.257773	0.487764	1.604727	2.612275
1.650	7.647400	1.271404	639.226484	16.829964	-10.127584	0.482369	1.584350	2.632864
1.660	7.703375	1.252648	639.411297	16.942965	-9.995830	0.481981	1.563286	2.649776
1.670	7.734564	1.206084	639.754083	17.037518	-9.861378	0.486188	1.541433	2.663135
1.680	7.729345	1.139542	640.220931	17.116661	-9.722676	0.493927	1.518644	2.673555
1.690	7.681061	1.059836	640.774329	17.185729	-9.579135	0.503371	1.494931	2.682025
1.700	7.591962	0.973357	641.375997	17.250710	-9.431766	0.512115	1.470552	2.689641
1.710	7.474074	0.886842	641.987119	17.315983	-9.282865	0.517743	1.445958	2.697248
1.720	7.346490	0.807423	642.570227	17.382475	-9.135042	0.518532	1.421641	2.705148
1.730	7.230411	0.741543	643.094231	17.447191	-8.990144	0.513982	1.397951	2.713007
1.740	7.144092	0.693111	643.539381	17.504368	-8.848529	0.504905	1.374979	2.720015
1.750	7.099346	0.661938	643.897619	17.547700	-8.709010	0.493072	1.352546	2.725231
1.760	7.100184	0.643557	644.167045	17.572617	-8.569431	0.480597	1.330312	2.727960
1.770	7.143404	0.630608	644.343284	17.577764	-8.427545	0.469309	1.307928	2.728012
1.780	7.220467	0.614931	644.411942	17.565245	-8.281585	0.460338	1.285138	2.725779
1.790	7.319705	0.589276	644.345359	17.539704	-8.130043	0.453967	1.261752	2.722097
1.800	7.427901	0.548262	644.105087	17.506613	-7.970578	0.449705	1.237466	2.717975
1.810	7.530719	0.488877	643.650070	17.470459	-7.798637	0.446518	1.211627	2.714279
1.820	7.612445	0.410910	642.949556	17.433638	-7.606711	0.443165	1.183096	2.711509
1.830	7.656321	0.317464	641.998650	17.396624	-7.385086	0.438569	1.150327	2.709760
1.840	7.646615	0.215344	640.833092	17.359240	-7.124146	0.432118	1.111701	2.708855
1.850	7.572500	0.114791	639.538566	17.322165	-6.817542	0.423855	1.066009	2.708541
1.860	7.432511	0.027901	638.249373	17.287664	-6.464976	0.414553	1.012923	2.708607
1.870	7.237350	-0.034379	637.132552	17.259001	-6.073455	0.405675	0.953248	2.708856
1.880	7.008863	-0.065887	636.357597	17.238846	-5.656384	0.399240	0.888869	2.708987
1.890	6.774271	-0.067978	636.058067	17.227651	-5.230677	0.397567	0.822358	2.708503
1.900	6.557115	-0.049976	636.296850	17.223025	-4.812750	0.402890	0.756369	2.706759
1.910	6.368537	-0.026992	637.048167	17.220507	-4.414650	0.416810	0.692985	2.703172
1.920	6.203099	-0.015867	638.204650	17.215288	-4.041592	0.439691	0.633275	2.697456
1.930	6.041727	-0.030621	639.608049	17.204000	-3.691723	0.470246	0.577185	2.689772
1.940	5.861061	-0.078665	641.091976	17.185740	-3.358158	0.505608	0.523818	2.680698
1.950	5.645070	-0.158801	642.520202	17.162043	-3.032428	0.541951	0.471958	2.671051
1.960	5.393254	-0.261690	643.807173	17.136030	-2.707873	0.575438	0.420603	2.661671
1.970	5.121476	-0.372746	644.916622	17.111353	-2.381623	0.603151	0.369292	2.653266
1.980	4.855448	-0.476332	645.844002	17.091376	-2.054603	0.623702	0.318127	2.646363
1.990	4.620681	-0.559620	646.593977	17.078647	-1.729974	0.637346	0.267552	2.641325
2.000	4.434041	-0.614923	647.163562	17.074419	-1.410998	0.645579	0.218028	2.638347
2.010	4.300433	-0.640376	647.536505	17.078122	-1.099366	0.650399	0.169777	2.637399
2.020	4.214951	-0.639531	647.688583	17.087070	-0.794616	0.653553	0.122685	2.638161
2.030	4.168008	-0.620328	647.599095	17.096888	-0.494745	0.655993	0.076397	2.640042
2.040	4.149994	-0.593497	647.262376	17.102820	-0.197609	0.657671	0.030530	2.642332
2.050	4.153321	-0.570288	646.694238	17.101532	0.097605	0.657666	-0.015093	2.644454
2.060	4.171897	-0.559555	645.930903	17.092619	0.389554	0.654654	-0.060309	2.646199
2.070	4.199654	-0.564738	645.021283	17.079130	0.675061	0.647595	-0.104657	2.647840
2.080	4.229787	-0.581853	644.016470	17.066958	0.950580	0.636323	-0.147602	2.650081
2.090	4.255210	-0.599751	642.961532	17.063462	1.214180	0.621687	-0.188842	2.653885
2.100	4.269762	-0.603066	641.893197	17.075792	1.467014	0.605142	-0.228545	2.660223
2.110	4.269316	-0.576833	640.843725	17.109228	1.713433	0.587996	-0.267371	2.669797
2.120	4.252353	-0.510926	639.848017	17.165835	1.959661	0.570769	-0.306270	2.682799
2.130	4.219969	-0.402777	638.949278	17.243891	2.211678	0.553001	-0.346143	2.698789
2.140	4.175601	-0.257800	638.199006	17.338420	2.473361	0.533577	-0.387553	2.716773
2.150	4.124641	-0.087842	637.649550	17.442677	2.745775	0.511389	-0.430609	2.735464
2.160	4.073701	0.091715	637.340968	17.549921	3.027961	0.486003	-0.475093	2.753616
2.170	4.028991	0.265453	637.286293	17.654721	3.318844	0.458027	-0.520778	2.770297
2.180	3.993384	0.421176	637.459737	17.753185	3.619481	0.429073	-0.567798	2.784989
2.190	3.962434	0.552076	637.791665	17.842031	3.934847	0.401411	-0.616949	2.797470
2.200	3.920573	0.657264	638.173384	17.916947	4.274692	0.377532	-0.669832	2.807536
2.210	3.839552	0.740539	638.474039	17.971234	4.653216	0.359781	-0.728803	2.814716
2.220	3.681271	0.807603	638.569812	17.995734	5.087318	0.350082	-0.796674	2.818131
2.230	3.406083	0.862397	638.381331	17.980577	5.593285	0.349716	-0.876167	2.816589
2.240	2.985529	0.903628	637.909515	17.918433	6.182228	0.359003	-0.969139	2.808930
2.250	2.416226	0.922733	637.256445	17.808181	6.855341	0.376837	-1.075759	2.794508
2.260	1.729978	0.904164	636.619664	17.657422	7.600572	0.400258	-1.193895	2.773622
2.270	0.995011	0.828544	636.255863	17.482437	8.392282	0.424481	-1.319011	2.747705
2.280	0.304813	0.678734	636.419719	17.305111	9.194698	0.443759	-1.444754	2.719135
2.290	-0.245313	0.447659	637.292139	17.147573	9.968759	0.453049	-1.564237	2.690693
2.300	-0.588551	0.145246	638.918079	17.026301	10.680542	0.449902	-1.671661	2.664865
2.310	-0.713247	-0.198914	641.175857	16.947765	11.308676	0.435694	-1.763740	2.643232
2.320	-0.673746	-0.539427	643.793216	16.907244	11.848321	0.415499	-1.840392	2.626192
2.330	-0.577809	-0.825098	646.409030	16.891234	12.310463	0.396522	-1.904439	2.613088
2.340	-0.553050	-1.012051	648.660973	16.882260	12.716933	0.385689	-1.960490	2.602632
2.350	-0.704986	-1.075773	650.270074	16.863919	13.093044	0.387418	-2.013478	2.593372
2.360	-1.083283	-1.018289	651.096876	16.824249	13.460370	0.402453	-2.067337	2.583985
2.370	-1.668251	-0.868280	651.156428	16.756833	13.831800	0.428108	-2.124190	2.573396
2.380	-2.380033	-0.674062	650.594033	16.660328	14.209788	0.459665	-2.184125	2.560787
2.390	-3.103954	-0.491453	649.634859	16.537487	14.587372	0.492220	-2.245472	2.545659
2.400	-3.721431	-0.370050	648.524365	16.394338	14.950824	0.522124	-2.305360	2.527945
2.410	-4.137098	-0.341656	647.474078	16.239470	15.282910	0.547438	-2.360389	2.508127
