Time[s]	Fx[N]	Fy[N]	Fz[N]	Mx[Nm]	My[Nm]	Mz[Nm]	COPx[cm]	COPy[cm]
0.010	5.194739	-1.329248	690.403997	8.431063	-1.019366	0.339985	0.147648	1.221178
0.020	5.191001	-1.427531	690.719234	8.426091	-1.181535	0.352427	0.171059	1.219901
0.030	5.229437	-1.515782	690.957505	8.422584	-1.352840	0.365346	0.195792	1.218973
0.040	5.338500	-1.586975	691.058093	8.420974	-1.539692	0.379003	0.222802	1.218562
0.050	5.525422	-1.638087	690.993363	8.420116	-1.744132	0.393446	0.252409	1.218552
0.060	5.776123	-1.670943	690.774324	8.417724	-1.963424	0.408455	0.284235	1.218592
0.070	6.062147	-1.691706	690.446819	8.411514	-2.190880	0.423598	0.317313	1.218271
0.080	6.351130	-1.708796	690.081159	8.400501	-2.417440	0.438337	0.350312	1.217321
0.090	6.616517	-1.729785	689.758381	8.385830	-2.633473	0.452085	0.381796	1.215763
0.100	6.843299	-1.758552	689.554619	8.370665	-2.830281	0.464180	0.410451	1.213923
0.110	7.028572	-1.794051	689.524501	8.359057	-3.001072	0.473829	0.435238	1.212293
0.120	7.177928	-1.831256	689.686369	8.354213	-3.141389	0.480202	0.455481	1.211306
0.130	7.300100	-1.863627	690.014083	8.356973	-3.249132	0.482722	0.470879	1.211131
0.140	7.402334	-1.886004	690.439905	8.365247	-3.324316	0.481410	0.481478	1.211582
0.150	7.487913	-1.897007	690.870058	8.374681	-3.368629	0.477015	0.487592	1.212193
0.160	7.556021	-1.900348	691.209872	8.380230	-3.384859	0.470738	0.489701	1.212400
0.170	7.603241	-1.904440	691.390586	8.377970	-3.376250	0.463682	0.488327	1.211756
0.180	7.625620	-1.919869	691.387764	8.366460	-3.345864	0.456346	0.483935	1.210097
0.190	7.620279	-1.955206	691.224420	8.347293	-3.296050	0.448471	0.476842	1.207610
0.200	7.586087	-2.012888	690.959222	8.324756	-3.228090	0.439273	0.467190	1.204811
0.210	7.523665	-2.087279	690.666564	8.304697	-3.142176	0.427879	0.454948	1.202418
0.220	7.435405	-2.166035	690.416634	8.292786	-3.037768	0.413718	0.439990	1.201128
0.230	7.325806	-2.234034	690.260750	8.292596	-2.914297	0.396713	0.422202	1.201371
0.240	7.201832	-2.277954	690.223708	8.304248	-2.771960	0.377315	0.401603	1.203124
0.250	7.072618	-2.289759	690.302475	8.324302	-2.612264	0.356430	0.378423	1.205892
0.260	6.947980	-2.268399	690.469481	8.347050	-2.438017	0.335328	0.353096	1.208895
0.270	6.835762	-2.219859	690.679137	8.366659	-2.252674	0.315453	0.326153	1.211367
0.280	6.738847	-2.155725	690.877306	8.379182	-2.059223	0.298110	0.298059	1.212832
0.290	6.653240	-2.090401	691.013509	8.383647	-1.859065	0.284038	0.269035	1.213239
0.300	6.568282	-2.037406	691.053967	8.381905	-1.651389	0.273102	0.238967	1.212916
0.310	6.469009	-2.005733	690.991546	8.377509	-1.433379	0.264276	0.207438	1.212389
0.320	6.339796	-1.997614	690.848017	8.374220	-1.201278	0.255973	0.173885	1.212165
0.330	6.168220	-2.008661	690.666285	8.374765	-0.951924	0.246572	0.137827	1.212563
0.340	5.948202	-2.030274	690.494891	8.380190	-0.684178	0.234913	0.099085	1.213650
0.350	5.681648	-2.053064	690.371311	8.389765	-0.399605	0.220600	0.057883	1.215254
0.360	5.378068	-2.069767	690.311135	8.401176	-0.102100	0.204051	0.014790	1.217013
0.370	5.052205	-2.076732	690.306685	8.410909	0.203392	0.186307	-0.029464	1.218431
0.380	4.720309	-2.073950	690.333833	8.414940	0.512506	0.168695	-0.074240	1.218967
0.390	4.396170	-2.063950	690.362794	8.409810	0.822687	0.152447	-0.119167	1.218173
0.400	4.088150	-2.050125	690.368487	8.393845	1.133525	0.138388	-0.164191	1.215850
0.410	3.798169	-2.035184	690.337689	8.367999	1.446193	0.126782	-0.209491	1.212160
0.420	3.522974	-2.020469	690.271904	8.335866	1.762355	0.117368	-0.255313	1.207621
0.430	3.257094	-2.006295	690.185499	8.302724	2.083002	0.109547	-0.301803	1.202970
0.440	2.996132	-1.992813	690.099203	8.273961	2.407520	0.102699	-0.348866	1.198952
0.450	2.738874	-1.980665	690.031072	8.253438	2.733186	0.096505	-0.396096	1.196097
0.460	2.487498	-1.971180	689.989511	8.242397	3.055212	0.091152	-0.442791	1.194568
0.470	2.246377	-1.966262	689.972472	8.239288	3.367387	0.087298	-0.488047	1.194147
0.480	2.020762	-1.967935	689.972908	8.240490	3.663075	0.085799	-0.530901	1.194321
0.490	1.816261	-1.977425	689.986315	8.241534	3.936104	0.087326	-0.570461	1.194449
0.500	1.639028	-1.994123	690.015345	8.238255	4.181190	0.092055	-0.605956	1.193923
0.510	1.495895	-2.015361	690.068967	8.227467	4.393921	0.099591	-0.636737	1.192267
0.520	1.393838	-2.037457	690.157108	8.207111	4.570629	0.109177	-0.662259	1.189166
0.530	1.338750	-2.057302	690.283876	8.176171	4.708435	0.120109	-0.682101	1.184465
0.540	1.333954	-2.073214	690.442791	8.134724	4.805471	0.132111	-0.695998	1.178189
0.550	1.379028	-2.084620	690.616524	8.084228	4.861080	0.145453	-0.703875	1.170581
0.560	1.469439	-2.091326	690.781536	8.027776	4.875783	0.160751	-0.705836	1.162130
0.570	1.597285	-2.093339	690.915431	7.969877	4.851006	0.178603	-0.702113	1.153524
0.580	1.753085	-2.091307	691.003360	7.915538	4.788688	0.199295	-0.693005	1.145514
0.590	1.928190	-2.086894	691.040438	7.868857	4.690926	0.222736	-0.678821	1.138697
0.600	2.117133	-2.082535	691.029464	7.831599	4.559839	0.248560	-0.659862	1.133324
0.610	2.319062	-2.080566	690.975993	7.802411	4.397697	0.276232	-0.636447	1.129187
0.620	2.537460	-2.082120	690.884799	7.777147	4.207243	0.305011	-0.608964	1.125679
0.630	2.777805	-2.086303	690.761147	7.750400	3.992023	0.333822	-0.577916	1.122009
0.640	3.043799	-2.090119	690.616186	7.717649	3.756488	0.361257	-0.543933	1.117502
0.650	3.333834	-2.089361	690.471200	7.677059	3.505846	0.385818	-0.507747	1.111858
0.660	3.639654	-2.080237	690.355185	7.630151	3.245757	0.406392	-0.470158	1.105250
0.670	3.948198	-2.061143	690.294947	7.581070	2.982076	0.422729	-0.432000	1.098236
0.680	4.245804	-2.033843	690.302827	7.534812	2.720713	0.435667	-0.394133	1.091523
0.690	4.522500	-2.003450	690.369506	7.495185	2.467507	0.446878	-0.357418	1.085677
0.700	4.774116	-1.977004	690.466636	7.463453	2.228041	0.458197	-0.322686	1.080929
0.710	5.001183	-1.961062	690.558365	7.438289	2.007462	0.470768	-0.290701	1.077141
0.720	5.205332	-1.959336	690.615914	7.417004	1.810477	0.484454	-0.262154	1.073969
0.730	5.385244	-1.971601	690.628104	7.397251	1.641526	0.497800	-0.237686	1.071090
0.740	5.534588	-1.994522	690.603370	7.378166	1.504881	0.508590	-0.217908	1.068365
0.750	5.643335	-2.023915	690.563218	7.360288	1.404331	0.514743	-0.203360	1.065838
0.760	5.702028	-2.057055	690.530897	7.344406	1.342332	0.515133	-0.194391	1.063588
0.770	5.706903	-2.093561	690.520962	7.330093	1.318873	0.509940	-0.190997	1.061531
0.780	5.663289	-2.134308	690.534636	7.314889	1.330576	0.500408	-0.192688	1.059308
0.790	5.585431	-2.179137	690.562534	7.294752	1.370582	0.488238	-0.198473	1.056349
0.800	5.492508	-2.225149	690.592156	7.265641	1.429473	0.475001	-0.206992	1.052089
0.810	5.402523	-2.267100	690.615300	7.225493	1.497095	0.461819	-0.216777	1.046240
0.820	5.326894	-2.299902	690.631787	7.175529	1.564717	0.449298	-0.226563	1.038980
0.830	5.268229	-2.321521	690.648811	7.120134	1.626750	0.437568	-0.235539	1.030934
0.840	5.221872	-2.334196	690.677371	7.065225	1.681333	0.426406	-0.243432	1.022941
0.850	5.179729	-2.343161	690.727377	7.015778	1.729666	0.415479	-0.250412	1.015709
0.860	5.134083	-2.353924	690.802200	6.973665	1.774510	0.404655	-0.256877	1.009502
0.870	5.079843	-2.370027	690.893380	6.936785	1.818580	0.394174	-0.263221	1.004031
0.880	5.015040	-2.392495	690.977673	6.899950	1.863454	0.384542	-0.269684	0.998578
0.890	4.940390	-2.420727	691.019830	6.857073	1.909306	0.376237	-0.276303	0.992312
0.900	4.858787	-2.453568	690.982861	6.803621	1.955347	0.369418	-0.282981	0.984630
0.910	4.774812	-2.489677	690.842892	6.738212	2.000604	0.363806	-0.289589	0.975361
0.920	4.693760	-2.527392	690.601715	6.662822	2.044559	0.358756	-0.296055	0.964785
0.930	4.620033	-2.564910	690.290646	6.581734	2.087401	0.353445	-0.302394	0.953473
0.940	4.555536	-2.601156	689.964028	6.499762	2.129898	0.347063	-0.308697	0.942044
0.950	4.498984	-2.636747	689.685582	6.420465	2.173004	0.338965	-0.315072	0.930926
0.960	4.446552	-2.673999	689.512613	6.345087	2.217381	0.328765	-0.321587	0.920228
0.970	4.393651	-2.715533	689.482441	6.272657	2.263010	0.316425	-0.328219	0.909763
0.980	4.337175	-2.762200	689.604086	6.201114	2.309060	0.302279	-0.334839	0.899228
0.990	4.277314	-2.811887	689.856702	6.128679	2.353973	0.286943	-0.341226	0.888399
1.000	4.218082	-2.860322	690.194436	6.054697	2.395687	0.271118	-0.347103	0.877245
1.010	4.166206	-2.903525	690.555814	5.979667	2.431900	0.255354	-0.352166	0.865921
1.020	4.128936	-2.940320	690.875364	5.904794	2.460372	0.239915	-0.356124	0.854683
1.030	4.111849	-2.973291	691.095841	5.831561	2.479334	0.224843	-0.358754	0.843814
1.040	4.117559	-3.007697	691.179754	5.761529	2.488007	0.210243	-0.359965	0.833579
1.050	4.145422	-3.049121	691.118127	5.696129	2.487058	0.196637	-0.359860	0.824190
1.060	4.191626	-3.101154	690.933652	5.636157	2.478711	0.185113	-0.358748	0.815731
1.070	4.249236	-3.164044	690.676296	5.581055	2.466350	0.177084	-0.357092	0.808057
1.080	4.308504	-3.234445	690.411772	5.528552	2.453732	0.173691	-0.355401	0.800762
1.090	4.358256	-3.305961	690.205664	5.475190	2.444153	0.175143	-0.354120	0.793269
1.100	4.388476	-3.370336	690.107384	5.417733	2.439825	0.180386	-0.353543	0.785056
1.110	4.393263	-3.419429	690.138106	5.354665	2.441610	0.187325	-0.353786	0.775883
1.120	4.372843	-3.447864	690.285802	5.286775	2.449096	0.193484	-0.354794	0.765882
1.130	4.333703	-3.455461	690.508822	5.216399	2.460888	0.196790	-0.356388	0.755443
1.140	4.286688	-3.448105	690.747284	5.145856	2.474995	0.196199	-0.358307	0.744969
1.150	4.243707	-3.436270	690.938991	5.076104	2.489127	0.191997	-0.360253	0.734667
1.160	4.214263	-3.431713	691.035299	5.006375	2.500886	0.185730	-0.361904	0.724475
1.170	4.203145	-3.443748	691.013203	4.934943	2.507913	0.179744	-0.362933	0.714160
1.180	4.210064	-3.476454	690.881773	4.860512	2.508132	0.176438	-0.363034	0.703523
1.190	4.231152	-3.527616	690.681582	4.783443	2.500091	0.177475	-0.361975	0.692568
1.200	4.261358	-3.589597	690.475724	4.706128	2.483207	0.183277	-0.359637	0.681578
1.210	4.296462	-3.651842	690.332698	4.632278	2.457769	0.193074	-0.356027	0.671021
1.220	4.333958	-3.704171	690.304987	4.565428	2.424698	0.205471	-0.351250	0.661364
1.230	4.372949	-3.739696	690.410427	4.507429	2.385160	0.219166	-0.345470	0.652862
1.240	4.413713	-3.756421	690.624036	4.457762	2.340115	0.233414	-0.338841	0.645469
1.250	4.457573	-3.757153	690.884913	4.414080	2.289871	0.248069	-0.331440	0.638902
1.260	4.507226	-3.748009	691.116927	4.373684	2.233826	0.263358	-0.323220	0.632843
1.270	4.567131	-3.736118	691.255606	4.335047	2.170634	0.279589	-0.314013	0.627127
1.280	4.643058	-3.727264	691.270320	4.298606	2.098865	0.296914	-0.303624	0.621842
1.290	4.740125	-3.724252	691.172311	4.266561	2.017949	0.315171	-0.291960	0.617293
1.300	4.859803	-3.726596	691.005539	4.241943	1.929011	0.333827	-0.279160	0.613880
1.310	4.997495	-3.731582	690.825607	4.227390	1.835208	0.352033	-0.265654	0.611933
1.320	5.142384	-3.736039	690.677580	4.224031	1.741419	0.368773	-0.252132	0.611578
1.330	5.279956	-3.737858	690.583017	4.230849	1.653459	0.383065	-0.239429	0.612649
1.340	5.396174	-3.736604	690.540432	4.244731	1.577141	0.394175	-0.228392	0.614697
1.350	5.481467	-3.733186	690.535459	4.261228	1.517448	0.401778	-0.219749	0.617090
1.360	5.533033	-3.728999	690.552250	4.275786	1.477788	0.406023	-0.214001	0.619184
1.370	5.554833	-3.724933	690.579354	4.285054	1.459316	0.407492	-0.211318	0.620501
1.380	5.555570	-3.720667	690.609421	4.287752	1.460513	0.407030	-0.211482	0.620865
1.390	5.545561	-3.714609	690.636840	4.284756	1.477368	0.405528	-0.213914	0.620406
1.400	5.533540	-3.704613	690.656846	4.278495	1.504294	0.403709	-0.217806	0.619482
1.410	5.524251	-3.689184	690.666001	4.272089	1.535544	0.402001	-0.222328	0.618546
1.420	5.517464	-3.668584	690.662075	4.268555	1.566656	0.400554	-0.226834	0.618038
1.430	5.508722	-3.645202	690.643004	4.270159	1.595467	0.399383	-0.231012	0.618287
1.440	5.491604	-3.622831	690.606709	4.277907	1.622390	0.398563	-0.234922	0.619442
1.450	5.460590	-3.605094	690.553112	4.291381	1.649968	0.398298	-0.238934	0.621441
1.460	5.413209	-3.593828	690.487266	4.309116	1.681875	0.398771	-0.243578	0.624069
1.470	5.350627	-3.588340	690.420915	4.329394	1.721711	0.399844	-0.249371	0.627066
1.480	5.276729	-3.585819	690.370716	4.351010	1.771843	0.400883	-0.256651	0.630243
1.490	5.196444	-3.582518	690.353636	4.373562	1.832567	0.400935	-0.265453	0.633525
1.500	5.114141	-3.575018	690.381557	4.397230	1.901791	0.399223	-0.275470	0.636927
1.510	5.032636	-3.561116	690.456770	4.422316	1.975334	0.395604	-0.286091	0.640491
1.520	4.953042	-3.540259	690.569246	4.448942	2.047768	0.390679	-0.296533	0.644243
1.530	4.875457	-3.513627	690.696745	4.477030	2.113491	0.385463	-0.305994	0.648190
1.540	4.800249	-3.483849	690.809129	4.506383	2.167718	0.380860	-0.313794	0.652334
1.550	4.729488	-3.454218	690.876900	4.536609	2.207179	0.377267	-0.319475	0.656645
1.560	4.667867	-3.427431	690.881262	4.566978	2.230421	0.374515	-0.322837	0.661037
1.570	4.622507	-3.404314	690.821404	4.596614	2.237649	0.372115	-0.323911	0.665384
1.580	4.601317	-3.383281	690.715761	4.625174	2.230130	0.369604	-0.322872	0.669620
1.590	4.610372	-3.361022	690.596657	4.653584	2.209343	0.366776	-0.319918	0.673850
1.600	4.651438	-3.334219	690.500070	4.684202	2.176195	0.363672	-0.315162	0.678378
1.610	4.720955	-3.301407	690.453809	4.720190	2.130611	0.360436	-0.308581	0.683636
1.620	4.811072	-3.263827	690.468463	4.764450	2.071653	0.357179	-0.300036	0.690031
1.630	4.912417	-3.224609	690.535321	4.818717	1.997974	0.353922	-0.289337	0.697823
1.640	5.017458	-3.186662	690.632495	4.883205	1.908263	0.350565	-0.276307	0.707063
1.650	5.123049	-3.150549	690.735941	4.956793	1.801449	0.346865	-0.260801	0.717610
1.660	5.231283	-3.113703	690.829327	5.037578	1.676781	0.342502	-0.242720	0.729207
1.670	5.348703	-3.071551	690.907623	5.123485	1.534024	0.337261	-0.222030	0.741559
1.680	5.484404	-3.020046	690.973139	5.212690	1.373833	0.331238	-0.198826	0.754398
1.690	5.647432	-2.958246	691.027221	5.303640	1.198052	0.324927	-0.173373	0.767501
1.700	5.843832	-2.889312	691.063422	5.394693	1.009694	0.319144	-0.146107	0.780636
1.710	6.073989	-2.819123	691.066778	5.483688	0.812643	0.314827	-0.117593	0.793511
1.720	6.331210	-2.753349	691.019166	5.567907	0.611422	0.312751	-0.088481	0.805753
1.730	6.602272	-2.694896	690.906826	5.644635	0.411304	0.313227	-0.059531	0.816989
1.740	6.869978	-2.643145	690.726044	5.711986	0.218663	0.315910	-0.031657	0.826954
1.750	7.116821	-2.594931	690.485717	5.769465	0.041116	0.319842	-0.005955	0.835566
1.760	7.328272	-2.546302	690.207593	5.818045	-0.112937	0.323764	0.016363	0.842941
1.770	7.494581	-2.494153	689.924600	5.859925	-0.235324	0.326472	0.034109	0.849357
1.780	7.610980	-2.437286	689.676513	5.898154	-0.319303	0.327049	0.046297	0.855206
1.790	7.676945	-2.376842	689.502499	5.936147	-0.360584	0.324872	0.052296	0.860932
1.800	7.695253	-2.316111	689.432319	5.977088	-0.357997	0.319554	0.051926	0.866958
1.810	7.671232	-2.259789	689.479512	6.023355	-0.313744	0.310970	0.045504	0.873609
1.820	7.612431	-2.212733	689.638454	6.076169	-0.233294	0.299405	0.033828	0.881066
1.830	7.528710	-2.178519	689.884704	6.135603	-0.124913	0.285688	0.018106	0.889366
1.840	7.432311	-2.158313	690.177666	6.200823	0.001250	0.271157	-0.000181	0.898439
1.850	7.337063	-2.150562	690.466227	6.270255	0.134660	0.257417	-0.019503	0.908119
1.860	7.256097	-2.151639	690.698194	6.341516	0.266401	0.245923	-0.038570	0.918131
1.870	7.198467	-2.157105	690.832180	6.411302	0.391217	0.237555	-0.056630	0.928055
1.880	7.165990	-2.163000	690.848327	6.475683	0.508867	0.232367	-0.073658	0.937352
1.890	7.151855	-2.166599	690.753964	6.531017	0.624178	0.229656	-0.090362	0.945491
1.900	7.141917	-2.166417	690.582010	6.575218	0.745620	0.228327	-0.107970	0.952127
1.910	7.118484	-2.161736	690.382558	6.608627	0.882800	0.227396	-0.127871	0.957241
1.920	7.065353	-2.152161	690.210270	6.633809	1.043716	0.226370	-0.151217	0.961129
1.930	6.972297	-2.137591	690.111203	6.654198	1.232674	0.225326	-0.178620	0.964221
1.940	6.837425	-2.118527	690.112345	6.672296	1.449472	0.224650	-0.210034	0.966842
1.950	6.666626	-2.096382	690.216120	6.688433	1.689889	0.224643	-0.244835	0.969035
1.960	6.470292	-2.073583	690.400667	6.700795	1.947121	0.225228	-0.282028	0.970566
1.970	6.258668	-2.053457	690.625354	6.706633	2.213722	0.225912	-0.320539	0.971096
1.980	6.037935	-2.039740	690.839981	6.703888	2.483622	0.225976	-0.359508	0.970397
1.990	5.808713	-2.035359	690.995467	6.692306	2.753739	0.224759	-0.398518	0.968502
2.000	5.567149	-2.040514	691.053734	6.673613	3.024706	0.221897	-0.437695	0.965715
2.010	5.307224	-2.051035	690.995368	6.650917	3.300484	0.217423	-0.477642	0.962513
2.020	5.022563	-2.058639	690.824583	6.627925	3.587160	0.211700	-0.519258	0.959422
2.030	4.707096	-2.053905	690.570604	6.608349	3.891418	0.205239	-0.563508	0.956940
2.040	4.355281	-2.030856	690.283330	6.595565	4.219088	0.198532	-0.611211	0.955487
2.050	3.963131	-1.990459	690.021524	6.592239	4.573835	0.191978	-0.662854	0.955367
2.060	3.530544	-1.940732	689.835067	6.599808	4.955967	0.185934	-0.718428	0.956723
2.070	3.064106	-1.893224	689.747355	6.617936	5.361532	0.180776	-0.777318	0.959473
2.080	2.578752	-1.857772	689.746178	6.644329	5.782059	0.176917	-0.838288	0.963301
2.090	2.097030	-1.838286	689.788951	6.675148	6.205307	0.174739	-0.899595	0.967709
2.100	1.645932	-1.831566	689.821523	6.705937	6.616963	0.174495	-0.959228	0.972126
2.110	1.252415	-1.829594	689.802525	6.732640	7.002850	0.176244	-1.015196	0.976024
2.120	0.939036	-1.823984	689.721910	6.752288	7.351069	0.179859	-1.065802	0.978987
2.130	0.720685	-1.810346	689.605231	6.763229	7.653598	0.185131	-1.109852	0.980739
2.140	0.602837	-1.790479	689.502269	6.765014	7.907084	0.191893	-1.146781	0.981145
2.150	0.581465	-1.771515	689.465942	6.758185	8.112731	0.200044	-1.176669	0.980206
2.160	0.644467	-1.762591	689.531312	6.743993	8.275340	0.209392	-1.200140	0.978055
2.170	0.774205	-1.770661	689.703316	6.724054	8.401758	0.219438	-1.218170	0.974920
2.180	0.950739	-1.797436	689.957231	6.699939	8.499100	0.229285	-1.231830	0.971066
2.190	1.155161	-1.838900	690.250593	6.672893	8.573210	0.237766	-1.242043	0.966735
2.200	1.372025	-1.887524	690.540864	6.643837	8.627796	0.243730	-1.249426	0.962121
2.210	1.589882	-1.935822	690.800414	6.613602	8.664529	0.246329	-1.254274	0.957382
2.220	1.799798	-1.979222	691.021435	6.583183	8.684093	0.245234	-1.256704	0.952674
2.230	1.993168	-2.016865	691.209168	6.553768	8.687690	0.240735	-1.256883	0.948160
2.240	2.160639	-2.050388	691.368660	6.526549	8.678209	0.233716	-1.255222	0.944004
2.250	2.292989	-2.081835	691.493430	6.502415	8.660400	0.225491	-1.252420	0.940344
2.260	2.383400	-2.112011	691.562924	6.481717	8.639988	0.217570	-1.249342	0.937256
2.270	2.429811	-2.140034	691.550722	6.464114	8.622240	0.211386	-1.246798	0.934727
2.280	2.436112	-2.164122	691.439236	6.448419	8.610625	0.208044	-1.245319	0.932608
2.290	2.411568	-2.182902	691.232276	6.432450	8.605995	0.208067	-1.245022	0.930577
2.300	2.368518	-2.196292	690.958019	6.413103	8.606434	0.211209	-1.245580	0.928147
2.310	2.319141	-2.205462	690.661004	6.386948	8.607744	0.216460	-1.246305	0.924759
2.320	2.272582	-2.212304	690.387834	6.351316	8.604471	0.222356	-1.246324	0.919963
2.330	2.233727	-2.219006	690.173431	6.305411	8.591274	0.227502	-1.244799	0.913598
2.340	2.204254	-2.227867	690.032976	6.250818	8.564218	0.231074	-1.241132	0.905872
2.350	2.185354	-2.241012	689.961464	6.191062	8.521566	0.233082	-1.235078	0.897305
2.360	2.180450	-2.259873	689.940347	6.130413	8.463859	0.234339	-1.226752	0.888542
2.370	2.196121	-2.284696	689.948944	6.072475	8.393429	0.236180	-1.216529	0.880134
2.380	2.240510	-2.314355	689.976665	6.019232	8.313561	0.240046	-1.204905	0.872382
2.390	2.319935	-2.346641	690.030466	5.970885	8.227488	0.247017	-1.192337	0.865307
2.400	2.435273	-2.379030	690.132551	5.926329	8.137385	0.257455	-1.179105	0.858723
2.410	2.579632	-2.409767	690.307725	5.883779	8.043676	0.270847	-1.165231	0.852341
2.420	2.738454	-2.438674	690.566153	5.841199	7.944993	0.285899	-1.150504	0.845857
2.430	2.892528	-2.467066	690.890865	5.796540	7.838903	0.300811	-1.134608	0.838995
