Time[s]	Fx[N]	Fy[N]	Fz[N]	Mx[Nm]	My[Nm]	Mz[Nm]	COPx[cm]	COPy[cm]
0.010	2.630789	0.038432	501.409548	6.532358	7.818371	-0.083513	-1.559278	1.302799
0.020	2.646909	-0.017046	501.661189	6.553382	7.814603	-0.096035	-1.557745	1.306336
0.030	2.665062	-0.067464	501.870186	6.564094	7.805575	-0.107805	-1.555298	1.307927
0.040	2.686153	-0.110086	502.006516	6.557484	7.787613	-0.118259	-1.551297	1.306255
0.050	2.709855	-0.145532	502.058242	6.531896	7.759706	-0.127272	-1.545579	1.301024
0.060	2.735210	-0.177021	502.031924	6.491011	7.723656	-0.135065	-1.538479	1.292948
0.070	2.761485	-0.208278	501.948486	6.442058	7.683307	-0.141927	-1.530696	1.283410
0.080	2.788602	-0.241137	501.837585	6.393176	7.643186	-0.147938	-1.523040	1.273953
0.090	2.816693	-0.274191	501.731919	6.350926	7.607180	-0.152884	-1.516184	1.265801
0.100	2.844906	-0.303376	501.661147	6.318738	7.577760	-0.156450	-1.510534	1.259563
0.110	2.870246	-0.324193	501.645353	6.296588	7.555877	-0.158567	-1.506219	1.255187
0.120	2.887624	-0.334092	501.689442	6.281749	7.541346	-0.159638	-1.503190	1.252119
0.130	2.891618	-0.333538	501.780736	6.270167	7.533429	-0.160446	-1.501339	1.249583
0.140	2.879160	-0.325435	501.891902	6.257885	7.531363	-0.161766	-1.500595	1.246859
0.150	2.851508	-0.313705	501.989697	6.242019	7.534606	-0.163961	-1.500948	1.243456
0.160	2.814273	-0.302032	502.046924	6.221147	7.542683	-0.166823	-1.502386	1.239157
0.170	2.775498	-0.293219	502.052229	6.195286	7.554777	-0.169691	-1.504779	1.233992
0.180	2.742921	-0.289035	502.013103	6.165672	7.569356	-0.171749	-1.507800	1.228190
0.190	2.721738	-0.290198	501.951417	6.134437	7.584194	-0.172359	-1.510942	1.222118
0.200	2.713620	-0.296261	501.894643	6.104171	7.596935	-0.171304	-1.513651	1.216226
0.210	2.716969	-0.305575	501.867174	6.077431	7.605978	-0.168898	-1.515536	1.210964
0.220	2.728112	-0.315625	501.884769	6.056244	7.611168	-0.165900	-1.516517	1.206700
0.230	2.742946	-0.323855	501.952623	6.041641	7.613794	-0.163296	-1.516835	1.203628
0.240	2.758459	-0.328673	502.065520	6.033280	7.615913	-0.162031	-1.516916	1.201692
0.250	2.773550	-0.330208	502.208214	6.029337	7.619440	-0.162780	-1.517187	1.200565
0.260	2.788871	-0.330451	502.355926	6.026828	7.625554	-0.165819	-1.517958	1.199713
0.270	2.805809	-0.332729	502.477028	6.022315	7.634587	-0.170969	-1.519390	1.198525
0.280	2.824960	-0.340644	502.539993	6.012762	7.646177	-0.177657	-1.521506	1.196474
0.290	2.844756	-0.356898	502.523505	5.996199	7.659500	-0.185057	-1.524207	1.193218
0.300	2.860934	-0.382300	502.424795	5.972028	7.673544	-0.192304	-1.527302	1.188641
0.310	2.867344	-0.415166	502.261069	5.941043	7.687432	-0.198727	-1.530565	1.182860
0.320	2.858083	-0.451403	502.063277	5.905221	7.700695	-0.204057	-1.533810	1.176191
0.330	2.830257	-0.485616	501.866019	5.867261	7.713339	-0.208467	-1.536932	1.169089
0.340	2.785954	-0.513088	501.698225	5.829887	7.725727	-0.212399	-1.539915	1.162031
0.350	2.731981	-0.531642	501.577305	5.795154	7.738404	-0.216243	-1.542814	1.155386
0.360	2.677201	-0.542281	501.507875	5.763984	7.751982	-0.220130	-1.545735	1.149331
0.370	2.629040	-0.548367	501.484784	5.736092	7.767082	-0.223978	-1.548817	1.143822
0.380	2.591189	-0.554153	501.498353	5.710318	7.784292	-0.227654	-1.552207	1.138651
0.390	2.563529	-0.563535	501.538968	5.685275	7.804043	-0.231027	-1.556019	1.133566
0.400	2.543962	-0.579185	501.599688	5.660071	7.826426	-0.233844	-1.560293	1.128404
0.410	2.531048	-0.601848	501.677489	5.634718	7.851131	-0.235608	-1.564976	1.123175
0.420	2.526106	-0.629872	501.773573	5.610029	7.877605	-0.235658	-1.569952	1.118040
0.430	2.533536	-0.659421	501.891454	5.587070	7.905387	-0.233452	-1.575119	1.113203
0.440	2.558791	-0.685671	502.031304	5.566521	7.934367	-0.228876	-1.580453	1.108800
0.450	2.604700	-0.704561	502.182233	5.548221	7.964760	-0.222386	-1.586030	1.104822
0.460	2.668093	-0.714148	502.318059	5.530984	7.996710	-0.214919	-1.591962	1.101092
0.470	2.738849	-0.714892	502.402043	5.512720	8.029689	-0.207600	-1.598260	1.097273
0.480	2.802181	-0.709061	502.400447	5.490937	8.062076	-0.201355	-1.604711	1.092940
0.490	2.843121	-0.699906	502.298396	5.463572	8.091279	-0.196615	-1.610851	1.087714
0.500	2.851201	-0.691026	502.109673	5.429872	8.114501	-0.193248	-1.616081	1.081412
0.510	2.823532	-0.685842	501.875437	5.390910	8.129857	-0.190704	-1.619895	1.074153
0.520	2.765252	-0.687054	501.652275	5.349401	8.137284	-0.188259	-1.622096	1.066356
0.530	2.687508	-0.696117	501.494664	5.308877	8.138746	-0.185216	-1.622898	1.058611
0.540	2.604020	-0.712931	501.438600	5.272501	8.137552	-0.181047	-1.622841	1.051475
0.550	2.527549	-0.735838	501.491707	5.241912	8.137043	-0.175517	-1.622568	1.045264
0.560	2.467062	-0.762026	501.632246	5.216485	8.139295	-0.168789	-1.622562	1.039902
0.570	2.426024	-0.788307	501.816893	5.193341	8.144499	-0.161440	-1.623002	1.034908
0.580	2.402124	-0.812054	501.994792	5.168286	8.151285	-0.154311	-1.623779	1.029550
0.590	2.388539	-0.831942	502.122957	5.137409	8.157695	-0.148236	-1.624641	1.023138
0.600	2.376353	-0.848355	502.177236	5.098656	8.162182	-0.143778	-1.625359	1.015310
0.610	2.357300	-0.863332	502.155280	5.052659	8.164208	-0.141119	-1.625833	1.006195
0.620	2.326051	-0.879890	502.072327	5.002519	8.164311	-0.140125	-1.626122	0.996374
0.630	2.281629	-0.900615	501.953883	4.952763	8.163834	-0.140467	-1.626411	0.986697
0.640	2.227851	-0.925891	501.829139	4.907936	8.164473	-0.141702	-1.626943	0.978009
0.650	2.172710	-0.952720	501.725733	4.871249	8.167805	-0.143319	-1.627942	0.970899
0.660	2.126529	-0.975098	501.664316	4.843713	8.174913	-0.144872	-1.629558	0.965529
0.670	2.099088	-0.986164	501.653205	4.824011	8.186207	-0.146177	-1.631846	0.961623
0.680	2.096537	-0.981281	501.686506	4.809119	8.201448	-0.147407	-1.634775	0.958591
0.690	2.119226	-0.960507	501.748604	4.795368	8.219871	-0.148948	-1.638245	0.955731
0.700	2.161317	-0.929106	501.823105	4.779523	8.240334	-0.151101	-1.642079	0.952432
0.710	2.212392	-0.895748	501.900271	4.759670	8.261520	-0.153829	-1.646048	0.948330
0.720	2.260464	-0.869244	501.977882	4.735727	8.282183	-0.156715	-1.649910	0.943413
0.730	2.295322	-0.855456	502.055746	4.709434	8.301336	-0.159152	-1.653469	0.938030
0.740	2.311065	-0.855932	502.128843	4.683714	8.318302	-0.160616	-1.656607	0.932771
0.750	2.307155	-0.868717	502.184509	4.661491	8.332696	-0.160891	-1.659290	0.928243
0.760	2.287889	-0.890431	502.205633	4.644430	8.344415	-0.160151	-1.661553	0.924806
0.770	2.260589	-0.918010	502.178168	4.632141	8.353605	-0.158887	-1.663474	0.922410
0.780	2.233128	-0.949207	502.099500	4.622217	8.360510	-0.157719	-1.665110	0.920578
0.790	2.211667	-0.982170	501.984137	4.611123	8.365230	-0.157182	-1.666433	0.918580
0.800	2.199453	-1.014990	501.863521	4.595618	8.367588	-0.157634	-1.667304	0.915711
0.810	2.196973	-1.045653	501.778141	4.574155	8.367324	-0.159333	-1.667535	0.911589
0.820	2.203026	-1.072168	501.763488	4.547592	8.364497	-0.162576	-1.667020	0.906322
0.830	2.215961	-1.092570	501.835416	4.518809	8.359792	-0.167675	-1.665843	0.900456
0.840	2.234567	-1.104934	501.981802	4.491366	8.354409	-0.174720	-1.664285	0.894727
0.850	2.258399	-1.107646	502.164690	4.467962	8.349558	-0.183279	-1.662713	0.889740
0.860	2.287449	-1.099916	502.332357	4.449507	8.345838	-0.192293	-1.661418	0.885770
0.870	2.321445	-1.082227	502.436703	4.435194	8.342821	-0.200313	-1.660472	0.882737
0.880	2.359412	-1.056498	502.449316	4.423373	8.339056	-0.206004	-1.659681	0.880362
0.890	2.399920	-1.025970	502.369871	4.412693	8.332582	-0.208668	-1.658655	0.878375
0.900	2.441705	-0.994961	502.223659	4.402924	8.321799	-0.208497	-1.656991	0.876686
0.910	2.484021	-0.968483	502.050046	4.395099	8.306362	-0.206447	-1.654489	0.875430
0.920	2.526317	-0.951602	501.887996	4.390891	8.287721	-0.203813	-1.651309	0.874875
0.930	2.567340	-0.948445	501.765585	4.391550	8.269073	-0.201728	-1.647995	0.875219
0.940	2.604142	-0.960946	501.697241	4.396910	8.254686	-0.200791	-1.645352	0.876407
0.950	2.631708	-0.987714	501.687077	4.405006	8.248727	-0.200992	-1.644198	0.878039
0.960	2.643778	-1.023673	501.733172	4.412524	8.253932	-0.201954	-1.645084	0.879456
0.970	2.634903	-1.061107	501.828422	4.415957	8.270621	-0.203330	-1.648097	0.879973
0.980	2.603089	-1.092097	501.957916	4.412891	8.296443	-0.205091	-1.652816	0.879136
0.990	2.551940	-1.111360	502.096619	4.402823	8.326920	-0.207510	-1.658430	0.876888
1.000	2.491203	-1.117952	502.211396	4.387112	8.356476	-0.210882	-1.663936	0.873559
1.010	2.435125	-1.114854	502.268500	4.368210	8.379602	-0.215193	-1.668351	0.869696
1.020	2.398740	-1.106779	502.244345	4.348702	8.392010	-0.219965	-1.670902	0.865854
1.030	2.393131	-1.097578	502.135101	4.330713	8.391595	-0.224361	-1.671183	0.862460
1.040	2.421356	-1.088744	501.960031	4.315874	8.378949	-0.227478	-1.669246	0.859804
1.050	2.476882	-1.079714	501.755677	4.305628	8.357156	-0.228656	-1.665583	0.858112
1.060	2.545351	-1.069481	501.562885	4.301449	8.330994	-0.227684	-1.661007	0.857609
1.070	2.608913	-1.058235	501.413375	4.304641	8.305916	-0.224838	-1.656501	0.858502
1.080	2.651230	-1.047873	501.322642	4.315753	8.287156	-0.220777	-1.653058	0.860873
1.090	2.661393	-1.041220	501.291398	4.333992	8.279083	-0.216341	-1.651551	0.864565
1.100	2.635988	-1.040670	501.312603	4.357137	8.284695	-0.212263	-1.652600	0.869146
1.110	2.579356	-1.047176	501.378856	4.382111	8.305199	-0.208889	-1.656472	0.874012
1.120	2.502203	-1.060004	501.485728	4.405971	8.339700	-0.206047	-1.662999	0.878584
1.130	2.418714	-1.077034	501.629154	4.426847	8.385085	-0.203217	-1.671571	0.882494
1.140	2.342762	-1.095134	501.798782	4.444454	8.436274	-0.199939	-1.681207	0.885704
1.150	2.284516	-1.110471	501.972315	4.460066	8.486991	-0.196221	-1.690729	0.888508
1.160	2.248864	-1.118943	502.116001	4.476017	8.531008	-0.192667	-1.699011	0.891431
1.170	2.236071	-1.116901	502.192660	4.494918	8.563499	-0.190193	-1.705222	0.895059
1.180	2.243725	-1.102195	502.173887	4.518848	8.582057	-0.189487	-1.708981	0.899857
1.190	2.268420	-1.075382	502.051094	4.548782	8.587058	-0.190503	-1.710395	0.906040
1.200	2.306359	-1.040655	501.841251	4.584449	8.581371	-0.192309	-1.709977	0.913526
1.210	2.353129	-1.005652	501.585443	4.624621	8.569550	-0.193409	-1.708493	0.922001
1.220	2.403469	-0.979583	501.340114	4.667648	8.556740	-0.192362	-1.706773	0.931034
1.230	2.451557	-0.969950	501.162836	4.711958	8.547563	-0.188432	-1.705546	0.940205
1.240	2.491843	-0.979066	501.096536	4.756321	8.545305	-0.181940	-1.705321	0.949182
1.250	2.520075	-1.001911	501.157152	4.799803	8.551568	-0.174185	-1.706365	0.957744
1.260	2.534014	-1.026437	501.328868	4.841600	8.566404	-0.166948	-1.708739	0.965753
1.270	2.533450	-1.036618	501.568581	4.880993	8.588710	-0.161800	-1.712370	0.973146
1.280	2.519527	-1.017444	501.818033	4.917558	8.616696	-0.159567	-1.717096	0.979948
1.290	2.493844	-0.960174	502.019405	4.951431	8.648275	-0.160218	-1.722697	0.986303
1.300	2.457952	-0.865880	502.129784	4.983300	8.681429	-0.163133	-1.728921	0.992433
1.310	2.413577	-0.745959	502.131259	5.014025	8.714550	-0.167482	-1.735512	0.998549
1.320	2.363378	-0.619365	502.034527	5.044161	8.746722	-0.172485	-1.742255	1.004744
1.330	2.311700	-0.507392	501.874785	5.073718	8.777811	-0.177535	-1.749004	1.010953
1.340	2.264657	-0.427591	501.700576	5.102345	8.808290	-0.182280	-1.755687	1.017010
1.350	2.229168	-0.388791	501.559165	5.129804	8.838859	-0.186662	-1.762276	1.022771
1.360	2.211120	-0.388904	501.483668	5.156464	8.870003	-0.190861	-1.768752	1.028242
1.370	2.213237	-0.416297	501.486135	5.183443	8.901648	-0.195124	-1.775054	1.033616
1.380	2.233451	-0.454032	501.557630	5.212168	8.933025	-0.199595	-1.781057	1.039196
1.390	2.264529	-0.485228	501.673475	5.243549	8.962869	-0.204266	-1.786594	1.045212
1.400	2.295415	-0.497708	501.801098	5.277338	8.989908	-0.209094	-1.791528	1.051679
1.410	2.314203	-0.486736	501.908668	5.312145	9.013485	-0.214141	-1.795842	1.058389
1.420	2.311883	-0.455388	501.972885	5.346050	9.034045	-0.219591	-1.799708	1.065008
1.430	2.285353	-0.412680	501.983974	5.377314	9.053215	-0.225554	-1.803487	1.071212
1.440	2.238271	-0.370144	501.946625	5.404801	9.073339	-0.231781	-1.807630	1.076768
1.450	2.179320	-0.338149	501.877128	5.428027	9.096583	-0.237505	-1.812512	1.081545
1.460	2.118788	-0.323380	501.797802	5.447014	9.123964	-0.241541	-1.818255	1.085500
1.470	2.065138	-0.328111	501.730191	5.462192	9.154710	-0.242630	-1.824628	1.088671
1.480	2.022948	-0.350806	501.688977	5.474492	9.186258	-0.239857	-1.831066	1.091212
1.490	1.992738	-0.387084	501.678793	5.485556	9.214891	-0.232978	-1.836811	1.093440
1.500	1.972294	-0.430589	501.694913	5.497712	9.236864	-0.222523	-1.841132	1.095828
1.510	1.958591	-0.473831	501.727163	5.513472	9.249644	-0.209656	-1.843560	1.098898
1.520	1.949257	-0.509209	501.765255	5.534667	9.252812	-0.195864	-1.844052	1.103039
1.530	1.942992	-0.530147	501.803251	5.561700	9.248195	-0.182611	-1.842992	1.108343
1.540	1.939148	-0.532222	501.840969	5.593342	9.239016	-0.171117	-1.841025	1.114565
1.550	1.937335	-0.514096	501.881482	5.627200	9.228379	-0.162311	-1.838757	1.121221
1.560	1.937673	-0.478020	501.926476	5.660585	9.217819	-0.156847	-1.836488	1.127772
1.570	1.941537	-0.429637	501.973237	5.691347	9.206692	-0.155078	-1.834100	1.133795
1.580	1.952010	-0.376926	502.015805	5.718294	9.192730	-0.156911	-1.831163	1.139067
1.590	1.973337	-0.328492	502.049240	5.741086	9.173425	-0.161632	-1.827196	1.143530
1.600	2.009329	-0.291757	502.073113	5.759774	9.147418	-0.167846	-1.821930	1.147198
1.610	2.061394	-0.271569	502.090806	5.774371	9.115151	-0.173706	-1.815439	1.150065
1.620	2.127284	-0.269357	502.104303	5.784765	9.078540	-0.177440	-1.808099	1.152104
1.630	2.201400	-0.282724	502.108150	5.791039	9.040036	-0.177967	-1.800416	1.153345
1.640	2.276673	-0.305638	502.088299	5.794017	9.001657	-0.175298	-1.792843	1.153984
1.650	2.347110	-0.329638	502.028928	5.795715	8.964476	-0.170550	-1.785649	1.154458
1.660	2.409607	-0.346186	501.924170	5.799350	8.928677	-0.165585	-1.778890	1.155424
1.670	2.464027	-0.349495	501.787398	5.808714	8.894009	-0.162407	-1.772466	1.157605
1.680	2.511659	-0.338599	501.651907	5.827029	8.860337	-0.162518	-1.766232	1.161568
1.690	2.553339	-0.317563	501.561929	5.855697	8.827980	-0.166424	-1.760098	1.167492
1.700	2.588657	-0.293644	501.557485	5.893434	8.797592	-0.173477	-1.754055	1.175027
1.710	2.616625	-0.274228	501.658668	5.936235	8.769567	-0.182144	-1.748114	1.183322
1.720	2.637028	-0.263914	501.855056	5.978299	8.743319	-0.190599	-1.742200	1.191240
1.730	2.651331	-0.262964	502.105041	6.013657	8.716957	-0.197394	-1.736082	1.197689
1.740	2.662550	-0.267680	502.346992	6.037906	8.687795	-0.201849	-1.729441	1.201939
1.750	2.674205	-0.272557	502.518637	6.049409	8.653565	-0.204008	-1.722039	1.203818
1.760	2.688922	-0.273215	502.576182	6.049560	8.613739	-0.204252	-1.713917	1.203710
1.770	2.707313	-0.268611	502.504949	6.042157	8.570241	-0.202949	-1.705504	1.202408
1.780	2.727618	-0.261249	502.318911	6.032152	8.527125	-0.200407	-1.697552	1.200861
1.790	2.746248	-0.255266	502.052627	6.024227	8.489295	-0.197115	-1.690917	1.199919
1.800	2.758974	-0.253402	501.751327	6.021625	8.460761	-0.193984	-1.686246	1.200121
1.810	2.762238	-0.254521	501.462878	6.025598	8.443132	-0.192302	-1.683700	1.201604
1.820	2.754223	-0.253087	501.231999	6.035581	8.434983	-0.193335	-1.682850	1.204149
1.830	2.735650	-0.241165	501.095318	6.049839	8.432372	-0.197741	-1.682788	1.207323
1.840	2.710228	-0.212125	501.076328	6.066221	8.430268	-0.205166	-1.682432	1.210638
1.850	2.684460	-0.164255	501.180484	6.082713	8.424250	-0.214247	-1.680881	1.213677
1.860	2.666533	-0.102462	501.391769	6.097804	8.411779	-0.223055	-1.677686	1.216176
1.870	2.664497	-0.037149	501.672837	6.110696	8.392635	-0.229762	-1.672930	1.218064
1.880	2.684396	0.019274	501.970456	6.121385	8.368481	-0.233198	-1.667126	1.219471
1.890	2.728887	0.056754	502.225862	6.130553	8.341909	-0.233120	-1.660987	1.220677
1.900	2.796591	0.071040	502.387366	6.139326	8.315488	-0.230149	-1.655194	1.222030
1.910	2.882103	0.064945	502.421935	6.149054	8.291186	-0.225521	-1.650244	1.223882
1.920	2.976666	0.047064	502.323288	6.161148	8.270250	-0.220771	-1.646400	1.226530
1.930	3.069513	0.028509	502.114635	6.176837	8.253378	-0.217387	-1.643724	1.230165
1.940	3.149885	0.019086	501.844567	6.196690	8.241010	-0.216446	-1.642144	1.234783
1.950	3.209417	0.024456	501.575893	6.220036	8.233562	-0.218312	-1.641539	1.240099
1.960	3.244249	0.045159	501.369803	6.244633	8.231495	-0.222573	-1.641801	1.245514
1.970	3.256066	0.077321	501.270213	6.266878	8.235221	-0.228285	-1.642871	1.250200
1.980	3.251467	0.114329	501.293827	6.282556	8.244921	-0.234411	-1.644728	1.253268
1.990	3.239661	0.148829	501.429416	6.287937	8.260408	-0.240168	-1.647372	1.254002
2.000	3.229199	0.174579	501.645178	6.280896	8.281066	-0.245115	-1.650782	1.252059
2.010	3.225030	0.187835	501.898832	6.261680	8.305876	-0.249025	-1.654891	1.247598
2.020	3.227098	0.188004	502.145211	6.232918	8.333547	-0.251747	-1.659589	1.241258
2.030	3.231100	0.177401	502.340486	6.198741	8.362807	-0.253191	-1.664769	1.233972
2.040	3.230991	0.160016	502.446270	6.163356	8.392806	-0.253444	-1.670389	1.226670
2.050	3.221983	0.139560	502.436730	6.129711	8.423505	-0.252848	-1.676531	1.219997
2.060	3.202591	0.117620	502.307458	6.098769	8.455913	-0.251911	-1.683414	1.214151
2.070	3.174874	0.092935	502.080846	6.069525	8.492021	-0.251066	-1.691365	1.208874
2.080	3.143012	0.062182	501.803227	6.039604	8.534361	-0.250442	-1.700739	1.203580
2.090	3.111157	0.021673	501.533490	6.006192	8.585202	-0.249821	-1.711790	1.197565
2.100	3.081539	-0.031157	501.327067	5.967051	8.645739	-0.248829	-1.724571	1.190251
2.110	3.053320	-0.097046	501.220920	5.921338	8.715742	-0.247243	-1.738902	1.181383
2.120	3.022295	-0.174670	501.224696	5.869915	8.793909	-0.245208	-1.754484	1.171114
2.130	2.981530	-0.260342	501.321245	5.814991	8.878715	-0.243221	-1.771063	1.159933
2.140	2.922949	-0.347782	501.476088	5.759238	8.969212	-0.241888	-1.788562	1.148457
2.150	2.839488	-0.428791	501.651284	5.704900	9.065332	-0.241667	-1.807098	1.137224
2.160	2.727274	-0.495310	501.816666	5.653338	9.167595	-0.242748	-1.826881	1.126574
2.170	2.587274	-0.542077	501.953361	5.605116	9.276441	-0.245139	-1.848068	1.116661
2.180	2.426046	-0.568212	502.050314	5.560350	9.391537	-0.248803	-1.870637	1.107528
2.190	2.255391	-0.576625	502.099689	5.518986	9.511375	-0.253698	-1.894320	1.099181
2.200	2.091014	-0.571772	502.096803	5.480734	9.633241	-0.259681	-1.918602	1.091569
2.210	1.950374	-0.557498	502.044765	5.444741	9.753470	-0.266373	-1.942749	1.084513
2.220	1.849733	-0.536564	501.958636	5.409391	9.867852	-0.273111	-1.965870	1.077657
2.230	1.800451	-0.512058	501.863496	5.372632	9.972163	-0.279067	-1.987027	1.070536
2.240	1.805270	-0.489192	501.785571	5.332738	10.062793	-0.283439	-2.005397	1.062752
2.250	1.856182	-0.475599	501.741458	5.288950	10.137401	-0.285550	-2.020443	1.054119
2.260	1.935366	-0.479417	501.732716	5.241486	10.195442	-0.284791	-2.032047	1.044677
2.270	2.019465	-0.506277	501.749369	5.190975	10.238395	-0.280523	-2.040540	1.034575
2.280	2.085885	-0.556977	501.779046	5.137810	10.269534	-0.272133	-2.046625	1.023919
2.290	2.118762	-0.627091	501.814333	5.081866	10.293306	-0.259338	-2.051218	1.012698
2.300	2.112368	-0.708641	501.853267	5.022664	10.314454	-0.242585	-2.055273	1.000823
2.310	2.070940	-0.792997	501.894328	4.959832	10.337112	-0.223283	-2.059619	0.988222
2.320	2.005464	-0.873576	501.931392	4.893647	10.364113	-0.203641	-2.064846	0.974963
2.330	1.929009	-0.947133	501.952896	4.825393	10.396648	-0.186151	-2.071240	0.961324
2.340	1.852495	-1.013268	501.945494	4.757292	10.434288	-0.172913	-2.078769	0.947771
2.350	1.782400	-1.072810	501.899622	4.691934	10.475323	-0.165041	-2.087135	0.934835
2.360	1.720892	-1.126187	501.814111	4.631511	10.517399	-0.162318	-2.095875	0.922954
2.370	1.667695	-1.172676	501.698235	4.577325	10.558268	-0.163206	-2.104506	0.912366
2.380	1.622281	-1.210691	501.570902	4.529894	10.596343	-0.165291	-2.112631	0.903141
2.390	1.585173	-1.238662	501.457047	4.489531	10.630806	-0.166099	-2.119983	0.895297
2.400	1.557982	-1.255899	501.381520	4.456884	10.661339	-0.163994	-2.126393	0.888921
