Time[s]	Fx[N]	Fy[N]	Fz[N]	Mx[Nm]	My[Nm]	Mz[Nm]	COPx[cm]	COPy[cm]
0.010	3.220472	-3.648465	563.786429	1.304897	-16.316571	0.675512	2.894105	0.231452
0.020	3.242812	-3.605339	563.537963	1.264404	-16.276891	0.683073	2.888340	0.224369
0.030	3.272613	-3.574627	563.234031	1.223461	-16.245717	0.689520	2.884363	0.217221
0.040	3.313119	-3.563260	562.839653	1.182454	-16.228747	0.693900	2.883369	0.210087
0.050	3.361714	-3.570258	562.355939	1.143235	-16.227140	0.695589	2.885564	0.203294
0.060	3.410726	-3.588280	561.826479	1.108862	-16.237302	0.694440	2.890092	0.197367
0.070	3.450382	-3.608013	561.330365	1.082728	-16.252129	0.690886	2.895288	0.192886
0.080	3.472430	-3.622819	560.961885	1.067474	-16.263194	0.685964	2.899162	0.190293
0.090	3.472787	-3.631297	560.802621	1.064100	-16.263171	0.681184	2.899981	0.189746
0.100	3.452163	-3.636849	560.895695	1.071634	-16.247751	0.678188	2.896751	0.191058
0.110	3.414795	-3.644972	561.230930	1.087425	-16.216474	0.678283	2.889448	0.193757
0.120	3.366479	-3.659975	561.744577	1.107852	-16.172307	0.682000	2.878943	0.197216
0.130	3.313058	-3.682745	562.332624	1.129089	-16.120213	0.688836	2.866669	0.200787
0.140	3.259701	-3.710435	562.874678	1.147709	-16.065292	0.697291	2.854151	0.203901
0.150	3.210530	-3.737901	563.263468	1.161067	-16.011167	0.705229	2.842572	0.206132
0.160	3.168135	-3.759888	563.432026	1.167488	-15.959118	0.710451	2.832483	0.207210
0.170	3.132941	-3.772746	563.369606	1.166330	-15.908191	0.711326	2.823757	0.207028
0.180	3.102701	-3.774976	563.120670	1.158031	-15.856056	0.707272	2.815747	0.205645
0.190	3.072435	-3.766840	562.767370	1.144220	-15.800111	0.698963	2.807574	0.203320
0.200	3.035005	-3.749615	562.401873	1.127734	-15.738318	0.688183	2.798411	0.200521
0.210	2.982573	-3.724900	562.098589	1.112230	-15.669495	0.677353	2.787677	0.197871
0.220	2.908970	-3.694233	561.896730	1.101114	-15.593143	0.668881	2.775090	0.195964
0.230	2.812415	-3.659343	561.799189	1.096042	-15.509136	0.664549	2.760619	0.195095
0.240	2.697253	-3.623027	561.785392	1.095762	-15.417575	0.665107	2.744389	0.195050
0.250	2.573361	-3.589992	561.828639	1.096097	-15.318913	0.670173	2.726617	0.195095
0.260	2.452943	-3.566823	561.907606	1.091232	-15.214197	0.678420	2.707598	0.194201
0.270	2.346088	-3.560747	562.007617	1.075676	-15.105181	0.688002	2.687718	0.191399
0.280	2.257404	-3.577561	562.115108	1.045920	-14.994228	0.697064	2.667466	0.186069
0.290	2.185544	-3.619544	562.212796	1.001058	-14.884220	0.704178	2.647435	0.178057
0.300	2.125748	-3.684486	562.280861	0.942227	-14.778708	0.708537	2.628350	0.167572
0.310	2.073952	-3.766681	562.303500	0.871333	-14.682265	0.709842	2.611093	0.154958
0.320	2.030169	-3.859647	562.275992	0.789836	-14.600595	0.707958	2.596695	0.140471
0.330	1.999288	-3.958975	562.207597	0.698205	-14.539864	0.702601	2.586209	0.124190
0.340	1.988823	-4.063407	562.118880	0.596192	-14.505072	0.693342	2.580428	0.106061
0.350	2.004912	-4.173382	562.035249	0.483540	-14.498076	0.679965	2.579567	0.086034
0.360	2.048771	-4.288123	561.980102	0.360706	-14.516357	0.662908	2.583073	0.064185
0.370	2.115430	-4.403480	561.970354	0.229318	-14.553427	0.643435	2.589714	0.040806
0.380	2.195277	-4.512331	562.014791	0.092274	-14.600851	0.623392	2.597948	0.016419
0.390	2.277570	-4.607576	562.113530	-0.046557	-14.650893	0.604685	2.606394	-0.008282
0.400	2.354291	-4.685944	562.257215	-0.182998	-14.698603	0.588768	2.614213	-0.032547
0.410	2.422681	-4.750246	562.426969	-0.313344	-14.742668	0.576329	2.621259	-0.055713
0.420	2.485491	-4.808683	562.597427	-0.434896	-14.785050	0.567264	2.627998	-0.077301
0.430	2.549164	-4.871495	562.743303	-0.546017	-14.829894	0.560823	2.635286	-0.097028
0.440	2.621024	-4.946498	562.846740	-0.645777	-14.882219	0.555844	2.644098	-0.114734
0.450	2.706688	-5.035613	562.901478	-0.733449	-14.946701	0.551025	2.655296	-0.130298
0.460	2.808354	-5.133904	562.911958	-0.808180	-15.026680	0.545273	2.669455	-0.143571
0.470	2.924116	-5.231381	562.888738	-0.869096	-15.123405	0.538079	2.686749	-0.154399
0.480	3.048274	-5.316536	562.843398	-0.915838	-15.235540	0.529785	2.706888	-0.162716
0.490	3.172608	-5.379997	562.785700	-0.949196	-15.358996	0.521583	2.729102	-0.168660
0.500	3.288514	-5.416998	562.723849	-0.971333	-15.487299	0.515217	2.752202	-0.172613
0.510	3.389529	-5.428110	562.666248	-0.985360	-15.612647	0.512435	2.774762	-0.175123
0.520	3.473300	-5.418489	562.621694	-0.994479	-15.727545	0.514372	2.795403	-0.176758
0.530	3.541944	-5.396238	562.596361	-1.001157	-15.826476	0.521113	2.813114	-0.177953
0.540	3.600499	-5.370368	562.589654	-1.006629	-15.906925	0.531663	2.827447	-0.178928
0.550	3.654249	-5.348501	562.593209	-1.010835	-15.969380	0.544308	2.838531	-0.179674
0.560	3.706216	-5.334626	562.595026	-1.012741	-16.016407	0.557174	2.846880	-0.180012
0.570	3.755655	-5.327730	562.586248	-1.010886	-16.051249	0.568707	2.853118	-0.179685
0.580	3.797907	-5.322262	562.565811	-1.003953	-16.076529	0.577911	2.857715	-0.178460
0.590	3.825706	-5.310690	562.540014	-0.991171	-16.093521	0.584349	2.860867	-0.176196
0.600	3.831732	-5.287190	562.517915	-0.972504	-16.102239	0.588000	2.862529	-0.172884
0.610	3.811593	-5.250644	562.505681	-0.948746	-16.102191	0.589111	2.862583	-0.168664
0.620	3.766041	-5.205330	562.502511	-0.921580	-16.093423	0.588121	2.861040	-0.163836
0.630	3.701391	-5.158914	562.499444	-0.893494	-16.077336	0.585673	2.858196	-0.158843
0.640	3.627877	-5.118801	562.481913	-0.867381	-16.056756	0.582666	2.854626	-0.154206
0.650	3.556490	-5.088801	562.435970	-0.845805	-16.035079	0.580212	2.851005	-0.150382
0.660	3.495484	-5.067907	562.355725	-0.830171	-16.014790	0.579467	2.847804	-0.147624
0.670	3.447883	-5.051699	562.247753	-0.820229	-15.996136	0.581374	2.845033	-0.145884
0.680	3.410965	-5.035471	562.129677	-0.814190	-15.976688	0.586424	2.842171	-0.144840
0.690	3.377839	-5.017250	562.023732	-0.809360	-15.952065	0.594516	2.838326	-0.144008
0.700	3.340304	-4.999038	561.948610	-0.802812	-15.917480	0.604982	2.832551	-0.142862
0.710	3.291664	-4.985656	561.913105	-0.791728	-15.869316	0.616747	2.824158	-0.140899
0.720	3.228420	-4.981951	561.914041	-0.773470	-15.805989	0.628556	2.812884	-0.137649
0.730	3.150561	-4.990084	561.939302	-0.745782	-15.727917	0.639208	2.798864	-0.132716
0.740	3.060868	-5.008386	561.974731	-0.707424	-15.637076	0.647811	2.782523	-0.125882
0.750	2.963947	-5.032273	562.011891	-0.659010	-15.536785	0.654025	2.764494	-0.117259
0.760	2.865490	-5.056587	562.053283	-0.603546	-15.431852	0.658175	2.745621	-0.107382
0.770	2.771953	-5.078046	562.112259	-0.546090	-15.328625	0.661103	2.726969	-0.097150
0.780	2.690563	-5.096464	562.206444	-0.492419	-15.234427	0.663753	2.709757	-0.087587
0.790	2.629371	-5.114009	562.346363	-0.447030	-15.156356	0.666666	2.695199	-0.079494
0.800	2.596899	-5.132877	562.524779	-0.411362	-15.099911	0.669628	2.684310	-0.073128
0.810	2.600920	-5.152803	562.713665	-0.383140	-15.067979	0.671662	2.677735	-0.068088
0.820	2.646143	-5.170076	562.872041	-0.357285	-15.060465	0.671419	2.675646	-0.063475
0.830	2.731318	-5.178741	562.960887	-0.328093	-15.074531	0.667820	2.677723	-0.058280
0.840	2.847119	-5.173394	562.956783	-0.291764	-15.105229	0.660608	2.683195	-0.051827
0.850	2.976366	-5.152165	562.857574	-0.248224	-15.146231	0.650533	2.690953	-0.044101
0.860	3.097282	-5.118554	562.679313	-0.201349	-15.190441	0.639142	2.699662	-0.035784
0.870	3.188928	-5.081177	562.448912	-0.157322	-15.230570	0.628346	2.707903	-0.027971
0.880	3.236783	-5.051101	562.197676	-0.121699	-15.259905	0.619966	2.714331	-0.021647
0.890	3.236391	-5.037431	561.957712	-0.096518	-15.273359	0.615322	2.717884	-0.017175
0.900	3.193907	-5.042914	561.759900	-0.078918	-15.268534	0.614882	2.717982	-0.014048
0.910	3.123546	-5.061701	561.631489	-0.062052	-15.246273	0.618086	2.714640	-0.011048
0.920	3.043067	-5.080686	561.592560	-0.037853	-15.210384	0.623496	2.708438	-0.006740
0.930	2.969110	-5.084293	561.651559	-0.000219	-15.166663	0.629278	2.700369	-0.000039
0.940	2.914068	-5.060916	561.801049	0.052944	-15.121793	0.633829	2.691663	0.009424
0.950	2.885192	-5.008128	562.016212	0.119577	-15.082566	0.636261	2.683653	0.021276
0.960	2.885291	-4.934142	562.258687	0.194940	-15.055393	0.636544	2.677663	0.034671
0.970	2.913822	-4.854812	562.485440	0.273721	-15.045660	0.635302	2.674853	0.048663
0.980	2.967539	-4.787615	562.658763	0.351825	-15.056739	0.633401	2.675998	0.062529
0.990	3.040775	-4.745246	562.752902	0.427352	-15.088975	0.631570	2.681279	0.075940
1.000	3.125894	-4.731190	562.756190	0.500800	-15.139213	0.630188	2.690190	0.088991
1.010	3.214229	-4.738546	562.671331	0.574732	-15.201159	0.629273	2.701605	0.102143
1.020	3.297245	-4.752257	562.516470	0.653099	-15.266466	0.628616	2.713959	0.116103
1.030	3.367441	-4.753910	562.325747	0.740280	-15.326301	0.627950	2.725520	0.131646
1.040	3.418825	-4.727477	562.145127	0.839965	-15.373090	0.627084	2.734719	0.149421
1.050	3.447108	-4.664023	562.021297	0.954160	-15.402079	0.626023	2.740480	0.169773
1.060	3.449949	-4.563915	561.986642	1.082669	-15.412290	0.625058	2.742466	0.192650
1.070	3.427508	-4.436161	562.046616	1.223207	-15.406554	0.624785	2.741152	0.217634
1.080	3.383264	-4.295538	562.175355	1.371942	-15.390577	0.625996	2.737683	0.244042
1.090	3.324529	-4.158722	562.322477	1.524123	-15.371249	0.629443	2.733529	0.271041
1.100	3.261901	-4.040402	562.429772	1.674528	-15.354699	0.635535	2.730065	0.297731
1.110	3.207354	-3.949998	562.451808	1.817781	-15.344693	0.644048	2.728179	0.323189
1.120	3.171267	-3.889609	562.371847	1.948755	-15.341871	0.653971	2.728065	0.346524
1.130	3.159168	-3.853990	562.206792	2.063315	-15.343989	0.663641	2.729243	0.367003
1.140	3.169420	-3.832975	562.000958	2.159290	-15.346890	0.671204	2.730759	0.384215
1.150	3.193071	-3.815598	561.813224	2.237143	-15.345756	0.675220	2.731469	0.398200
1.160	3.216281	-3.794131	561.702504	2.299818	-15.336318	0.675197	2.730328	0.409437
1.170	3.224411	-3.766273	561.714224	2.351788	-15.315864	0.671840	2.726629	0.418680
1.180	3.206110	-3.734731	561.869100	2.397902	-15.283916	0.666915	2.720192	0.426772
1.190	3.156167	-3.704692	562.155844	2.442606	-15.242395	0.662729	2.711418	0.434507
1.200	3.076770	-3.680587	562.529941	2.489616	-15.195225	0.661330	2.701230	0.442575
1.210	2.977191	-3.663792	562.919810	2.541740	-15.147611	0.663758	2.690900	0.451528
1.220	2.871893	-3.652273	563.240036	2.600638	-15.105220	0.669658	2.681844	0.461728
1.230	2.777337	-3.641959	563.409682	2.666585	-15.073372	0.677479	2.675384	0.473294
1.240	2.708308	-3.628818	563.372186	2.738458	-15.056212	0.685183	2.672516	0.486083
1.250	2.674829	-3.610616	563.112167	2.814056	-15.055914	0.691142	2.673697	0.499733
1.260	2.680351	-3.587803	562.664327	2.890715	-15.072047	0.694796	2.678692	0.513755
1.270	2.721385	-3.563248	562.110633	2.965976	-15.101263	0.696757	2.686529	0.527650
1.280	2.788381	-3.540878	561.564309	3.038023	-15.137505	0.698324	2.695596	0.540993
1.290	2.867590	-3.523910	561.143126	3.105725	-15.172973	0.700704	2.703940	0.553464
1.300	2.943631	-3.513747	560.938642	3.168281	-15.199994	0.704356	2.709743	0.564818
1.310	3.002457	-3.510183	560.990479	3.224579	-15.213421	0.708759	2.711886	0.574801
1.320	3.034304	-3.512522	561.274165	3.272585	-15.212655	0.712686	2.710379	0.583064
1.330	3.035930	-3.520562	561.707422	3.309231	-15.202205	0.714791	2.706428	0.589138
1.340	3.011364	-3.534658	562.173628	3.331190	-15.190254	0.714215	2.702057	0.592555
1.350	2.970733	-3.554989	562.554666	3.336398	-15.185710	0.710899	2.699419	0.593080
1.360	2.927440	-3.580919	562.761903	3.325582	-15.194981	0.705469	2.700073	0.590939
1.370	2.894607	-3.611180	562.755835	3.302873	-15.219849	0.698773	2.704521	0.586911
1.380	2.881811	-3.644771	562.550823	3.275014	-15.257149	0.691353	2.712137	0.582172
1.390	2.892917	-3.681707	562.207101	3.249411	-15.300130	0.683180	2.721440	0.577974
1.400	2.925561	-3.722728	561.814595	3.231936	-15.340714	0.673819	2.730565	0.575267
1.410	2.972438	-3.767853	561.472261	3.225476	-15.371770	0.662914	2.737761	0.574468
1.420	3.023811	-3.814865	561.265745	3.229739	-15.388717	0.650672	2.741788	0.575438
1.430	3.070213	-3.859126	561.247265	3.242077	-15.390180	0.638028	2.742139	0.577656
1.440	3.104551	-3.895222	561.423219	3.258739	-15.377811	0.626379	2.739076	0.580443
1.450	3.123428	-3.919358	561.754067	3.276078	-15.355520	0.617084	2.733495	0.583187
1.460	3.127800	-3.930842	562.166902	3.291549	-15.328480	0.611003	2.726678	0.585511
1.470	3.122852	-3.931651	562.576215	3.304435	-15.302200	0.608298	2.720023	0.587375
1.480	3.116776	-3.924597	562.905775	3.316069	-15.281741	0.608501	2.714796	0.589098
1.490	3.118394	-3.911532	563.105003	3.329380	-15.270990	0.610714	2.711926	0.591254
1.500	3.134274	-3.892960	563.155877	3.347777	-15.271925	0.613862	2.711847	0.594467
1.510	3.166470	-3.869289	563.069897	3.373666	-15.284090	0.616934	2.714421	0.599156
1.520	3.211819	-3.842829	562.878260	3.407128	-15.304644	0.619236	2.718997	0.605305
1.530	3.262903	-3.819139	562.620545	3.445447	-15.329202	0.620600	2.724608	0.612393
1.540	3.310037	-3.806715	562.336782	3.483975	-15.353213	0.621463	2.730252	0.619553
1.550	3.343474	-3.814727	562.064888	3.518078	-15.373250	0.622717	2.735138	0.625920
1.560	3.355383	-3.849335	561.841722	3.545149	-15.387685	0.625333	2.738794	0.630987
1.570	3.341511	-3.909921	561.703581	3.565495	-15.396625	0.629918	2.741059	0.634764
1.580	3.302447	-3.987175	561.682499	3.581630	-15.401491	0.636407	2.742028	0.637661
1.590	3.244202	-4.064680	561.797827	3.596533	-15.404668	0.644049	2.742031	0.640183
1.600	3.177777	-4.123989	562.046225	3.611984	-15.409343	0.651707	2.741650	0.642649
1.610	3.117487	-4.151249	562.395166	3.627815	-15.419277	0.658306	2.741716	0.645065
1.620	3.078130	-4.142546	562.784295	3.642198	-15.438275	0.663165	2.743196	0.647175
1.630	3.071591	-4.105815	563.136013	3.652608	-15.469412	0.665999	2.747012	0.648619
1.640	3.104053	-4.058588	563.372891	3.656963	-15.514247	0.666666	2.753815	0.649119
1.650	3.174800	-4.022329	563.436505	3.654487	-15.572213	0.664946	2.763792	0.648607
1.660	3.276697	-4.015325	563.301539	3.645966	-15.640292	0.660587	2.776540	0.647249
1.670	3.397429	-4.046808	562.981404	3.633379	-15.713136	0.653610	2.791058	0.645382
1.680	3.520662	-4.114507	562.525908	3.619247	-15.783750	0.644633	2.805871	0.643392
1.690	3.627394	-4.206200	562.013942	3.606086	-15.844659	0.634915	2.819264	0.641636
1.700	3.698590	-4.304066	561.542871	3.596157	-15.889272	0.626025	2.829574	0.640407
1.710	3.719623	-4.389723	561.213762	3.591528	-15.913066	0.619267	2.835473	0.639957
1.720	3.685387	-4.448324	561.111292	3.594258	-15.914300	0.615183	2.836211	0.640561
1.730	3.603659	-4.470983	561.280162	3.606471	-15.894243	0.613402	2.831784	0.642544
1.740	3.494576	-4.455598	561.704556	3.630003	-15.857101	0.612879	2.823032	0.646248
1.750	3.385793	-4.406404	562.300711	3.665632	-15.809679	0.612380	2.811606	0.651899
1.760	3.304769	-4.332703	562.930908	3.712305	-15.760631	0.611008	2.799745	0.659460
1.770	3.270854	-4.247196	563.438742	3.766972	-15.719126	0.608609	2.789855	0.668568
1.780	3.289944	-4.163976	563.694848	3.825343	-15.693067	0.605893	2.783965	0.678620
1.790	3.353582	-4.095743	563.636401	3.883291	-15.687308	0.604147	2.783232	0.688971
1.800	3.442657	-4.050270	563.286114	3.938241	-15.702449	0.604627	2.787651	0.699155
1.810	3.534112	-4.027329	562.744411	3.989911	-15.734625	0.607925	2.796052	0.709009
1.820	3.607944	-4.018009	562.157585	4.040083	-15.776402	0.613685	2.806402	0.718675
1.830	3.651858	-4.007549	561.672652	4.091490	-15.818520	0.620795	2.816324	0.728447
1.840	3.662199	-3.980890	561.394792	4.146351	-15.851950	0.627921	2.823672	0.738580
1.850	3.641798	-3.928634	561.362351	4.205290	-15.869689	0.634060	2.826996	0.749122
1.860	3.596926	-3.850732	561.546264	4.267087	-15.867947	0.638853	2.825759	0.759882
1.870	3.535408	-3.756358	561.869945	4.329229	-15.846652	0.642549	2.820342	0.770504
1.880	3.466414	-3.660320	562.238563	4.388844	-15.809393	0.645718	2.811866	0.780602
1.890	3.400805	-3.577833	562.566145	4.443538	-15.762795	0.648864	2.801945	0.789869
1.900	3.350449	-3.519810	562.793043	4.491866	-15.715334	0.652152	2.792382	0.798138
1.910	3.325790	-3.490110	562.891546	4.533379	-15.675592	0.655348	2.784833	0.805373
1.920	3.332327	-3.485195	562.861580	4.568341	-15.650237	0.657962	2.780477	0.811628
1.930	3.367809	-3.495990	562.721181	4.597246	-15.642236	0.659509	2.779749	0.816967
1.940	3.421860	-3.511344	562.497616	4.620353	-15.649881	0.659785	2.782213	0.821399
1.950	3.478627	-3.522127	562.223472	4.637397	-15.667022	0.659045	2.786618	0.824832
1.960	3.521564	-3.524575	561.937626	4.647558	-15.684591	0.657965	2.791162	0.827059
1.970	3.538433	-3.521477	561.686892	4.649707	-15.693075	0.657376	2.793919	0.827811
1.980	3.524583	-3.520491	561.523193	4.643031	-15.685239	0.657892	2.793338	0.826864
1.990	3.483420	-3.530159	561.493594	4.628018	-15.658122	0.659608	2.788656	0.824233
2.000	3.424160	-3.555302	561.624781	4.607320	-15.613530	0.662013	2.780064	0.820356
2.010	3.358127	-3.593837	561.907803	4.585780	-15.556904	0.664124	2.768587	0.816109
2.020	3.295303	-3.636569	562.290935	4.569294	-15.495231	0.664788	2.755732	0.812621
2.030	3.242398	-3.670270	562.686970	4.562980	-15.434928	0.663049	2.743075	0.810927
2.040	3.202668	-3.682977	562.996063	4.569576	-15.380504	0.658505	2.731903	0.811653
2.050	3.176694	-3.669311	563.138019	4.588842	-15.334289	0.651524	2.723007	0.814870
2.060	3.163138	-3.633442	563.081504	4.618054	-15.297014	0.643186	2.716661	0.820139
2.070	3.158925	-3.588207	562.856590	4.653119	-15.268657	0.634925	2.712708	0.826697
2.080	3.159157	-3.550579	562.543618	4.689742	-15.248935	0.628002	2.710712	0.833667
2.090	3.157471	-3.535261	562.243060	4.724270	-15.237219	0.623044	2.710077	0.840254
2.100	3.147372	-3.548921	562.040413	4.754155	-15.232168	0.619859	2.710155	0.845874
2.110	3.124324	-3.587328	561.981055	4.778069	-15.231558	0.617588	2.710333	0.850219
2.120	3.087714	-3.636640	562.062751	4.795790	-15.232570	0.615103	2.710119	0.853248
2.130	3.041554	-3.678462	562.244184	4.807960	-15.232444	0.611487	2.709222	0.855137
2.140	2.993307	-3.696688	562.462478	4.815817	-15.229120	0.606474	2.707580	0.856202
2.150	2.951296	-3.683280	562.652336	4.820966	-15.221529	0.600697	2.705317	0.856829
2.160	2.922020	-3.640651	562.761477	4.825220	-15.209429	0.595599	2.702642	0.857418
2.170	2.908602	-3.579954	562.759807	4.830500	-15.192977	0.592960	2.699727	0.858359
2.180	2.910620	-3.516393	562.642649	4.838724	-15.172429	0.594215	2.696637	0.859999
2.190	2.924653	-3.463646	562.430126	4.851635	-15.148247	0.599879	2.693356	0.862620
2.200	2.944928	-3.429509	562.164156	4.870442	-15.121505	0.609378	2.689874	0.866374
2.210	2.964094	-3.414181	561.902301	4.895285	-15.094119	0.621343	2.686253	0.871199
2.220	2.974441	-3.411578	561.706982	4.924742	-15.068454	0.634189	2.682618	0.876746
2.230	2.969681	-3.412813	561.630711	4.955728	-15.046413	0.646676	2.679058	0.882382
2.240	2.946902	-3.410117	561.701427	4.984028	-15.028591	0.658182	2.675548	0.887309
2.250	2.907967	-3.399653	561.913333	5.005362	-15.014149	0.668592	2.671969	0.890771
2.260	2.859628	-3.382566	562.226387	5.016602	-15.001639	0.677921	2.668256	0.892274
2.270	2.812098	-3.364389	562.573966	5.016666	-14.990351	0.685937	2.664601	0.891735
2.280	2.776486	-3.353120	562.876584	5.006669	-14.981338	0.692074	2.661567	0.889479
2.290	2.762023	-3.356393	563.059567	4.989333	-14.977406	0.695735	2.660004	0.886111
2.300	2.773949	-3.378472	563.071989	4.967976	-14.981949	0.696784	2.660752	0.882299
2.310	2.812507	-3.418198	562.902352	4.945548	-14.997272	0.695867	2.664276	0.878580
2.320	2.873004	-3.468898	562.585644	4.924005	-15.023258	0.694276	2.670395	0.875245
2.330	2.946735	-3.520462	562.197920	4.904177	-15.056950	0.693411	2.678229	0.872322
2.340	3.022410	-3.562728	561.838142	4.886100	-15.093065	0.694164	2.686372	0.869663
2.350	3.087644	-3.588705	561.601449	4.869603	-15.125084	0.696607	2.693206	0.867092
2.360	3.130288	-3.596347	561.551519	4.854754	-15.146419	0.700085	2.697245	0.864525
2.370	3.139692	-3.588321	561.700898	4.841848	-15.151398	0.703525	2.697414	0.861998
2.380	3.108182	-3.570065	562.006309	4.831023	-15.136061	0.705738	2.693219	0.859603
