Time[s]	Fx[N]	Fy[N]	Fz[N]	Mx[Nm]	My[Nm]	Mz[Nm]	COPx[cm]	COPy[cm]
0.010	6.990256	1.696220	533.001208	0.084000	2.413486	0.062939	-0.452811	0.015760
0.020	6.980519	1.663869	532.849004	0.104330	2.434154	0.050276	-0.456819	0.019580
0.030	6.963249	1.632392	532.711224	0.116482	2.458770	0.039285	-0.461558	0.021866
0.040	6.934476	1.604493	532.600705	0.115441	2.488895	0.031135	-0.467310	0.021675
0.050	6.895071	1.584278	532.526672	0.100874	2.523091	0.026286	-0.473796	0.018942
0.060	6.849513	1.575777	532.495072	0.076727	2.557623	0.024452	-0.480309	0.014409
0.070	6.803191	1.580895	532.508121	0.049159	2.588087	0.024782	-0.486018	0.009232
0.080	6.759953	1.598057	532.562142	0.023927	2.610905	0.026160	-0.490254	0.004493
0.090	6.721175	1.622239	532.645716	0.004479	2.624040	0.027509	-0.492643	0.000841
0.100	6.686634	1.646253	532.740935	-0.008540	2.626884	0.028068	-0.493088	-0.001603
0.110	6.656526	1.662739	532.828070	-0.016515	2.619705	0.027578	-0.491660	-0.003100
0.120	6.633306	1.666279	532.891157	-0.021576	2.603063	0.026326	-0.488479	-0.004049
0.130	6.621943	1.655028	532.921880	-0.025561	2.577462	0.024960	-0.483647	-0.004796
0.140	6.628054	1.631250	532.921044	-0.029573	2.543300	0.024127	-0.477238	-0.005549
0.150	6.654895	1.600525	532.897933	-0.033973	2.501002	0.024082	-0.469321	-0.006375
0.160	6.701159	1.569984	532.867501	-0.038452	2.451160	0.024511	-0.459994	-0.007216
0.170	6.761009	1.546260	532.845393	-0.042103	2.394608	0.024673	-0.449400	-0.007902
0.180	6.826096	1.533772	532.842184	-0.043632	2.332533	0.023850	-0.437753	-0.008189
0.190	6.888105	1.533701	532.859460	-0.041888	2.266547	0.021828	-0.425356	-0.007861
0.200	6.940641	1.543909	532.889751	-0.036557	2.198545	0.019134	-0.412570	-0.006860
0.210	6.980340	1.559872	532.920431	-0.028615	2.130208	0.016842	-0.399724	-0.005369
0.220	7.007582	1.576337	532.940066	-0.020108	2.062349	0.016053	-0.386976	-0.003773
0.230	7.026698	1.589091	532.944915	-0.013234	1.994480	0.017381	-0.374237	-0.002483
0.240	7.045163	1.596146	532.942799	-0.009170	1.924939	0.020771	-0.361190	-0.001721
0.250	7.071696	1.597809	532.951726	-0.007363	1.851591	0.025727	-0.347422	-0.001382
0.260	7.113767	1.595692	532.992424	-0.005727	1.772831	0.031730	-0.332618	-0.001074
0.270	7.175348	1.591353	533.076963	-0.001619	1.688394	0.038521	-0.316726	-0.000304
0.280	7.255658	1.585469	533.198578	0.006954	1.599520	0.046064	-0.299986	0.001304
0.290	7.349533	1.577998	533.328575	0.020481	1.508310	0.054259	-0.282811	0.003840
0.300	7.449573	1.569020	533.423320	0.037752	1.416620	0.062635	-0.265571	0.007077
0.310	7.549277	1.559503	533.438884	0.056407	1.325155	0.070274	-0.248417	0.010574
0.320	7.645562	1.551310	533.346473	0.073967	1.233337	0.076075	-0.231245	0.013868
0.330	7.739077	1.546496	533.141992	0.088824	1.140011	0.079235	-0.213829	0.016660
0.340	7.831964	1.546446	532.847386	0.100617	1.044535	0.079687	-0.196029	0.018883
0.350	7.924407	1.551470	532.505663	0.109943	0.947653	0.078205	-0.177961	0.020646
0.360	8.012244	1.560915	532.172554	0.117814	0.851751	0.076087	-0.160052	0.022138
0.370	8.087260	1.573382	531.906355	0.125379	0.760465	0.074590	-0.142970	0.023572
0.380	8.139957	1.586753	531.756580	0.133952	0.677847	0.074421	-0.127473	0.025190
0.390	8.163244	1.598339	531.753010	0.144996	0.607290	0.075547	-0.114205	0.027267
0.400	8.155324	1.605655	531.898093	0.159713	0.550517	0.077383	-0.103501	0.030027
0.410	8.120833	1.607732	532.165308	0.178410	0.507005	0.079199	-0.095272	0.033525
0.420	8.070048	1.606029	532.504264	0.200130	0.474187	0.080485	-0.089049	0.037583
0.430	8.016514	1.603958	532.851444	0.222958	0.448417	0.081130	-0.084154	0.041842
0.440	7.973775	1.604933	533.144472	0.244822	0.426179	0.081396	-0.079937	0.045920
0.450	7.952048	1.610039	533.336827	0.264284	0.404970	0.081798	-0.075931	0.049553
0.460	7.955694	1.616933	533.408765	0.280892	0.383548	0.082961	-0.071905	0.052660
0.470	7.982174	1.620890	533.370176	0.295031	0.361700	0.085413	-0.067814	0.055314
0.480	8.022919	1.617574	533.253710	0.307515	0.339790	0.089324	-0.063720	0.057668
0.490	8.065832	1.606001	533.101216	0.319214	0.318336	0.094286	-0.059714	0.059879
0.500	8.098609	1.589950	532.950019	0.330864	0.297699	0.099311	-0.055859	0.062082
0.510	8.111912	1.576884	532.825004	0.342993	0.277903	0.103095	-0.052157	0.064373
0.520	8.101685	1.574837	532.738413	0.355838	0.258617	0.104424	-0.048545	0.066794
0.530	8.070110	1.588778	532.694566	0.369202	0.239293	0.102527	-0.044921	0.069308
0.540	8.024913	1.618173	532.694528	0.382366	0.219460	0.097284	-0.041198	0.071780
0.550	7.977033	1.656794	532.737154	0.394211	0.199046	0.089261	-0.037363	0.073997
0.560	7.937277	1.694876	532.816605	0.403606	0.178566	0.079565	-0.033514	0.075749
0.570	7.912990	1.722753	532.919567	0.409918	0.159020	0.069515	-0.029839	0.076919
0.580	7.905912	1.734415	533.025657	0.413293	0.141507	0.060222	-0.026548	0.077537
0.590	7.912027	1.729366	533.112212	0.414429	0.126727	0.052269	-0.023771	0.077738
0.600	7.923422	1.711991	533.161455	0.413941	0.114670	0.045654	-0.021508	0.077639
0.610	7.931203	1.689037	533.165998	0.411769	0.104673	0.039968	-0.019632	0.077231
0.620	7.928178	1.666824	533.129337	0.407080	0.095725	0.034690	-0.017955	0.076357
0.630	7.910502	1.649644	533.061534	0.398731	0.086789	0.029456	-0.016281	0.074800
0.640	7.878230	1.639665	532.973761	0.385991	0.077039	0.024243	-0.014455	0.072422
0.650	7.834991	1.637558	532.875579	0.369134	0.066091	0.019468	-0.012403	0.069272
0.660	7.786788	1.642863	532.775845	0.349681	0.054276	0.015928	-0.010187	0.065634
0.670	7.740002	1.653745	532.685059	0.330205	0.042817	0.014503	-0.008038	0.061989
0.680	7.699252	1.666606	532.616327	0.313677	0.033721	0.015693	-0.006331	0.058894
0.690	7.666148	1.676458	532.583661	0.302439	0.029316	0.019253	-0.005504	0.056787
0.700	7.639611	1.678382	532.597805	0.297112	0.031457	0.024170	-0.005906	0.055785
0.710	7.617384	1.669413	532.660861	0.296001	0.040591	0.028993	-0.007620	0.055570
0.720	7.597687	1.649564	532.762411	0.295486	0.055100	0.032278	-0.010342	0.055463
0.730	7.580227	1.621338	532.880513	0.291363	0.071389	0.032946	-0.013397	0.054677
0.740	7.566356	1.588297	532.988607	0.280502	0.084877	0.030458	-0.015925	0.052628
0.750	7.558524	1.553844	533.065211	0.261977	0.091523	0.024844	-0.017169	0.049145
0.760	7.559106	1.520921	533.101241	0.237123	0.089168	0.016609	-0.016726	0.044480
0.770	7.568899	1.492270	533.101182	0.208622	0.078104	0.006557	-0.014651	0.039134
0.780	7.585977	1.470390	533.077671	0.179242	0.060651	-0.004388	-0.011378	0.033624
0.790	7.605743	1.456772	533.042698	0.151035	0.039998	-0.015246	-0.007504	0.028334
0.800	7.622438	1.450892	533.000892	0.125388	0.018871	-0.024921	-0.003541	0.023525
0.810	7.631399	1.449876	532.949295	0.103567	-0.001352	-0.032215	0.000254	0.019433
0.820	7.630842	1.449347	532.883418	0.087032	-0.020700	-0.036035	0.003885	0.016332
0.830	7.622218	1.445158	532.804686	0.077030	-0.039984	-0.035757	0.007504	0.014457
0.840	7.609074	1.435085	532.723550	0.073683	-0.059965	-0.031544	0.011256	0.013831
0.850	7.595198	1.419612	532.656327	0.075274	-0.080780	-0.024457	0.015165	0.014132
0.860	7.583134	1.401450	532.618668	0.078387	-0.101832	-0.016296	0.019119	0.014717
0.870	7.573742	1.384125	532.620135	0.079059	-0.122138	-0.009200	0.022932	0.014843
0.880	7.566805	1.370278	532.662138	0.074466	-0.140938	-0.005103	0.026459	0.013980
0.890	7.562192	1.360461	532.738504	0.064293	-0.158286	-0.005155	0.029712	0.012068
0.900	7.560968	1.353041	532.837035	0.051063	-0.175327	-0.009287	0.032904	0.009583
0.910	7.565690	1.345306	532.941325	0.039199	-0.194059	-0.016104	0.036413	0.007355
0.920	7.579429	1.335152	533.033130	0.033278	-0.216623	-0.023263	0.040640	0.006243
0.930	7.603841	1.322386	533.095937	0.036362	-0.244402	-0.028243	0.045846	0.006821
0.940	7.637481	1.308937	533.119660	0.049147	-0.277318	-0.029230	0.052018	0.009219
0.950	7.675426	1.297920	533.104741	0.070143	-0.313667	-0.025709	0.058838	0.013157
0.960	7.710473	1.292171	533.063031	0.096506	-0.350637	-0.018487	0.065778	0.018104
0.970	7.735404	1.293213	533.014247	0.125044	-0.385360	-0.009166	0.072298	0.023460
0.980	7.745552	1.301203	532.979642	0.153046	-0.416080	0.000600	0.078067	0.028715
0.990	7.740847	1.315647	532.976307	0.178831	-0.442941	0.009629	0.083107	0.033553
1.000	7.726579	1.336136	533.014937	0.201981	-0.468054	0.017302	0.087813	0.037894
1.010	7.712341	1.362610	533.101247	0.223270	-0.494814	0.023291	0.092818	0.041881
1.020	7.709177	1.395155	533.238116	0.244401	-0.526797	0.027225	0.098792	0.045833
1.030	7.725837	1.433654	533.424541	0.267604	-0.566709	0.028577	0.106240	0.050167
1.040	7.765727	1.477531	533.650250	0.295052	-0.615836	0.026823	0.115401	0.055289
1.050	7.826104	1.525547	533.889726	0.328075	-0.674180	0.021749	0.126277	0.061450
1.060	7.900062	1.575417	534.101811	0.366457	-0.741124	0.013714	0.138761	0.068612
1.070	7.980362	1.623369	534.238546	0.408229	-0.816192	0.003743	0.152777	0.076413
1.080	8.063064	1.664332	534.261091	0.450145	-0.899371	-0.006578	0.168339	0.084256
1.090	8.149024	1.693429	534.154966	0.488599	-0.990661	-0.015421	0.185463	0.091471
1.100	8.242419	1.708504	533.935601	0.520577	-1.088998	-0.021227	0.203957	0.097498
1.110	8.346983	1.712143	533.640298	0.544390	-1.191253	-0.023270	0.223231	0.102014
1.120	8.461791	1.711464	533.311660	0.560114	-1.291999	-0.022021	0.242260	0.105026
1.130	8.578712	1.715291	532.983319	0.569666	-1.384338	-0.019033	0.259734	0.106882
1.140	8.682922	1.730188	532.676070	0.576345	-1.461463	-0.016283	0.274362	0.108198
1.150	8.756484	1.757698	532.403967	0.583817	-1.518363	-0.015250	0.285190	0.109657
1.160	8.783690	1.794229	532.182732	0.594870	-1.553074	-0.016213	0.291831	0.111779
1.170	8.756037	1.833287	532.032235	0.610469	-1.567049	-0.018161	0.294540	0.114743
1.180	8.674908	1.868458	531.970396	0.629501	-1.564544	-0.019378	0.294104	0.118334
1.190	8.551203	1.895477	532.003001	0.649274	-1.551296	-0.018346	0.291595	0.122043
1.200	8.402427	1.912648	532.117243	0.666613	-1.532989	-0.014436	0.288092	0.125276
1.210	8.248458	1.920017	532.283975	0.679137	-1.513997	-0.008062	0.284434	0.127589
1.220	8.107360	1.918373	532.467396	0.686125	-1.496708	-0.000322	0.281089	0.128858
1.230	7.992432	1.909009	532.636143	0.688501	-1.481491	0.007526	0.278143	0.129263
1.240	7.911186	1.894413	532.770051	0.687960	-1.467219	0.014458	0.275394	0.129129
1.250	7.866163	1.879121	532.861099	0.685842	-1.452113	0.019849	0.272512	0.128709
1.260	7.856821	1.869451	532.911169	0.682399	-1.434557	0.023466	0.269193	0.128051
1.270	7.881384	1.871494	532.929977	0.676791	-1.413586	0.025410	0.265248	0.126994
1.280	7.937693	1.888156	532.934096	0.667721	-1.388923	0.026056	0.260618	0.125291
1.290	8.022589	1.917266	532.945063	0.654374	-1.360723	0.026017	0.255322	0.122784
1.300	8.130257	1.952200	532.984066	0.637201	-1.329313	0.026076	0.249409	0.119554
1.310	8.250937	1.984641	533.063341	0.618113	-1.295108	0.027003	0.242956	0.115955
1.320	8.371487	2.007602	533.177924	0.599864	-1.258630	0.029253	0.236062	0.112507
1.330	8.478126	2.017102	533.303027	0.584788	-1.220294	0.032643	0.228818	0.109654
1.340	8.560116	2.012246	533.400356	0.573359	-1.179844	0.036245	0.221193	0.107491
1.350	8.612570	1.994503	533.432033	0.563406	-1.135679	0.038616	0.212900	0.105619
1.360	8.637161	1.966886	533.376179	0.550552	-1.084611	0.038309	0.203348	0.103220
1.370	8.640474	1.933221	533.237050	0.529813	-1.022437	0.034429	0.191742	0.099358
1.380	8.630664	1.897434	533.045470	0.497495	-0.945271	0.026955	0.177334	0.093331
1.390	8.613820	1.862836	532.849786	0.452356	-0.851022	0.016687	0.159711	0.084894
1.400	8.591597	1.831485	532.700836	0.395592	-0.740199	0.004838	0.138952	0.074261
1.410	8.560943	1.803804	532.636011	0.330034	-0.615600	-0.007495	0.115576	0.061962
1.420	8.515725	1.778659	532.667904	0.259293	-0.481070	-0.019664	0.090313	0.048678
1.430	8.449478	1.753932	532.781919	0.187232	-0.340043	-0.031434	0.063824	0.035142
1.440	8.358213	1.727480	532.943734	0.117613	-0.194589	-0.042644	0.036512	0.022069
1.450	8.242265	1.698154	533.113039	0.053555	-0.045351	-0.052812	0.008507	0.010046
1.460	8.106466	1.666465	533.257366	-0.003249	0.107737	-0.060969	-0.020204	-0.000609
1.470	7.958622	1.634496	533.360803	-0.053169	0.264460	-0.065836	-0.049584	-0.009969
1.480	7.807017	1.604951	533.425131	-0.098621	0.423561	-0.066286	-0.079404	-0.018488
1.490	7.657927	1.579789	533.463538	-0.143170	0.582480	-0.061869	-0.109188	-0.026838
1.500	7.513910	1.559318	533.489982	-0.190085	0.737587	-0.053112	-0.138257	-0.035630
1.510	7.373336	1.542365	533.510314	-0.241012	0.884768	-0.041458	-0.165839	-0.045175
1.520	7.231340	1.527209	533.521021	-0.295349	1.020193	-0.028791	-0.191219	-0.055358
1.530	7.082092	1.512247	533.516052	-0.350513	1.141128	-0.016770	-0.213888	-0.065699
1.540	6.921665	1.495665	533.495617	-0.402790	1.246564	-0.006261	-0.233660	-0.075500
1.550	6.750369	1.474536	533.469461	-0.448352	1.337353	0.002833	-0.250690	-0.084044
1.560	6.573534	1.444530	533.451709	-0.484135	1.415714	0.011300	-0.265388	-0.090755
1.570	6.400305	1.400962	533.450494	-0.508523	1.484277	0.020054	-0.278241	-0.095327
1.580	6.240916	1.340830	533.459075	-0.521781	1.545110	0.029569	-0.289640	-0.097811
1.590	6.103581	1.264804	533.454581	-0.526136	1.599091	0.039542	-0.299761	-0.098628
1.600	5.992383	1.178283	533.406586	-0.525348	1.645667	0.048957	-0.308520	-0.098489
1.610	5.907065	1.091071	533.292337	-0.523757	1.682931	0.056530	-0.315574	-0.098212
1.620	5.844553	1.015515	533.111432	-0.525082	1.708025	0.061342	-0.320388	-0.098494
1.630	5.801122	0.963271	532.891990	-0.531466	1.717897	0.063320	-0.322373	-0.099732
1.640	5.774078	0.941532	532.683749	-0.543156	1.710280	0.063248	-0.321069	-0.101966
1.650	5.762296	0.950240	532.540236	-0.558871	1.684536	0.062314	-0.316321	-0.104944
1.660	5.765657	0.981691	532.498162	-0.576587	1.641998	0.061514	-0.308358	-0.108280
1.670	5.783993	1.022922	532.563372	-0.594285	1.585651	0.061298	-0.297739	-0.111590
1.680	5.816345	1.060069	532.708709	-0.610380	1.519284	0.061600	-0.285200	-0.114581
1.690	5.861022	1.083056	532.883561	-0.623873	1.446493	0.062087	-0.271446	-0.117075
1.700	5.916298	1.088753	533.030775	-0.634407	1.369932	0.062383	-0.257008	-0.119019
1.710	5.981206	1.081224	533.104800	-0.642277	1.291095	0.062164	-0.242184	-0.120479
1.720	6.055834	1.069060	533.084995	-0.648305	1.210620	0.061189	-0.227097	-0.121614
1.730	6.140829	1.061267	532.979861	-0.653579	1.128836	0.059399	-0.211797	-0.122627
1.740	6.236295	1.063725	532.821161	-0.659174	1.046224	0.057042	-0.196356	-0.123714
1.750	6.340665	1.077565	532.650785	-0.665958	0.963540	0.054701	-0.180895	-0.125027
1.760	6.450065	1.099698	532.506425	-0.674456	0.881595	0.053123	-0.165556	-0.126657
1.770	6.558435	1.124821	532.412603	-0.684678	0.800907	0.052875	-0.150430	-0.128599
1.780	6.658478	1.147847	532.380370	-0.695908	0.721546	0.054042	-0.135532	-0.130716
1.790	6.743342	1.165745	532.413455	-0.706596	0.643305	0.056151	-0.120828	-0.132716
1.800	6.808642	1.178212	532.514855	-0.714522	0.566057	0.058395	-0.106299	-0.134179
1.810	6.854156	1.187195	532.688120	-0.717303	0.489936	0.060028	-0.091974	-0.134657
1.820	6.884567	1.195624	532.931638	-0.713152	0.415002	0.060735	-0.077871	-0.133817
1.830	6.909098	1.205840	533.229278	-0.701667	0.340472	0.060784	-0.063851	-0.131588
1.840	6.940213	1.218333	533.544036	-0.684263	0.264040	0.060882	-0.049488	-0.128249
1.850	6.991535	1.231432	533.820684	-0.663914	0.181849	0.061795	-0.034066	-0.124370
1.860	7.074924	1.242220	533.998692	-0.644155	0.089313	0.063894	-0.016725	-0.120629
1.870	7.197184	1.248256	534.030593	-0.627788	-0.017582	0.066869	0.003292	-0.117557
1.880	7.357628	1.249098	533.897741	-0.615920	-0.141020	0.069786	0.026413	-0.115363
1.890	7.547726	1.246603	533.617062	-0.607780	-0.280577	0.071495	0.052580	-0.113898
1.900	7.753043	1.243800	533.237414	-0.601272	-0.433104	0.071164	0.081222	-0.112759
1.910	7.956466	1.243075	532.828490	-0.593930	-0.593284	0.068610	0.111346	-0.111467
1.920	8.141558	1.244921	532.466386	-0.583939	-0.754687	0.064273	0.141734	-0.109667
1.930	8.295460	1.248027	532.218799	-0.570905	-0.911013	0.058882	0.171173	-0.107269
1.940	8.411176	1.250606	532.131719	-0.556001	-1.057183	0.053108	0.198669	-0.104486
1.950	8.488836	1.252009	532.219378	-0.541297	-1.190016	0.047441	0.223595	-0.101706
1.960	8.535416	1.253620	532.459539	-0.528574	-1.308375	0.042317	0.245723	-0.099270
1.970	8.562781	1.258572	532.796265	-0.518311	-1.412850	0.038324	0.265176	-0.097281
1.980	8.584754	1.270393	533.151422	-0.509499	-1.505127	0.036214	0.282308	-0.095564
1.990	8.614266	1.291123	533.443815	-0.500404	-1.587336	0.036627	0.297564	-0.093806
2.000	8.661351	1.319726	533.611285	-0.489699	-1.661543	0.039675	0.311377	-0.091771
2.010	8.732008	1.351601	533.628401	-0.477140	-1.729503	0.044675	0.324102	-0.089414
2.020	8.827531	1.379663	533.512832	-0.463344	-1.792639	0.050238	0.336007	-0.086848
2.030	8.944239	1.396879	533.317356	-0.449099	-1.852172	0.054670	0.347293	-0.084209
2.040	9.074088	1.399390	533.109954	-0.434956	-1.909199	0.056463	0.358125	-0.081588
2.050	9.206595	1.388799	532.949341	-0.421435	-1.964566	0.054709	0.368622	-0.079076
2.060	9.331648	1.372356	532.865897	-0.409490	-2.018450	0.049372	0.378791	-0.076847
2.070	9.441928	1.360669	532.856333	-0.400655	-2.069799	0.041355	0.388435	-0.075190
2.080	9.533683	1.363780	532.893650	-0.396583	-2.115964	0.032309	0.397071	-0.074421
2.090	9.605698	1.387186	532.945365	-0.398215	-2.152954	0.024155	0.403973	-0.074720
2.100	9.657581	1.429468	532.988977	-0.405059	-2.176408	0.018469	0.408340	-0.075998
2.110	9.688923	1.482505	533.017356	-0.415036	-2.182909	0.015933	0.409538	-0.077865
2.120	9.699956	1.534174	533.034693	-0.425000	-2.170994	0.016090	0.407289	-0.079732
2.130	9.692960	1.572369	533.048899	-0.431762	-2.141395	0.017499	0.401726	-0.080999
2.140	9.672908	1.588734	533.065415	-0.433201	-2.096583	0.018278	0.393307	-0.081266
2.150	9.646361	1.580752	533.083568	-0.429035	-2.040007	0.016794	0.382680	-0.080482
2.160	9.618947	1.551818	533.095090	-0.420953	-1.975386	0.012220	0.370550	-0.078964
2.170	9.592909	1.509830	533.085949	-0.411966	-1.906113	0.004757	0.357562	-0.077279
2.180	9.566209	1.465067	533.042894	-0.405184	-1.834712	-0.004505	0.344196	-0.076013
2.190	9.533694	1.427728	532.962928	-0.402549	-1.762417	-0.013974	0.330683	-0.075530
2.200	9.489615	1.405243	532.860072	-0.404237	-1.689035	-0.022058	0.316975	-0.075862
2.210	9.430299	1.399858	532.763580	-0.409082	-1.613241	-0.027638	0.302806	-0.076785
2.220	9.355997	1.407579	532.706831	-0.415729	-1.533305	-0.030360	0.287833	-0.078041
2.230	9.271395	1.419496	532.712924	-0.423716	-1.447921	-0.030644	0.271801	-0.079539
2.240	9.184522	1.425329	532.785473	-0.433726	-1.356741	-0.029418	0.254651	-0.081407
2.250	9.104239	1.417652	532.908925	-0.446825	-1.260355	-0.027736	0.236505	-0.083846
2.260	9.037079	1.394742	533.056106	-0.463258	-1.159867	-0.026421	0.217588	-0.086906
2.270	8.984743	1.360893	533.197684	-0.481662	-1.056421	-0.025838	0.198129	-0.090335
2.280	8.943360	1.324371	533.309499	-0.499243	-0.950950	-0.025824	0.178311	-0.093612
2.290	8.904832	1.294200	533.376301	-0.512729	-0.844177	-0.025795	0.158271	-0.096129
2.300	8.859619	1.277170	533.392348	-0.519466	-0.736685	-0.025007	0.138113	-0.097389
2.310	8.799827	1.276011	533.360275	-0.518141	-0.628848	-0.022891	0.117903	-0.097147
2.320	8.721487	1.289168	533.289925	-0.509009	-0.520582	-0.019341	0.097617	-0.095447
2.330	8.625375	1.312021	533.197674	-0.493756	-0.411080	-0.014840	0.077097	-0.092603
2.340	8.516311	1.338866	533.104958	-0.475129	-0.298843	-0.010335	0.056057	-0.089125
2.350	8.401427	1.364801	533.034060	-0.456340	-0.182148	-0.006912	0.034172	-0.085612
2.360	8.288011	1.386894	533.001013	-0.440242	-0.059819	-0.005400	0.011223	-0.082597
2.370	8.181449	1.404459	533.008651	-0.428509	0.068052	-0.006046	-0.012768	-0.080394
2.380	8.083840	1.418461	533.044588	-0.421120	0.199798	-0.008412	-0.037483	-0.079003
2.390	7.993844	1.430258	533.086636	-0.416390	0.332450	-0.011493	-0.062363	-0.078109
2.400	7.907809	1.440262	533.113264	-0.411575	0.462497	-0.013994	-0.086754	-0.077202
2.410	7.821561	1.447391	533.113010	-0.403889	0.586838	-0.014653	-0.110078	-0.075761
2.420	7.732004	1.449776	533.087274	-0.391561	0.703615	-0.012548	-0.131989	-0.073452
