Time[s]	Fx[N]	Fy[N]	Fz[N]	Mx[Nm]	My[Nm]	Mz[Nm]	COPx[cm]	COPy[cm]
0.010	2.423005	-0.047947	657.813478	-9.232643	-8.594633	-0.571502	1.306546	-1.403535
0.020	2.499858	-0.016387	657.919639	-9.378161	-8.582618	-0.561548	1.304508	-1.425427
0.030	2.564118	0.028506	657.974485	-9.516514	-8.567366	-0.552670	1.302082	-1.446335
0.040	2.607820	0.095486	657.941517	-9.641464	-8.546354	-0.545377	1.298954	-1.465398
0.050	2.629972	0.185764	657.808460	-9.749136	-8.518513	-0.539641	1.294984	-1.482063
0.060	2.635772	0.292478	657.590611	-9.838350	-8.484259	-0.535141	1.290204	-1.496121
0.070	2.633672	0.403026	657.326199	-9.910492	-8.445005	-0.531620	1.284751	-1.507698
0.080	2.632369	0.503514	657.065455	-9.969142	-8.402467	-0.529038	1.278787	-1.517222
0.090	2.639197	0.583665	656.857327	-10.019525	-8.358062	-0.527464	1.272432	-1.525373
0.100	2.659838	0.640189	656.737804	-10.067640	-8.312474	-0.526790	1.265722	-1.532977
0.110	2.698179	0.677210	656.722234	-10.119008	-8.265366	-0.526542	1.258579	-1.540835
0.120	2.755463	0.703628	656.802622	-10.177290	-8.215247	-0.525969	1.250794	-1.549520
0.130	2.829000	0.728773	656.950590	-10.243375	-8.159602	-0.524403	1.242042	-1.559231
0.140	2.911424	0.758478	657.126142	-10.315395	-8.095340	-0.521607	1.231931	-1.569774
0.150	2.991456	0.793339	657.290041	-10.389590	-8.019484	-0.517873	1.220083	-1.580671
0.160	3.056437	0.829677	657.414877	-10.461535	-7.930005	-0.513802	1.206241	-1.591314
0.170	3.095907	0.862220	657.489597	-10.527311	-7.826541	-0.509983	1.190367	-1.601137
0.180	3.104701	0.886913	657.515728	-10.584531	-7.710810	-0.506763	1.172719	-1.609776
0.190	3.084023	0.902551	657.498473	-10.633113	-7.586467	-0.504190	1.153838	-1.617207
0.200	3.039894	0.910716	657.438855	-10.675562	-7.458210	-0.502038	1.134434	-1.623811
0.210	2.979554	0.914246	657.331781	-10.716517	-7.330083	-0.499832	1.115127	-1.630306
0.220	2.907308	0.915050	657.170494	-10.761691	-7.203440	-0.496846	1.096130	-1.637580
0.230	2.821618	0.912354	656.953755	-10.816684	-7.075534	-0.492071	1.077022	-1.646491
0.240	2.714809	0.902315	656.691370	-10.886127	-6.939648	-0.484229	1.056759	-1.657723
0.250	2.575709	0.879233	656.406126	-10.973201	-6.787026	-0.471927	1.033968	-1.671709
0.260	2.394533	0.837647	656.132996	-11.079235	-6.609964	-0.454029	1.007412	-1.688565
0.270	2.168583	0.774123	655.917016	-11.203120	-6.404884	-0.430195	0.976478	-1.708009
0.280	1.906960	0.688006	655.809571	-11.340753	-6.174241	-0.401408	0.941469	-1.729275
0.290	1.632248	0.581334	655.861515	-11.485109	-5.926523	-0.370196	0.903624	-1.751148
0.300	1.377531	0.458477	656.112485	-11.627454	-5.674278	-0.340306	0.864833	-1.772174
0.310	1.178445	0.325634	656.578642	-11.759640	-5.430812	-0.315799	0.827138	-1.791048
0.320	1.062198	0.189923	657.243245	-11.876587	-5.206630	-0.299873	0.792192	-1.807031
0.330	1.037493	0.058085	658.054143	-11.977771	-5.006742	-0.293905	0.760840	-1.820180
0.340	1.089668	-0.064637	658.929392	-12.066932	-4.829577	-0.297147	0.732943	-1.831294
0.350	1.183323	-0.174902	659.768934	-12.150154	-4.667586	-0.307144	0.707458	-1.841577
0.360	1.271331	-0.270816	660.468999	-12.233240	-4.509097	-0.320625	0.682711	-1.852205
0.370	1.306634	-0.351016	660.936862	-12.319497	-4.340806	-0.334484	0.656766	-1.863945
0.380	1.253009	-0.414069	661.105173	-12.408698	-4.150446	-0.346590	0.627804	-1.876963
0.390	1.092477	-0.458802	660.945541	-12.497367	-3.929387	-0.356263	0.594510	-1.890832
0.400	0.828814	-0.485306	660.479723	-12.580098	-3.674986	-0.364368	0.556412	-1.904691
0.410	0.487564	-0.495527	659.784696	-12.651414	-3.392190	-0.372995	0.514136	-1.917506
0.420	0.112944	-0.492607	658.986411	-12.707640	-3.093712	-0.384803	0.469465	-1.928361
0.430	-0.238664	-0.479332	658.238748	-12.748222	-2.798160	-0.402210	0.425098	-1.936717
0.440	-0.509168	-0.456918	657.689852	-12.775993	-2.526173	-0.426659	0.384098	-1.942556
0.450	-0.652515	-0.424949	657.445640	-12.796200	-2.295536	-0.458158	0.349160	-1.946351
0.460	-0.648630	-0.382189	657.544129	-12.814666	-2.116904	-0.495237	0.321941	-1.948868
0.470	-0.512179	-0.327513	657.950429	-12.835836	-1.991663	-0.535375	0.302707	-1.950882
0.480	-0.291012	-0.260615	658.572959	-12.861390	-1.912623	-0.575776	0.290419	-1.952918
0.490	-0.052608	-0.182614	659.292823	-12.889892	-1.867092	-0.614111	0.283196	-1.955109
0.500	0.137543	-0.096568	659.994943	-12.917525	-1.840987	-0.648938	0.278940	-1.957216
0.510	0.237126	-0.007535	660.591291	-12.939640	-1.822461	-0.679675	0.275883	-1.958797
0.520	0.238792	0.078309	661.031198	-12.952535	-1.804034	-0.706282	0.272912	-1.959444
0.530	0.167898	0.155460	661.299135	-12.954802	-1.783027	-0.728877	0.269625	-1.958993
0.540	0.068132	0.221192	661.404561	-12.947746	-1.760684	-0.747454	0.266204	-1.957614
0.550	-0.017563	0.276950	661.369836	-12.934755	-1.740606	-0.761800	0.263182	-1.955752
0.560	-0.062018	0.328136	661.220636	-12.919902	-1.727094	-0.771646	0.261198	-1.953947
0.570	-0.059248	0.381927	660.980454	-12.906350	-1.723855	-0.776981	0.260803	-1.952607
0.580	-0.020117	0.443823	660.668557	-12.895191	-1.733280	-0.778279	0.262352	-1.951840
0.590	0.037531	0.514616	660.299859	-12.885152	-1.756195	-0.776437	0.265969	-1.951409
0.600	0.098748	0.589597	659.885605	-12.873252	-1.791820	-0.772484	0.271535	-1.950831
0.610	0.157238	0.660605	659.434943	-12.856150	-1.837877	-0.767320	0.278705	-1.949571
0.620	0.215598	0.719769	658.957810	-12.831658	-1.890928	-0.761673	0.286957	-1.947265
0.630	0.281260	0.762804	658.467883	-12.799854	-1.947041	-0.756197	0.295693	-1.943884
0.640	0.361020	0.790200	657.982764	-12.763309	-2.002593	-0.751506	0.304353	-1.939763
0.650	0.457132	0.806075	657.519911	-12.726348	-2.054871	-0.748043	0.312518	-1.935508
0.660	0.566605	0.815853	657.090716	-12.693733	-2.102199	-0.745904	0.319925	-1.931808
0.670	0.683369	0.824194	656.697560	-12.669290	-2.143635	-0.744738	0.326426	-1.929243
0.680	0.801553	0.833890	656.337225	-12.654919	-2.178514	-0.743807	0.331920	-1.928112
0.690	0.917895	0.845673	656.009526	-12.650277	-2.206132	-0.742155	0.336296	-1.928368
0.700	1.032172	0.858608	655.725827	-12.653180	-2.225663	-0.738823	0.339420	-1.929645
0.710	1.145748	0.870856	655.511247	-12.660552	-2.236310	-0.733081	0.341155	-1.931401
0.720	1.259071	0.880673	655.397812	-12.669499	-2.237532	-0.724632	0.341401	-1.933101
0.730	1.369284	0.887494	655.411226	-12.678128	-2.229210	-0.713807	0.340124	-1.934378
0.740	1.469102	0.892845	655.558000	-12.685826	-2.211670	-0.701662	0.337372	-1.935119
0.750	1.547744	0.900586	655.819975	-12.692991	-2.185530	-0.689891	0.333251	-1.935438
0.760	1.593858	0.916001	656.159809	-12.700418	-2.151515	-0.680429	0.327895	-1.935568
0.770	1.599452	0.943837	656.535246	-12.708744	-2.110395	-0.674807	0.321444	-1.935729
0.780	1.563249	0.986175	656.914853	-12.718305	-2.063092	-0.673492	0.314058	-1.936066
0.790	1.491919	1.041267	657.287108	-12.729438	-2.010871	-0.675531	0.305935	-1.936663
0.800	1.398358	1.103806	657.659174	-12.742902	-1.955412	-0.678753	0.297329	-1.937615
0.810	1.297581	1.166303	658.048184	-12.759884	-1.898695	-0.680531	0.288534	-1.939050
0.820	1.202121	1.220841	658.470879	-12.781365	-1.842754	-0.678815	0.279854	-1.941068
0.830	1.119113	1.260842	658.935527	-12.807094	-1.789425	-0.672995	0.271563	-1.943604
0.840	1.050125	1.282760	659.436453	-12.834812	-1.740150	-0.664178	0.263884	-1.946330
0.850	0.993115	1.287495	659.950385	-12.860254	-1.695814	-0.654749	0.256961	-1.948670
0.860	0.944992	1.280876	660.435361	-12.878066	-1.656641	-0.647377	0.250841	-1.949936
0.870	0.903472	1.272645	660.834807	-12.883351	-1.622234	-0.643897	0.245483	-1.949557
0.880	0.867769	1.274011	661.088680	-12.873281	-1.591949	-0.644553	0.240807	-1.947285
0.890	0.838270	1.294624	661.149854	-12.848144	-1.565551	-0.647966	0.236792	-1.943303
0.900	0.815672	1.339911	660.999582	-12.811315	-1.543848	-0.651781	0.233563	-1.938173
0.910	0.800088	1.409478	660.654941	-12.768261	-1.528837	-0.653612	0.231412	-1.932667
0.920	0.790636	1.496817	660.164958	-12.725195	-1.523186	-0.651771	0.230728	-1.927578
0.930	0.785620	1.590270	659.597644	-12.688002	-1.529252	-0.645485	0.231846	-1.923597
0.940	0.783023	1.675033	659.023533	-12.661560	-1.548072	-0.634733	0.234904	-1.921261
0.950	0.780869	1.735953	658.501129	-12.649265	-1.578711	-0.619983	0.239743	-1.920918
0.960	0.777454	1.760658	658.067473	-12.652613	-1.618262	-0.602057	0.245911	-1.922692
0.970	0.771694	1.742223	657.734947	-12.671024	-1.662529	-0.582097	0.252766	-1.926464
0.980	0.763760	1.680536	657.494367	-12.702146	-1.707260	-0.561498	0.259661	-1.931902
0.990	0.755828	1.581932	657.323562	-12.742736	-1.749549	-0.541695	0.266163	-1.938579
1.000	0.752628	1.457234	657.199398	-12.789843	-1.788872	-0.523808	0.272196	-1.946113
1.010	0.761404	1.318888	657.109486	-12.841814	-1.827267	-0.508342	0.278076	-1.954288
1.020	0.790981	1.178090	657.058850	-12.898656	-1.868504	-0.495085	0.284374	-1.963090
1.030	0.849961	1.042994	657.068033	-12.961586	-1.916559	-0.483299	0.291683	-1.972640
1.040	0.944512	0.918744	657.162751	-13.032101	-1.974043	-0.472069	0.300389	-1.983086
1.050	1.076431	0.809274	657.359511	-13.111130	-2.041220	-0.460707	0.310518	-1.994514
1.060	1.242031	0.719468	657.653848	-13.198630	-2.115910	-0.449096	0.321736	-2.006927
1.070	1.432205	0.655687	658.016472	-13.293563	-2.194203	-0.437851	0.333457	-2.020248
1.080	1.633759	0.623518	658.398701	-13.393970	-2.271539	-0.428173	0.345010	-2.034325
1.090	1.831718	0.623664	658.744511	-13.497011	-2.343658	-0.421442	0.355777	-2.048899
1.100	2.011882	0.648580	659.004215	-13.599203	-2.407077	-0.418697	0.365260	-2.063599
1.110	2.162883	0.682461	659.144580	-13.697119	-2.459176	-0.420198	0.373086	-2.078014
1.120	2.277493	0.705480	659.152042	-13.788487	-2.498189	-0.425213	0.379000	-2.091852
1.130	2.353345	0.700747	659.029125	-13.873121	-2.523285	-0.432111	0.382879	-2.105085
1.140	2.393052	0.660638	658.787314	-13.952979	-2.534672	-0.438791	0.384748	-2.117979
1.150	2.403418	0.589253	658.440760	-14.031108	-2.533498	-0.443383	0.384772	-2.130960
1.160	2.393636	0.499845	658.003818	-14.109969	-2.521401	-0.444955	0.383189	-2.144360
1.170	2.372920	0.408964	657.492612	-14.190080	-2.499819	-0.443895	0.380205	-2.158211
1.180	2.348269	0.330545	656.928520	-14.269780	-2.469422	-0.441738	0.375904	-2.172197
1.190	2.322896	0.272406	656.340785	-14.346301	-2.429912	-0.440472	0.370221	-2.185801
1.200	2.295606	0.235804	655.766255	-14.417610	-2.380221	-0.441662	0.362968	-2.198590
1.210	2.261173	0.217192	655.245295	-14.484013	-2.318867	-0.445831	0.353893	-2.210472
1.220	2.211557	0.210810	654.814388	-14.548472	-2.244222	-0.452405	0.342726	-2.221770
1.230	2.137464	0.211054	654.497535	-14.615287	-2.154580	-0.460194	0.329196	-2.233055
1.240	2.029708	0.214236	654.299596	-14.687693	-2.048034	-0.468128	0.313012	-2.244796
1.250	1.880222	0.219826	654.204506	-14.765716	-1.922260	-0.475851	0.293832	-2.257049
1.260	1.683254	0.231145	654.180171	-14.845474	-1.774375	-0.483903	0.271236	-2.269325
1.270	1.437461	0.254900	654.189842	-14.920283	-1.601181	-0.493419	0.244758	-2.280727
1.280	1.148951	0.298985	654.207024	-14.982871	-1.400073	-0.505497	0.214011	-2.290234
1.290	0.834063	0.368775	654.228936	-15.027565	-1.170622	-0.520474	0.178932	-2.296989
1.300	0.519732	0.463409	654.283819	-15.051603	-0.916346	-0.537380	0.140053	-2.300470
1.310	0.239842	0.574012	654.429367	-15.055415	-0.645794	-0.553841	0.098680	-2.300541
1.320	0.027550	0.684971	654.741768	-15.042113	-0.372154	-0.566628	0.056840	-2.297412
1.330	-0.094538	0.777647	655.296882	-15.016580	-0.111148	-0.572764	0.016962	-2.291569
1.340	-0.123274	0.834725	656.147711	-14.984430	0.122318	-0.570813	-0.018642	-2.283698
1.350	-0.079464	0.843535	657.304452	-14.951049	0.317622	-0.561727	-0.048322	-2.274600
1.360	-0.005206	0.797790	658.723569	-14.920812	0.470698	-0.548792	-0.071456	-2.265110
1.370	0.046418	0.698058	660.309911	-14.896458	0.584176	-0.536643	-0.088470	-2.255980
1.380	0.026597	0.551580	661.932256	-14.878653	0.665388	-0.529757	-0.100522	-2.247761
1.390	-0.094263	0.371819	663.448631	-14.865843	0.723141	-0.531074	-0.108997	-2.240692
1.400	-0.317479	0.177685	664.733753	-14.854643	0.764601	-0.541252	-0.115024	-2.234676
1.410	-0.616140	-0.007968	665.698895	-14.840751	0.793350	-0.558774	-0.119176	-2.229349
1.420	-0.943865	-0.161043	666.297684	-14.820081	0.809021	-0.580742	-0.121420	-2.224243
1.430	-1.248753	-0.260086	666.519188	-14.789610	0.808253	-0.603979	-0.121265	-2.218932
1.440	-1.487624	-0.290493	666.376336	-14.747667	0.786364	-0.625984	-0.118006	-2.213114
1.450	-1.636122	-0.247682	665.897797	-14.693752	0.739109	-0.645427	-0.110994	-2.206608
1.460	-1.691959	-0.138077	665.125643	-14.628292	0.664028	-0.662119	-0.099835	-2.199328
1.470	-1.670912	0.022324	664.115277	-14.552611	0.561146	-0.676591	-0.084495	-2.191278
1.480	-1.597698	0.211244	662.933178	-14.469175	0.432896	-0.689527	-0.065300	-2.182599
1.490	-1.495518	0.404404	661.651121	-14.381819	0.283392	-0.701320	-0.042831	-2.173626
1.500	-1.378156	0.579761	660.338576	-14.295486	0.117370	-0.711902	-0.017774	-2.164872
1.510	-1.247040	0.720809	659.056055	-14.215181	-0.060774	-0.720872	0.009221	-2.156900
1.520	-1.093447	0.818419	657.852014	-14.144374	-0.247514	-0.727827	0.037625	-2.150084
1.530	-0.904225	0.871251	656.764366	-14.083581	-0.440246	-0.732686	0.067032	-2.144389
1.540	-0.668426	0.885003	655.824783	-14.029857	-0.636986	-0.735891	0.097127	-2.139269
1.550	-0.382346	0.870753	655.062076	-13.977478	-0.835962	-0.738348	0.127616	-2.133764
1.560	-0.051585	0.842485	654.502069	-13.919621	-1.035303	-0.741099	0.158182	-2.126750
1.570	0.309810	0.814089	654.163979	-13.850522	-1.232945	-0.744861	0.188476	-2.117286
1.580	0.682113	0.796494	654.054789	-13.767414	-1.426635	-0.749711	0.218122	-2.104933
1.590	1.043415	0.795870	654.163433	-13.671589	-1.613895	-0.755100	0.246711	-2.089935
1.600	1.373099	0.813388	654.456976	-13.568171	-1.791870	-0.760218	0.273795	-2.073195
1.610	1.654827	0.846205	654.881262	-13.464765	-1.957235	-0.764458	0.298869	-2.056062
1.620	1.878499	0.888859	655.367664	-13.369544	-2.106440	-0.767715	0.321413	-2.040007
1.630	2.040818	0.934557	655.845861	-13.289525	-2.236448	-0.770335	0.341002	-2.026318
1.640	2.144591	0.976360	656.260292	-13.229473	-2.345857	-0.772734	0.357458	-2.015888
1.650	2.197295	1.008455	656.585573	-13.191574	-2.436009	-0.774917	0.371012	-2.009117
1.660	2.209400	1.027482	656.834214	-13.175744	-2.511558	-0.776177	0.382373	-2.005947
1.670	2.192681	1.033479	657.050964	-13.180296	-2.580036	-0.775168	0.392669	-2.005978
1.680	2.158674	1.029800	657.293557	-13.202605	-2.650301	-0.770335	0.403214	-2.008631
1.690	2.117394	1.021553	657.607088	-13.239560	-2.730282	-0.760515	0.415184	-2.013293
1.700	2.076391	1.012987	658.003651	-13.287803	-2.824810	-0.745460	0.429300	-2.019412
1.710	2.040062	1.005020	658.456517	-13.343865	-2.934319	-0.726031	0.445636	-2.026537
1.720	2.009165	0.994055	658.910446	-13.404263	-3.054845	-0.703980	0.463621	-2.034307
1.730	1.980644	0.972531	659.301397	-13.465606	-3.179178	-0.681379	0.482204	-2.042405
1.740	1.948140	0.931053	659.575019	-13.524826	-3.298699	-0.659932	0.500125	-2.050536
1.750	1.903577	0.861536	659.696416	-13.579665	-3.405318	-0.640439	0.516195	-2.058472
1.760	1.839782	0.760457	659.651229	-13.629432	-3.493141	-0.622612	0.529544	-2.066157
1.770	1.753329	0.630969	659.443386	-13.675678	-3.559706	-0.605317	0.539805	-2.073821
1.780	1.646503	0.482799	659.094096	-13.722237	-3.606589	-0.587181	0.547204	-2.081984
1.790	1.527733	0.329762	658.642105	-13.774200	-3.639129	-0.567291	0.552520	-2.091303
1.800	1.410607	0.185936	658.142046	-13.835982	-3.665106	-0.545699	0.556887	-2.102279
1.810	1.311879	0.062349	657.658110	-13.909221	-3.692701	-0.523505	0.561492	-2.114962
1.820	1.248597	-0.034495	657.253141	-13.991447	-3.728474	-0.502490	0.567281	-2.128776
1.830	1.234296	-0.102156	656.976267	-14.076150	-3.776095	-0.484489	0.574769	-2.142566
1.840	1.274805	-0.140871	656.853709	-14.154279	-3.836129	-0.470788	0.584016	-2.154860
1.850	1.365148	-0.152321	656.886214	-14.216635	-3.906761	-0.461793	0.594739	-2.164246
1.860	1.489206	-0.139052	657.053355	-14.256296	-3.984949	-0.457023	0.606488	-2.169732
1.870	1.623024	-0.104495	657.321963	-14.270190	-4.067506	-0.455334	0.618800	-2.170959
1.880	1.741165	-0.053379	657.655105	-14.259344	-4.151801	-0.455248	0.631304	-2.168210
1.890	1.824081	0.007908	658.018594	-14.227908	-4.236102	-0.455346	0.643766	-2.162235
1.900	1.863587	0.071460	658.383355	-14.181432	-4.319736	-0.454604	0.656113	-2.153978
1.910	1.864052	0.128819	658.724470	-14.125070	-4.403083	-0.452582	0.668426	-2.144306
1.920	1.838849	0.172640	659.020239	-14.062266	-4.487352	-0.449375	0.680913	-2.133814
1.930	1.803878	0.198558	659.254390	-13.994318	-4.574133	-0.445366	0.693834	-2.122749
1.940	1.771211	0.206551	659.421143	-13.920798	-4.664910	-0.440896	0.707425	-2.111063
1.950	1.745560	0.201223	659.529701	-13.840452	-4.760809	-0.436029	0.721849	-2.098534
1.960	1.724801	0.190793	659.604775	-13.752110	-4.862742	-0.430505	0.737221	-2.084902
1.970	1.703925	0.185065	659.682040	-13.655251	-4.971900	-0.423931	0.753681	-2.069975
1.980	1.680401	0.193040	659.799394	-13.550056	-5.090274	-0.416069	0.771488	-2.053663
1.990	1.658406	0.220990	659.985677	-13.436996	-5.220740	-0.407006	0.791038	-2.035953
2.000	1.649978	0.271373	660.249364	-13.316144	-5.366424	-0.397089	0.812787	-2.016836
2.010	1.672608	0.342514	660.570660	-13.186646	-5.529503	-0.386761	0.837080	-1.996251
2.020	1.744365	0.428867	660.900340	-13.046760	-5.710031	-0.376463	0.863978	-1.974089
2.030	1.878536	0.522036	661.166687	-12.894625	-5.905370	-0.366683	0.893174	-1.950284
2.040	2.079618	0.612790	661.289165	-12.729393	-6.110476	-0.358056	0.924025	-1.924936
2.050	2.341784	0.693786	661.195385	-12.552126	-6.318872	-0.351415	0.955674	-1.898399
2.060	2.650085	0.761995	660.837237	-12.366061	-6.523940	-0.347732	0.987223	-1.871272
2.070	2.983917	0.819775	660.202399	-12.176252	-6.720058	-0.347982	1.017878	-1.844321
2.080	3.321497	0.874218	659.318435	-11.988778	-6.903214	-0.352944	1.047023	-1.818359
2.090	3.643718	0.935222	658.248526	-11.809618	-7.071070	-0.363022	1.074225	-1.794097
2.100	3.936281	1.013060	657.080094	-11.643257	-7.222687	-0.378131	1.099210	-1.771969
2.110	4.189958	1.116132	655.909215	-11.491384	-7.358167	-0.397695	1.121827	-1.751978
2.120	4.399597	1.249463	654.824418	-11.352341	-7.478274	-0.420751	1.142027	-1.733647
2.130	4.562606	1.414045	653.893640	-11.221843	-7.583977	-0.446122	1.159818	-1.716157
2.140	4.677664	1.606622	653.157843	-11.094802	-7.675869	-0.472605	1.175194	-1.698640
2.150	4.744460	1.819624	652.632782	-10.967349	-7.753572	-0.499064	1.188045	-1.680478
2.160	4.764741	2.041540	652.316587	-10.838042	-7.815368	-0.524436	1.198094	-1.661470
2.170	4.743878	2.258205	652.197677	-10.707923	-7.858372	-0.547691	1.204906	-1.641822
2.180	4.691463	2.454756	652.258371	-10.579775	-7.879319	-0.567894	1.208006	-1.622022
2.190	4.619917	2.617364	652.474502	-10.457297	-7.875710	-0.584397	1.207053	-1.602713
2.200	4.541459	2.734192	652.815876	-10.344584	-7.846823	-0.597056	1.201996	-1.584610
2.210	4.464777	2.795931	653.252032	-10.245903	-7.794173	-0.606272	1.193134	-1.568446
2.220	4.392787	2.796740	653.762295	-10.165438	-7.721237	-0.612766	1.181046	-1.554913
2.230	4.322136	2.735887	654.343629	-10.106713	-7.632562	-0.617167	1.166445	-1.544557
2.240	4.244425	2.619283	655.009117	-10.071611	-7.532597	-0.619643	1.149999	-1.537629
2.250	4.148730	2.459673	655.775040	-10.059403	-7.424655	-0.619785	1.132195	-1.533972
2.260	4.024842	2.274778	656.641935	-10.066447	-7.310345	-0.616794	1.113292	-1.533019
2.270	3.866514	2.083906	657.579683	-10.086992	-7.189605	-0.609868	1.093344	-1.533957
2.280	3.673775	1.904240	658.525386	-10.114746	-7.061292	-0.598634	1.072289	-1.535969
2.290	3.453462	1.748131	659.396310	-10.144358	-6.924053	-0.583511	1.050059	-1.538431
2.300	3.217539	1.622160	660.112339	-10.172137	-6.777245	-0.565848	1.026681	-1.540971
2.310	2.979704	1.527966	660.617653	-10.195975	-6.621671	-0.547698	1.002345	-1.543400
2.320	2.751578	1.464083	660.892386	-10.214905	-6.459921	-0.531240	0.977454	-1.545623
2.330	2.540011	1.427714	660.951033	-10.228799	-6.296142	-0.518072	0.952588	-1.547588
