Time[s]	Fx[N]	Fy[N]	Fz[N]	Mx[Nm]	My[Nm]	Mz[Nm]	COPx[cm]	COPy[cm]
0.010	0.715972	-1.251042	497.461746	4.019268	-0.561999	0.505169	0.112973	0.807955
0.020	0.935867	-1.297191	497.628395	4.131287	-0.847156	0.512947	0.170239	0.830195
0.030	1.132418	-1.335823	497.698181	4.240769	-1.123422	0.520796	0.225723	0.852076
0.040	1.289645	-1.362503	497.611268	4.345724	-1.385792	0.528397	0.278489	0.873317
0.050	1.404770	-1.376718	497.377811	4.444310	-1.635991	0.535135	0.328923	0.893548
0.060	1.489132	-1.380878	497.077105	4.534272	-1.882448	0.540470	0.378703	0.912187
0.070	1.564837	-1.378241	496.830179	4.612370	-2.137897	0.544485	0.430307	0.928359
0.080	1.658410	-1.371302	496.758246	4.674394	-2.415535	0.548200	0.486260	0.940980
0.090	1.793263	-1.361729	496.943622	4.715939	-2.725163	0.553306	0.548385	0.948989
0.100	1.982903	-1.351770	497.406260	4.733440	-3.070631	0.561413	0.617328	0.951624
0.110	2.226665	-1.346116	498.100850	4.724745	-3.449278	0.573221	0.692486	0.948552
0.120	2.509372	-1.352969	498.930817	4.688944	-3.853209	0.588120	0.772293	0.939798
0.130	2.805422	-1.383553	499.770454	4.625850	-4.271602	0.604382	0.854713	0.925595
0.140	3.086358	-1.449942	500.486833	4.535737	-4.693086	0.619747	0.937704	0.906265
0.150	3.329302	-1.561791	500.957391	4.419612	-5.107523	0.632056	1.019552	0.882233
0.160	3.522997	-1.723020	501.083098	4.279752	-5.506997	0.639754	1.099019	0.854100
0.170	3.669250	-1.929635	500.799329	4.119938	-5.886158	0.642209	1.175353	0.822673
0.180	3.780015	-2.169512	500.086480	3.944992	-6.242176	0.639859	1.248219	0.788862
0.190	3.872366	-2.424493	498.979639	3.759798	-6.574591	0.634126	1.317607	0.753497
0.200	3.963826	-2.674377	497.572539	3.568419	-6.885175	0.627045	1.383753	0.717166
0.210	4.069096	-2.901675	496.009445	3.373760	-7.177687	0.620665	1.447087	0.680181
0.220	4.197743	-3.095619	494.462295	3.177801	-7.457229	0.616427	1.508149	0.642678
0.230	4.352063	-3.254132	493.097486	2.982038	-7.729050	0.614785	1.567449	0.604756
0.240	4.525206	-3.383215	492.042496	2.787803	-7.996998	0.615150	1.625266	0.566578
0.250	4.700733	-3.494125	491.363255	2.596317	-8.262143	0.616152	1.681473	0.528391
0.260	4.855020	-3.599414	491.058703	2.408497	-8.522115	0.616093	1.735457	0.490470
0.270	4.962988	-3.709332	491.072492	2.224719	-8.771388	0.613476	1.786170	0.453033
0.280	5.005738	-3.829799	491.316661	2.044769	-9.002448	0.607518	1.832311	0.416181
0.290	4.977013	-3.962553	491.699612	1.868012	-9.207591	0.598405	1.872605	0.379909
0.300	4.885263	-4.107134	492.149891	1.693591	-9.380951	0.587150	1.906117	0.344121
0.310	4.750118	-4.263590	492.628292	1.520496	-9.520205	0.574993	1.932533	0.308650
0.320	4.594899	-4.434292	493.125137	1.347640	-9.627341	0.562564	1.952312	0.273286
0.330	4.438594	-4.623464	493.646584	1.174197	-9.708162	0.549220	1.966622	0.237862
0.340	4.290437	-4.834167	494.199058	1.000338	-9.770751	0.532945	1.977088	0.202416
0.350	4.148697	-5.064082	494.780460	0.828073	-9.823605	0.510995	1.985447	0.167362
0.360	4.003594	-5.302430	495.381111	0.661574	-9.874190	0.481075	1.993251	0.133549
0.370	3.843030	-5.529981	495.990908	0.506507	-9.928356	0.442528	2.001721	0.102120
0.380	3.659094	-5.722602	496.606064	0.368569	-9.990474	0.396946	2.011750	0.074218
0.390	3.453228	-5.857117	497.230181	0.252038	-10.063814	0.347951	2.023975	0.050688
0.400	3.238468	-5.917220	497.868305	0.159122	-10.150702	0.300318	2.038833	0.031961
0.410	3.037870	-5.897232	498.516637	0.090389	-10.252340	0.258861	2.056569	0.018132
0.420	2.879249	-5.802517	499.152949	0.045877	-10.368524	0.227500	2.077224	0.009191
0.430	2.787718	-5.646883	499.732998	0.026189	-10.497628	0.208693	2.100647	0.005241
0.440	2.778534	-5.448434	500.196421	0.032906	-10.637050	0.203313	2.126575	0.006579
0.450	2.852823	-5.225538	500.482092	0.068093	-10.784044	0.210834	2.154731	0.013605
0.460	2.997709	-4.994042	500.548707	0.133200	-10.936687	0.229629	2.184940	0.026611
0.470	3.190772	-4.766054	500.392978	0.227929	-11.094685	0.257208	2.217194	0.045550
0.480	3.407230	-4.549976	500.057304	0.349589	-11.259739	0.290415	2.251690	0.069910
0.490	3.627114	-4.351277	499.622417	0.493158	-11.435346	0.325751	2.288798	0.098706
0.500	3.839843	-4.173419	499.186892	0.651865	-11.626093	0.359899	2.329006	0.130585
0.510	4.044891	-4.018501	498.840878	0.817907	-11.836668	0.390361	2.372834	0.163961
0.520	4.249136	-3.887441	498.643233	0.983005	-12.070775	0.415964	2.420724	0.197136
0.530	4.462651	-3.780034	498.609293	1.138834	-12.330091	0.437033	2.472896	0.228402
0.540	4.694672	-3.695333	498.712165	1.277613	-12.613465	0.455106	2.529207	0.256183
0.550	4.950830	-3.632552	498.894956	1.393038	-12.916703	0.472295	2.589063	0.279225
0.560	5.232058	-3.592009	499.086984	1.481259	-13.233164	0.490519	2.651474	0.296794
0.570	5.535062	-3.575320	499.216848	1.541403	-13.555037	0.510919	2.715260	0.308764
0.580	5.853663	-3.584364	499.219901	1.575256	-13.874685	0.533631	2.779273	0.315543
0.590	6.180047	-3.619510	499.043292	1.586179	-14.185425	0.557919	2.842524	0.317844
0.600	6.505384	-3.678226	498.652772	1.577609	-14.481628	0.582505	2.904151	0.316374
0.610	6.819984	-3.755181	498.041498	1.551589	-14.758691	0.605923	2.963346	0.311538
0.620	7.113573	-3.844200	497.237137	1.507905	-15.013426	0.626819	3.019369	0.303257
0.630	7.376134	-3.941285	496.303450	1.444318	-15.244869	0.644221	3.071683	0.291015
0.640	7.599320	-4.047076	495.334868	1.357901	-15.454941	0.657777	3.120100	0.274138
0.650	7.778115	-4.167206	494.444109	1.246797	-15.648339	0.667896	3.164835	0.252161
0.660	7.912275	-4.310100	493.743703	1.111466	-15.831497	0.675662	3.206420	0.225110
0.670	8.007102	-4.483111	493.323952	0.954868	-16.010958	0.682498	3.245526	0.193558
0.680	8.073066	-4.688759	493.231789	0.781708	-16.191700	0.689677	3.282777	0.158487
0.690	8.123932	-4.922812	493.455998	0.597244	-16.375879	0.697922	3.318610	0.121033
0.700	8.173666	-5.175072	493.923931	0.406226	-16.562279	0.707289	3.353204	0.082245
0.710	8.233106	-5.432406	494.512799	0.212430	-16.746498	0.717355	3.386464	0.042957
0.720	8.307586	-5.682449	495.074273	0.019057	-16.921677	0.727510	3.418008	0.003849
0.730	8.396196	-5.916468	495.466104	-0.170168	-17.079430	0.737127	3.447144	-0.034345
0.740	8.492622	-6.130601	495.581419	-0.349872	-17.210725	0.745509	3.472835	-0.070598
0.750	8.587002	-6.325478	495.366657	-0.512750	-17.306719	0.751759	3.493719	-0.103509
0.760	8.668061	-6.504582	494.823124	-0.650707	-17.359652	0.754784	3.508254	-0.131503
0.770	8.724968	-6.671990	493.994071	-0.757223	-17.363776	0.753621	3.514977	-0.153286
0.780	8.748741	-6.830253	492.945593	-0.830016	-17.315996	0.748001	3.512760	-0.168379
0.790	8.733192	-6.979076	491.751001	-0.872747	-17.215867	0.738875	3.500932	-0.177477
0.800	8.675103	-7.115152	490.483795	-0.894842	-17.064835	0.728534	3.479184	-0.182441
0.810	8.573288	-7.233196	489.218196	-0.909323	-16.865097	0.720092	3.447357	-0.185873
0.820	8.426956	-7.327848	488.033149	-0.929343	-16.618776	0.716442	3.405256	-0.190426
0.830	8.234868	-7.395785	487.016150	-0.964543	-16.327949	0.719114	3.352650	-0.198052
0.840	7.996573	-7.437277	486.264478	-1.018279	-15.995588	0.727549	3.289483	-0.209409
0.850	7.715264	-7.456688	485.881242	-1.086400	-15.626749	0.739141	3.216166	-0.223594
0.860	7.399819	-7.461891	485.963318	-1.157813	-15.229010	0.750071	3.133778	-0.238251
0.870	7.063292	-7.462835	486.580671	-1.216705	-14.811373	0.756666	3.043971	-0.250052
0.880	6.717159	-7.469453	487.752308	-1.245898	-14.381817	0.756742	2.948590	-0.255437
0.890	6.364093	-7.489020	489.428543	-1.230546	-13.944725	0.750350	2.849185	-0.251425
0.900	5.994167	-7.523252	491.488536	-1.161243	-13.499710	0.739573	2.746699	-0.236271
0.910	5.588251	-7.566009	493.756922	-1.035818	-13.042715	0.727463	2.641526	-0.209783
0.920	5.128082	-7.602816	496.036708	-0.859539	-12.569043	0.716645	2.533894	-0.173281
0.930	4.608179	-7.613049	498.149319	-0.643886	-12.076921	0.708282	2.424358	-0.129256
0.940	4.043378	-7.574706	499.968683	-0.404251	-11.569991	0.701879	2.314143	-0.080855
0.950	3.467997	-7.470599	501.437498	-0.156978	-11.057660	0.695922	2.205192	-0.031306
0.960	2.926673	-7.294063	502.561109	0.083875	-10.553272	0.688868	2.099898	0.016690
0.970	2.460708	-7.052152	503.384318	0.309469	-10.070889	0.679881	2.000636	0.061478
0.980	2.095695	-6.765016	503.963175	0.518093	-9.621939	0.669017	1.909254	0.102804
0.990	1.835403	-6.461522	504.343428	0.715355	-9.212863	0.656957	1.826704	0.141839
1.000	1.663794	-6.172439	504.550677	0.912354	-8.844519	0.644574	1.752950	0.180825
1.010	1.553238	-5.923040	504.590101	1.122191	-8.513304	0.632602	1.687172	0.222397
1.020	1.474682	-5.726912	504.451418	1.356008	-8.213352	0.621491	1.628175	0.268808
1.030	1.405801	-5.582459	504.117067	1.620013	-7.938833	0.611438	1.574800	0.321356
1.040	1.335224	-5.473198	503.573266	1.914506	-7.685614	0.602442	1.526216	0.380184
1.050	1.262966	-5.372186	502.821963	2.234891	-7.451947	0.594283	1.482025	0.444470
1.060	1.197983	-5.249672	501.889167	2.573734	-7.238254	0.586463	1.442202	0.512809
1.070	1.153715	-5.081939	500.825075	2.922793	-7.046137	0.578268	1.406906	0.583596
1.080	1.142579	-4.858628	499.694287	3.274367	-6.876869	0.569054	1.376215	0.655274
1.090	1.170880	-4.586167	498.558888	3.621924	-6.729740	0.558626	1.349838	0.726479
1.100	1.235531	-4.286025	497.461230	3.960344	-6.600844	0.547406	1.326906	0.796111
1.110	1.323248	-3.988241	496.414460	4.286093	-6.482835	0.536240	1.305932	0.863410
1.120	1.412250	-3.722417	495.405971	4.597453	-6.365829	0.525918	1.284972	0.928017
1.130	1.476353	-3.509268	494.413257	4.894768	-6.239169	0.516738	1.261934	0.990015
1.140	1.491016	-3.355413	493.426410	5.180490	-6.093500	0.508360	1.234936	1.049901
1.150	1.440059	-3.252670	492.469255	5.458874	-5.922673	0.500049	1.202648	1.108470
1.160	1.321011	-3.181416	491.611949	5.735175	-5.725224	0.491178	1.164582	1.166606
1.170	1.147073	-3.116449	490.969954	6.014412	-5.505258	0.481705	1.121302	1.225006
1.180	0.944503	-3.033499	490.686925	6.299986	-5.272457	0.472339	1.074505	1.283912
1.190	0.745615	-2.914906	490.903231	6.592658	-5.040873	0.464235	1.026857	1.342965
1.200	0.579209	-2.753594	491.717588	6.890241	-4.826376	0.458345	0.981534	1.401260
1.210	0.461644	-2.554751	493.153542	7.188029	-4.643301	0.454754	0.941553	1.457564
1.220	0.392127	-2.334709	495.141566	7.479709	-4.501350	0.452417	0.909104	1.510620
1.230	0.354386	-2.116954	497.521940	7.758466	-4.403858	0.449532	0.885159	1.559422
1.240	0.324242	-1.926045	500.066745	8.018041	-4.347934	0.444441	0.869471	1.603394
1.250	0.280180	-1.781253	502.514456	8.253580	-4.326258	0.436603	0.860922	1.642456
1.260	0.212807	-1.691985	504.608907	8.462139	-4.329751	0.427089	0.858041	1.676970
1.270	0.129560	-1.656453	506.135131	8.642862	-4.350148	0.418253	0.859484	1.707619
1.280	0.052963	-1.663657	506.946338	8.797008	-4.381752	0.412686	0.864342	1.735294
1.290	0.013466	-1.697347	506.978092	8.927878	-4.421961	0.411952	0.872219	1.760999
1.300	0.039878	-1.740079	506.247933	9.040479	-4.470633	0.415785	0.883092	1.785781
1.310	0.150892	-1.776028	504.841880	9.140696	-4.528629	0.422201	0.897039	1.810606
1.320	0.350073	-1.792539	502.892628	9.233977	-4.596075	0.428484	0.913928	1.836173
1.330	0.625161	-1.781128	500.556232	9.323863	-4.670959	0.432485	0.933154	1.862700
1.340	0.951185	-1.738533	497.993608	9.410925	-4.748511	0.433524	0.953528	1.889768
1.350	1.296162	-1.667773	495.360461	9.492578	-4.821595	0.432470	0.973351	1.916297
1.360	1.627667	-1.578673	492.805289	9.563986	-4.882006	0.431075	0.990656	1.940723
1.370	1.918555	-1.487192	490.471652	9.619825	-4.922263	0.431049	1.003577	1.961342
1.380	2.150590	-1.413057	488.498989	9.656274	-4.937283	0.433377	1.010705	1.976723
1.390	2.315554	-1.375837	487.016612	9.672398	-4.925256	0.438172	1.011312	1.986051
1.400	2.414097	-1.390413	486.128609	9.670335	-4.887326	0.445005	1.005357	1.989254
1.410	2.452890	-1.463219	485.892995	9.654359	-4.826213	0.453354	0.993267	1.986931
1.420	2.440834	-1.590311	486.303935	9.629523	-4.744412	0.462833	0.975606	1.980145
1.430	2.385426	-1.757578	487.286970	9.600631	-4.642834	0.473056	0.952793	1.970221
1.440	2.290547	-1.942972	488.712036	9.571940	-4.520540	0.483388	0.924991	1.958605
1.450	2.156437	-2.120459	490.420605	9.547494	-4.375663	0.492851	0.892227	1.946797
1.460	1.981833	-2.264984	492.257427	9.531694	-4.207052	0.500328	0.854645	1.936323
1.470	1.767469	-2.357178	494.096903	9.529557	-4.015929	0.504898	0.812782	1.928682
1.480	1.519603	-2.386564	495.857615	9.546161	-3.806909	0.506160	0.767742	1.925182
1.490	1.252030	-2.352778	497.503372	9.585236	-3.588111	0.504438	0.721223	1.926667
1.500	0.985405	-2.265002	499.033322	9.647408	-3.370468	0.500829	0.675399	1.933219
1.510	0.743849	-2.139935	500.466001	9.729052	-3.166564	0.497071	0.632723	1.943999
1.520	0.549920	-1.998573	501.822290	9.822505	-2.989279	0.495229	0.595685	1.957367
1.530	0.419715	-1.862350	503.110861	9.917753	-2.850394	0.497264	0.566554	1.971286
1.540	0.359764	-1.749583	504.318118	10.004882	-2.759263	0.504569	0.547128	1.983843
1.550	0.366674	-1.673027	505.403638	10.076274	-2.721723	0.517581	0.538525	1.993708
1.560	0.429499	-1.638714	506.301210	10.127839	-2.739421	0.535577	0.541065	2.000358
1.570	0.533731	-1.645670	506.924847	10.159129	-2.809689	0.556711	0.554262	2.004070
1.580	0.665247	-1.686294	507.178696	10.172597	-2.925960	0.578339	0.576909	2.005722
1.590	0.812860	-1.747650	506.969963	10.172424	-3.078604	0.597566	0.607256	2.006514
1.600	0.969247	-1.813940	506.224086	10.163284	-3.256059	0.611911	0.643205	2.007665
1.610	1.130933	-1.869739	504.901040	10.149364	-3.446082	0.619880	0.682526	2.010169
1.620	1.297991	-1.902982	503.010550	10.133761	-3.636973	0.621263	0.723041	2.014622
1.630	1.473474	-1.906727	500.622635	10.118257	-3.818627	0.617020	0.762776	2.021134
1.640	1.662048	-1.879396	497.869559	10.103430	-3.983195	0.608828	0.800048	2.029333
1.650	1.867384	-1.823932	494.936414	10.089043	-4.125221	0.598533	0.833485	2.038452
1.660	2.088659	-1.746696	492.040273	10.074567	-4.241226	0.587763	0.861967	2.047509
1.670	2.317471	-1.656671	489.401203	10.059612	-4.329022	0.577825	0.884555	2.055494
1.680	2.536893	-1.564803	487.211813	10.044096	-4.387122	0.569746	0.900455	2.061546
1.690	2.723852	-1.482756	485.613956	10.028120	-4.414568	0.564237	0.909069	2.065039
1.700	2.854586	-1.420688	484.689418	10.011774	-4.411170	0.561520	0.910102	2.065606
1.710	2.911481	-1.384757	484.465166	9.995105	-4.377917	0.561145	0.903660	2.063121
1.720	2.888637	-1.375684	484.926029	9.978309	-4.317175	0.561973	0.890275	2.057697
1.730	2.793646	-1.389317	486.024311	9.961894	-4.232390	0.562447	0.870819	2.049670
1.740	2.644441	-1.418874	487.680039	9.946458	-4.127331	0.561075	0.846319	2.039546
1.750	2.462332	-1.457579	489.774512	9.932017	-4.005107	0.556955	0.817745	2.027875
1.760	2.264366	-1.500274	492.146484	9.917222	-3.867376	0.550140	0.785818	2.015095
1.770	2.058516	-1.543513	494.599660	9.898910	-3.714133	0.541721	0.750937	2.001399
1.780	1.843819	-1.584783	496.923697	9.872242	-3.544273	0.533579	0.713243	1.986672
1.790	1.615030	-1.622033	498.923951	9.831318	-3.356830	0.527823	0.672814	1.970504
1.800	1.369194	-1.654245	500.451699	9.770024	-3.152483	0.526097	0.629927	1.952241
1.810	1.110913	-1.683007	501.426615	9.682924	-2.934782	0.529017	0.585287	1.931075
1.820	0.854133	-1.714254	501.845932	9.566143	-2.710584	0.535937	0.540123	1.906191
1.830	0.619914	-1.759014	501.778602	9.418128	-2.489447	0.545057	0.496125	1.876949
1.840	0.430988	-1.832163	501.346375	9.240037	-2.282144	0.553809	0.455203	1.843045
1.850	0.304917	-1.948903	500.696297	9.035527	-2.098776	0.559422	0.419171	1.804592
1.860	0.248278	-2.119777	499.971055	8.809951	-1.947043	0.559571	0.389431	1.762092
1.870	0.254013	-2.345967	499.284518	8.569284	-1.831189	0.552956	0.366763	1.716313
1.880	0.302859	-2.616834	498.708138	8.319103	-1.751880	0.539654	0.351284	1.668131
1.890	0.368183	-2.910970	498.269792	8.063830	-1.706953	0.521170	0.342576	1.618366
1.900	0.422655	-3.200885	497.962176	7.806311	-1.692573	0.500154	0.339900	1.567651
1.910	0.444966	-3.460189	497.755776	7.547757	-1.704131	0.479843	0.342363	1.516358
1.920	0.424986	-3.670990	497.612305	7.288110	-1.736616	0.463325	0.348990	1.464616
1.930	0.366002	-3.828785	497.496551	7.026781	-1.784725	0.452759	0.358741	1.412428
1.940	0.283272	-3.942903	497.385662	6.763518	-1.843273	0.448788	0.370592	1.359814
1.950	0.199181	-4.032528	497.274894	6.498929	-1.908127	0.450403	0.383717	1.306909
1.960	0.136595	-4.120201	497.178611	6.234253	-1.977314	0.455315	0.397707	1.253926
1.970	0.112699	-4.225527	497.125868	5.970513	-2.051607	0.460663	0.412694	1.201006
1.980	0.135248	-4.361047	497.151363	5.707682	-2.134073	0.463807	0.429260	1.148077
1.990	0.202088	-4.530754	497.284507	5.444579	-2.228672	0.462994	0.448168	1.094862
2.000	0.303558	-4.730396	497.540764	5.179630	-2.338582	0.457753	0.470028	1.041046
2.010	0.426658	-4.948434	497.918789	4.912013	-2.465124	0.448869	0.495085	0.986509
2.020	0.559433	-5.167427	498.403674	4.642517	-2.607828	0.437931	0.523236	0.931477
2.030	0.694033	-5.366609	498.972825	4.373721	-2.765576	0.426663	0.554254	0.876545
2.040	0.827401	-5.526271	499.599616	4.109522	-2.938112	0.416411	0.588093	0.822563
2.050	0.959846	-5.633146	500.252328	3.854300	-3.127036	0.408025	0.625092	0.770471
2.060	1.092912	-5.684620	500.890015	3.612048	-3.335619	0.402100	0.665938	0.721126
2.070	1.228202	-5.689780	501.459349	3.385651	-3.567533	0.399268	0.711430	0.675160
2.080	1.367781	-5.666826	501.895924	3.176368	-3.825137	0.400258	0.762138	0.632874
2.090	1.515554	-5.637979	502.131356	2.983635	-4.108190	0.405683	0.818150	0.594194
2.100	1.678230	-5.623886	502.105422	2.805256	-4.413564	0.415726	0.879011	0.558699
2.110	1.864749	-5.639276	501.780067	2.638022	-4.736004	0.429994	0.943841	0.525733
2.120	2.084039	-5.690713	501.149823	2.478596	-5.069410	0.447604	1.011556	0.494582
2.130	2.342000	-5.776330	500.243222	2.324488	-5.407885	0.467401	1.081051	0.464671
2.140	2.638863	-5.887075	499.113847	2.174808	-5.745972	0.488146	1.151235	0.435734
2.150	2.967710	-6.009259	497.825256	2.030500	-6.078060	0.508621	1.220922	0.407874
2.160	3.314505	-6.128238	496.436819	1.893871	-6.397560	0.527681	1.288696	0.381493
2.170	3.659778	-6.232458	494.995939	1.767600	-6.696637	0.544301	1.352867	0.357094
2.180	3.981920	-6.316401	493.538626	1.653714	-6.966910	0.557596	1.411624	0.335073
2.190	4.261503	-6.381059	492.097153	1.553093	-7.200840	0.566869	1.463296	0.315607
2.200	4.485338	-6.431793	490.710833	1.465716	-7.393046	0.571695	1.506599	0.298692
2.210	4.648772	-6.474836	489.433921	1.391303	-7.540969	0.572085	1.540753	0.284268
2.220	4.755304	-6.514263	488.335619	1.329881	-7.644716	0.568622	1.565463	0.272329
2.230	4.813558	-6.550653	487.491645	1.281975	-7.706408	0.562488	1.580829	0.262974
2.240	4.832513	-6.581551	486.971813	1.248550	-7.729508	0.555360	1.587260	0.256391
2.250	4.816709	-6.602973	486.829656	1.230945	-7.718419	0.549251	1.585446	0.252849
2.260	4.763617	-6.611046	487.097780	1.230822	-7.678391	0.546326	1.576355	0.252685
2.270	4.664896	-6.603233	487.788733	1.249963	-7.615526	0.548604	1.561234	0.256251
2.280	4.511541	-6.578934	488.898043	1.289822	-7.536718	0.557498	1.541573	0.263822
2.290	4.300755	-6.539359	490.405015	1.350874	-7.449486	0.573275	1.519048	0.275461
2.300	4.041185	-6.486849	492.268429	1.432028	-7.361670	0.594697	1.495459	0.290904
2.310	3.753861	-6.424128	494.418233	1.530329	-7.280979	0.619067	1.472636	0.309521
2.320	3.468334	-6.353933	496.748659	1.641186	-7.214301	0.642782	1.452304	0.330386
2.330	3.215744	-6.278825	499.119617	1.759115	-7.166906	0.662187	1.435910	0.352444
2.340	3.021623	-6.200624	501.370062	1.878854	-7.141852	0.674465	1.424467	0.374744
2.350	2.901024	-6.119404	503.341030	1.996473	-7.140026	0.678261	1.418526	0.396644
2.360	2.857376	-6.032796	504.901282	2.110047	-7.161010	0.673873	1.418299	0.417913
2.370	2.884967	-5.936449	505.967737	2.219591	-7.204464	0.662987	1.423898	0.438682
2.380	2.973684	-5.825668	506.515022	2.326212	-7.271295	0.648026	1.435554	0.459258
2.390	3.114021	-5.697474	506.571470	2.430823	-7.363999	0.631349	1.453694	0.479858
2.400	3.300443	-5.552175	506.202797	2.533097	-7.485975	0.614599	1.478849	0.500411
2.410	3.531813	-5.393949	505.489388	2.631337	-7.640060	0.598459	1.511418	0.520552
