Time[s]	Fx[N]	Fy[N]	Fz[N]	Mx[Nm]	My[Nm]	Mz[Nm]	COPx[cm]	COPy[cm]
0.010	4.058296	-1.825297	729.670510	2.825929	-37.167451	-0.225153	5.093731	0.387288
0.020	4.113150	-1.741694	729.448428	3.043119	-37.305318	-0.204801	5.114182	0.417181
0.030	4.201610	-1.681816	729.109113	3.241693	-37.451032	-0.184758	5.136547	0.444610
0.040	4.347704	-1.662258	728.552293	3.407914	-37.609407	-0.165069	5.162211	0.467765
0.050	4.560628	-1.688388	727.702935	3.536409	-37.780937	-0.145605	5.191808	0.485969
0.060	4.833157	-1.753372	726.523827	3.630403	-37.961790	-0.126342	5.225127	0.499695
0.070	5.144432	-1.841368	725.023842	3.699455	-38.145107	-0.107791	5.261221	0.510253
0.080	5.465990	-1.933766	723.257051	3.756005	-38.322802	-0.091266	5.298642	0.519318
0.090	5.769211	-2.015804	721.311384	3.812085	-38.487006	-0.078735	5.335699	0.528494
0.100	6.032065	-2.080517	719.291014	3.877046	-38.630862	-0.072256	5.370686	0.539009
0.110	6.243201	-2.128312	717.299260	3.956522	-38.748911	-0.073256	5.402056	0.551586
0.120	6.402295	-2.162759	715.426727	4.052388	-38.837360	-0.082002	5.428559	0.566429
0.130	6.516824	-2.185205	713.745627	4.163251	-38.894163	-0.097527	5.449303	0.583296
0.140	6.596546	-2.191315	712.309406	4.285128	-38.918756	-0.117987	5.463743	0.601582
0.150	6.647676	-2.171370	711.157036	4.412260	-38.911540	-0.141201	5.471582	0.620434
0.160	6.669031	-2.114131	710.321272	4.538179	-38.873653	-0.165117	5.472686	0.638891
0.170	6.651926	-2.012376	709.838207	4.656995	-38.807525	-0.188107	5.467094	0.656064
0.180	6.584019	-1.867699	709.753206	4.764562	-38.718061	-0.209172	5.455144	0.671298
0.190	6.455419	-1.692763	710.118894	4.859086	-38.613617	-0.228142	5.437627	0.684264
0.200	6.264271	-1.510287	710.984471	4.940944	-38.505879	-0.245792	5.415854	0.694944
0.210	6.019392	-1.349168	712.379662	5.011900	-38.408353	-0.263719	5.391557	0.703543
0.220	5.738971	-1.238771	714.298321	5.074220	-38.333912	-0.283909	5.366653	0.710378
0.230	5.446141	-1.202604	716.686272	5.130090	-38.292147	-0.308032	5.342944	0.715807
0.240	5.163580	-1.252517	719.436170	5.181523	-38.287322	-0.336691	5.321851	0.720220
0.250	4.909599	-1.384621	722.389693	5.230639	-38.317437	-0.368884	5.304261	0.724074
0.260	4.697118	-1.578116	725.345846	5.280034	-38.374562	-0.401907	5.290519	0.727933
0.270	4.534919	-1.797977	728.075187	5.333005	-38.446240	-0.431785	5.280532	0.732480
0.280	4.429024	-2.001766	730.341892	5.393506	-38.517593	-0.454182	5.273913	0.738491
0.290	4.382239	-2.149533	731.935086	5.465906	-38.573786	-0.465572	5.270110	0.746775
0.300	4.391922	-2.214286	732.706223	5.554497	-38.602605	-0.464394	5.268497	0.758080
0.310	4.448027	-2.189486	732.603135	5.662751	-38.596983	-0.451820	5.268471	0.772963
0.320	4.533749	-2.090515	731.688058	5.792432	-38.557027	-0.431811	5.269599	0.791653
0.330	4.629458	-1.949153	730.129892	5.942972	-38.490820	-0.410311	5.271777	0.813961
0.340	4.718370	-1.802876	728.170030	6.111441	-38.413327	-0.393709	5.275324	0.839288
0.350	4.791396	-1.682937	726.071738	6.293078	-38.343357	-0.387031	5.280932	0.866729
0.360	4.848960	-1.605595	724.069312	6.482032	-38.299328	-0.392532	5.289456	0.895223
0.370	4.899049	-1.569299	722.332051	6.671950	-38.295137	-0.409261	5.301597	0.923668
0.380	4.952602	-1.558053	720.950843	6.856308	-38.337384	-0.433768	5.317614	0.951009
0.390	5.018808	-1.548877	719.945771	7.028666	-38.424708	-0.461610	5.337167	0.976277
0.400	5.102587	-1.520229	719.286307	7.183074	-38.549191	-0.488928	5.359367	0.998639
0.410	5.204858	-1.458449	718.913645	7.314751	-38.699029	-0.513411	5.382987	1.017473
0.420	5.324253	-1.360591	718.756739	7.420888	-38.861259	-0.534336	5.406733	1.032462
0.430	5.458354	-1.233637	718.738122	7.501111	-39.023569	-0.551894	5.429456	1.043650
0.440	5.603268	-1.091348	718.771455	7.557078	-39.174889	-0.566348	5.450257	1.051388
0.450	5.751800	-0.950463	718.758188	7.591099	-39.305137	-0.577519	5.468479	1.056141
0.460	5.891788	-0.827585	718.592647	7.604361	-39.404876	-0.584840	5.483618	1.058230
0.470	6.006548	-0.737363	718.180737	7.595795	-39.465602	-0.587848	5.495219	1.057644
0.480	6.078361	-0.691788	717.468697	7.562420	-39.480933	-0.586806	5.502809	1.054042
0.490	6.093932	-0.699844	716.470541	7.501282	-39.448375	-0.583094	5.505931	1.046977
0.500	6.049342	-0.766667	715.281293	7.412102	-39.370893	-0.579119	5.504253	1.036250
0.510	5.952025	-0.891908	714.068220	7.299219	-39.257456	-0.577669	5.497718	1.022202
0.520	5.818801	-1.067918	713.040526	7.171712	-39.122040	-0.580909	5.486650	1.005793
0.530	5.670646	-1.278993	712.405851	7.041593	-38.981120	-0.589438	5.471757	0.988424
0.540	5.525979	-1.502800	712.326946	6.920918	-38.850395	-0.601839	5.454012	0.971593
0.550	5.394665	-1.714281	712.892093	6.819130	-38.741816	-0.614967	5.434457	0.956545
0.560	5.274966	-1.891219	714.106925	6.741605	-38.661894	-0.624864	5.414020	0.944061
0.570	5.154931	-2.019624	715.905453	6.689579	-38.611629	-0.627974	5.393398	0.934422
0.580	5.018117	-2.096886	718.169674	6.661096	-38.587665	-0.622159	5.373057	0.927510
0.590	4.851572	-2.131430	720.746086	6.652407	-38.583806	-0.607155	5.353315	0.922989
0.600	4.652885	-2.138974	723.454264	6.659372	-38.592184	-0.584389	5.334433	0.920497
0.610	4.433294	-2.136754	726.091517	6.678498	-38.603961	-0.556341	5.316680	0.919787
0.620	4.215525	-2.137840	728.441594	6.707411	-38.610012	-0.525820	5.300358	0.920789
0.630	4.027381	-2.147671	730.292846	6.744800	-38.601980	-0.495402	5.285822	0.923575
0.640	3.893881	-2.163878	731.465171	6.789969	-38.573581	-0.467131	5.273468	0.928270
0.650	3.830949	-2.179001	731.839507	6.842152	-38.521624	-0.442421	5.263671	0.934925
0.660	3.842201	-2.184691	731.380785	6.899674	-38.446231	-0.422037	5.256664	0.943376
0.670	3.918760	-2.175843	730.146281	6.959152	-38.350259	-0.406151	5.252408	0.953117
0.680	4.041471	-2.153276	728.275808	7.015102	-38.238335	-0.394467	5.250529	0.963248
0.690	4.185088	-2.124041	725.966572	7.060408	-38.116002	-0.386419	5.250380	0.972553
0.700	4.323913	-2.099229	723.440653	7.087821	-37.989193	-0.381355	5.251183	0.979738
0.710	4.437663	-2.090104	720.914202	7.092047	-37.863961	-0.378656	5.252215	0.983757
0.720	4.515652	-2.103976	718.574827	7.071494	-37.746218	-0.377784	5.252928	0.984100
0.730	4.557383	-2.141295	716.569876	7.028875	-37.641322	-0.378284	5.252987	0.980906
0.740	4.568960	-2.195083	715.004651	6.970602	-37.553519	-0.379744	5.252206	0.974903
0.750	4.557009	-2.253152	713.946751	6.905531	-37.485558	-0.381687	5.250470	0.967233
0.760	4.523780	-2.302532	713.431973	6.843645	-37.438805	-0.383482	5.247705	0.959257
0.770	4.466661	-2.334366	713.468871	6.794776	-37.413923	-0.384406	5.243946	0.952358
0.780	4.382533	-2.347165	714.040884	6.767203	-37.411655	-0.383905	5.239428	0.947733
0.790	4.274087	-2.347207	715.105157	6.766101	-37.432982	-0.381938	5.234612	0.946169
0.800	4.153852	-2.346411	716.587524	6.792234	-37.478260	-0.379172	5.230102	0.947858
0.810	4.043145	-2.358777	718.375910	6.841453	-37.545688	-0.376900	5.226468	0.952350
0.820	3.966167	-2.396377	720.318381	6.905425	-37.629996	-0.376678	5.224078	0.958663
0.830	3.942012	-2.465619	722.233089	6.973517	-37.722158	-0.379855	5.222989	0.965549
0.840	3.978083	-2.564686	723.932539	7.035175	-37.810381	-0.387194	5.222915	0.971800
0.850	4.067487	-2.683118	725.256126	7.081974	-37.882101	-0.398737	5.223272	0.976479
0.860	4.191134	-2.804003	726.099067	7.108778	-37.926450	-0.413962	5.223316	0.979037
0.870	4.323456	-2.908357	726.427269	7.113990	-37.936661	-0.432100	5.222362	0.979312
0.880	4.439413	-2.980480	726.275122	7.099192	-37.911837	-0.452388	5.220038	0.977480
0.890	4.520437	-3.012502	725.730749	7.068528	-37.857587	-0.474121	5.216478	0.973988
0.900	4.557859	-3.006350	724.916207	7.027980	-37.785271	-0.496545	5.212364	0.969489
0.910	4.553536	-2.972357	723.968345	6.984623	-37.710027	-0.518786	5.208795	0.964769
0.920	4.518058	-2.925439	723.022456	6.945787	-37.648088	-0.539961	5.207043	0.960660
0.930	4.467244	-2.880748	722.198668	6.918046	-37.614007	-0.559398	5.208263	0.957915
0.940	4.417914	-2.850522	721.590749	6.906023	-37.618360	-0.576747	5.213254	0.957055
0.950	4.384250	-2.842824	721.257607	6.911358	-37.666396	-0.591837	5.222322	0.958237
0.960	4.375804	-2.861834	721.218480	6.932487	-37.757892	-0.604352	5.235292	0.961219
0.970	4.397478	-2.908769	721.453492	6.965714	-37.888187	-0.613610	5.251647	0.965511
0.980	4.450947	-2.982428	721.910458	7.007356	-38.049953	-0.618669	5.270730	0.970668
0.990	4.536699	-3.078888	722.516143	7.055957	-38.234999	-0.618732	5.291923	0.976581
1.000	4.655827	-3.190620	723.187832	7.113433	-38.435491	-0.613645	5.314731	0.983622
1.010	4.810710	-3.305897	723.841722	7.184469	-38.644313	-0.604190	5.338779	0.992547
1.020	5.003908	-3.409498	724.397728	7.274374	-38.854855	-0.592054	5.363746	1.004196
1.030	5.235356	-3.485226	724.783277	7.386281	-39.060824	-0.579480	5.389311	1.019102
1.040	5.499044	-3.519902	724.939213	7.519045	-39.256583	-0.568703	5.415155	1.037197
1.050	5.781190	-3.507322	724.828615	7.667001	-39.437997	-0.561351	5.441010	1.057767
1.060	6.061520	-3.450183	724.445612	7.822013	-39.603197	-0.557982	5.466690	1.079724
1.070	6.317868	-3.358577	723.819243	7.976933	-39.752638	-0.557918	5.492067	1.102061
1.080	6.532374	-3.245376	723.008942	8.128775	-39.888271	-0.559430	5.516982	1.124298
1.090	6.696482	-3.120547	722.092068	8.280044	-40.012207	-0.560180	5.541150	1.146674
1.100	6.812305	-2.987133	721.147254	8.437718	-40.125462	-0.557779	5.564115	1.170041
1.110	6.889688	-2.840675	720.238370	8.610549	-40.227132	-0.550349	5.585253	1.195514
1.120	6.940636	-2.672013	719.402912	8.805909	-40.314080	-0.537010	5.603825	1.224058
1.130	6.974141	-2.471938	718.646929	9.027291	-40.381092	-0.518218	5.619045	1.256151
1.140	6.994023	-2.235783	717.947185	9.273128	-40.421514	-0.495842	5.630151	1.291617
1.150	7.000176	-1.966629	717.260221	9.537013	-40.428389	-0.472873	5.636502	1.329645
1.160	6.991438	-1.676378	716.537359	9.809046	-40.395901	-0.452785	5.637655	1.368951
1.170	6.967780	-1.384274	715.743907	10.077907	-40.320720	-0.438691	5.633400	1.408033
1.180	6.930677	-1.112848	714.879028	10.333281	-40.202886	-0.432512	5.623733	1.445459
1.190	6.882183	-0.882197	713.990114	10.568210	-40.046069	-0.434427	5.608771	1.480162
1.200	6.823967	-0.704501	713.174095	10.780801	-39.857231	-0.442824	5.588710	1.511665
1.210	6.757079	-0.580880	712.560949	10.974606	-39.645732	-0.454857	5.563837	1.540164
1.220	6.682154	-0.502006	712.281533	11.157276	-39.421820	-0.467403	5.534584	1.566414
1.230	6.599296	-0.452480	712.429447	11.337795	-39.194615	-0.477976	5.501543	1.591427
1.240	6.507397	-0.417435	713.030749	11.523231	-38.970015	-0.485209	5.465405	1.616092
1.250	6.403501	-0.388527	714.033444	11.716217	-38.749306	-0.488814	5.426819	1.640850
1.260	6.283156	-0.366449	715.321052	11.914118	-38.529160	-0.489211	5.386275	1.665562
1.270	6.142072	-0.358691	716.744912	12.110142	-38.303127	-0.487092	5.344039	1.689603
1.280	5.978336	-0.373915	718.163022	12.295791	-38.064090	-0.483103	5.300202	1.712117
1.290	5.794024	-0.416110	719.472038	12.463488	-37.806902	-0.477754	5.254812	1.732310
1.300	5.595612	-0.481284	720.623010	12.608375	-37.530489	-0.471522	5.208061	1.749649
1.310	5.393262	-0.557575	721.618382	12.728825	-37.238952	-0.465012	5.160477	1.763928
1.320	5.199182	-0.628004	722.495133	12.825835	-36.941399	-0.458980	5.113031	1.775214
1.330	5.025244	-0.674642	723.303375	12.901776	-36.650614	-0.454165	5.067115	1.783729
1.340	4.880293	-0.683238	724.088954	12.959175	-36.380961	-0.451012	5.024377	1.789721
1.350	4.768174	-0.647250	724.883993	13.000050	-36.146081	-0.449487	4.986464	1.793397
1.360	4.687576	-0.570113	725.704819	13.025925	-35.956869	-0.449072	4.954751	1.794934
1.370	4.634183	-0.464820	726.554734	13.038192	-35.820188	-0.448869	4.930143	1.794523
1.380	4.604342	-0.350921	727.428570	13.038218	-35.738657	-0.447708	4.913013	1.792371
1.390	4.598531	-0.250256	728.315468	13.026828	-35.711485	-0.444228	4.903299	1.788624
1.400	4.623005	-0.183207	729.196203	13.003386	-35.735769	-0.437104	4.900707	1.783249
1.410	4.688872	-0.166527	730.033839	12.965190	-35.807373	-0.425492	4.904892	1.775971
1.420	4.808816	-0.212480	730.761585	12.907975	-35.920811	-0.409597	4.915531	1.766373
1.430	4.992450	-0.328180	731.276316	12.827671	-36.068319	-0.391053	4.932242	1.754148
1.440	5.241951	-0.514244	731.446203	12.722822	-36.239007	-0.372789	4.954432	1.739406
1.450	5.549781	-0.762762	731.135312	12.596602	-36.419035	-0.358288	4.981162	1.722882
1.460	5.899501	-1.055539	730.239523	12.457552	-36.593171	-0.350486	5.011119	1.705954
1.470	6.269097	-1.364061	728.721041	12.318752	-36.747208	-0.350803	5.042699	1.690462
1.480	6.635087	-1.652261	726.627275	12.195707	-36.870191	-0.358753	5.074155	1.678399
1.490	6.975748	-1.882129	724.085431	12.103557	-36.955525	-0.372261	5.103752	1.671565
1.500	7.272878	-2.021064	721.274411	12.054327	-37.000738	-0.388459	5.129911	1.671254
1.510	7.512559	-2.049082	718.385439	12.054874	-37.006266	-0.404651	5.151311	1.678051
1.520	7.685700	-1.963681	715.587302	12.105952	-36.973942	-0.419077	5.166937	1.691750
1.530	7.788668	-1.780501	713.008821	12.202564	-36.905780	-0.431273	5.176062	1.711418
1.540	7.823697	-1.529120	710.741898	12.335556	-36.803376	-0.441949	5.178163	1.735589
1.550	7.798489	-1.245055	708.858275	12.494078	-36.668003	-0.452522	5.172826	1.762564
1.560	7.724693	-0.960465	707.427784	12.668244	-36.501221	-0.464537	5.159710	1.790747
1.570	7.615416	-0.696727	706.527146	12.851112	-36.305685	-0.479178	5.138611	1.818913
1.580	7.482192	-0.461519	706.233824	13.039249	-36.085648	-0.496935	5.109589	1.846308
1.590	7.332159	-0.251456	706.606280	13.231705	-35.846675	-0.517430	5.073076	1.872571
1.600	7.166456	-0.058844	707.658101	13.427939	-35.594434	-0.539422	5.029891	1.897518
1.610	6.980590	0.120921	709.336731	13.625814	-35.332970	-0.561049	4.981128	1.920923
1.620	6.766851	0.285057	711.516637	13.820868	-35.063258	-0.580281	4.927960	1.942452
1.630	6.518180	0.424232	714.012176	14.007354	-34.782878	-0.595476	4.871469	1.961781
1.640	6.232445	0.528031	716.608688	14.180312	-34.487144	-0.605820	4.812549	1.978808
1.650	5.915859	0.592283	719.103433	14.337316	-34.171345	-0.611483	4.751937	1.993777
1.660	5.584266	0.624388	721.343462	14.478904	-33.833214	-0.613425	4.690306	2.007214
1.670	5.261529	0.643357	723.247687	14.607662	-33.474664	-0.612927	4.628382	2.019732
1.680	4.975231	0.673730	724.805910	14.726593	-33.102234	-0.611027	4.567048	2.031798
1.690	4.750859	0.735722	726.056455	14.837495	-32.726163	-0.608110	4.507385	2.043573
1.700	4.606068	0.836021	727.052340	14.939917	-32.358412	-0.603846	4.450630	2.054861
1.710	4.546466	0.963506	727.829985	15.031018	-32.010161	-0.597533	4.398027	2.065183
1.720	4.563936	1.091830	728.392748	15.106336	-31.689451	-0.588662	4.350600	2.073927
1.730	4.637996	1.187914	728.714293	15.161085	-31.399734	-0.577410	4.308923	2.080525
1.740	4.740050	1.223047	728.756758	15.191437	-31.139858	-0.564773	4.273011	2.084569
1.750	4.839578	1.182481	728.492049	15.195395	-30.905401	-0.552257	4.242380	2.085870
1.760	4.910744	1.070396	727.916155	15.173166	-30.690614	-0.541260	4.216229	2.084466
1.770	4.937822	0.909009	727.053835	15.127188	-30.490088	-0.532514	4.193649	2.080615
1.780	4.918209	0.732679	725.956815	15.061986	-30.299624	-0.525851	4.173750	2.074777
1.790	4.862171	0.579167	724.698627	14.983938	-30.116351	-0.520402	4.155707	2.067610
1.800	4.789122	0.480758	723.366304	14.900887	-29.938276	-0.515072	4.138743	2.059937
1.810	4.721159	0.457702	722.048238	14.821559	-29.763503	-0.509038	4.122093	2.052710
1.820	4.675819	0.515482	720.819735	14.754760	-29.589464	-0.502091	4.104974	2.046942
1.830	4.660635	0.646003	719.730976	14.708288	-29.412634	-0.494731	4.086615	2.043581
1.840	4.671553	0.831667	718.803205	14.687512	-29.229078	-0.488001	4.066353	2.043329
1.850	4.695677	1.050522	718.036543	14.693696	-29.035798	-0.483054	4.043777	2.046372
1.860	4.716938	1.280590	717.426947	14.722641	-28.832323	-0.480620	4.018851	2.052145
1.870	4.722099	1.502097	716.983414	14.764491	-28.621776	-0.480588	3.991972	2.059251
1.880	4.704643	1.697782	716.734612	14.805394	-28.410659	-0.481934	3.963902	2.065673
1.890	4.665456	1.852669	716.719877	14.830763	-28.207084	-0.483021	3.935580	2.069255
1.900	4.610866	1.954725	716.969605	14.828981	-28.017932	-0.482150	3.907827	2.068286
1.910	4.549540	1.996501	717.486479	14.794074	-27.846095	-0.478127	3.881062	2.061931
1.920	4.489470	1.976593	718.237031	14.726382	-27.689100	-0.470694	3.855148	2.050351
1.930	4.435533	1.899897	719.155676	14.631191	-27.539827	-0.460684	3.829467	2.034496
1.940	4.387687	1.776652	720.157121	14.515955	-27.389023	-0.449844	3.803201	2.015665
1.950	4.340117	1.621018	721.151445	14.387046	-27.228468	-0.440338	3.775693	1.995010
1.960	4.282050	1.449640	722.057589	14.246869	-27.053430	-0.434092	3.746714	1.973093
1.970	4.201013	1.279934	722.812724	14.092040	-26.863669	-0.432200	3.716546	1.949611
1.980	4.088368	1.127597	723.376158	13.913222	-26.663082	-0.434631	3.685922	1.923373
1.990	3.945480	1.003282	723.728202	13.696968	-26.458571	-0.440325	3.655871	1.892557
2.000	3.787515	0.909035	723.866489	13.429370	-26.258515	-0.447682	3.627536	1.855228
2.010	3.641966	0.835607	723.802778	13.100417	-26.070959	-0.455251	3.601942	1.809943
2.020	3.540982	0.762017	723.561376	12.707359	-25.901722	-0.462386	3.579755	1.756224
2.030	3.509872	0.658323	723.178451	12.255629	-25.753012	-0.469611	3.561087	1.694689
2.040	3.556947	0.491446	722.701348	11.757000	-25.623315	-0.478577	3.545491	1.626813
2.050	3.670016	0.232608	722.187090	11.225903	-25.508839	-0.491615	3.532165	1.554431
2.060	3.821580	-0.135778	721.698068	10.675425	-25.405914	-0.511025	3.520297	1.479209
2.070	3.979913	-0.615650	721.292785	10.114440	-25.313042	-0.538302	3.509399	1.402265
2.080	4.120079	-1.192144	721.012676	9.546777	-25.231382	-0.573465	3.499437	1.324079
2.090	4.229734	-1.835379	720.870900	8.972636	-25.163428	-0.614646	3.490698	1.244694
2.100	4.308318	-2.504011	720.850778	8.391660	-25.110781	-0.658083	3.483492	1.164133
2.110	4.362164	-3.149571	720.917252	7.806363	-25.072569	-0.698604	3.477871	1.082838
2.120	4.399685	-3.721491	721.036583	7.224225	-25.045569	-0.730627	3.473550	1.001922
2.130	4.429517	-4.173627	721.193171	6.657294	-25.025882	-0.749454	3.470066	0.923094
2.140	4.461486	-4.472823	721.393087	6.119227	-25.010941	-0.752465	3.467034	0.848251
2.150	4.507800	-4.608077	721.651561	5.621033	-25.000498	-0.739791	3.464345	0.778912
2.160	4.581854	-4.596603	721.971741	5.167427	-24.996011	-0.714270	3.462187	0.715738
2.170	4.694253	-4.482852	722.328222	4.755477	-24.998974	-0.680756	3.460888	0.658354
2.180	4.848155	-4.329278	722.667306	4.376091	-25.009315	-0.645082	3.460696	0.605547
2.190	5.036865	-4.201398	722.926849	4.017619	-25.024909	-0.612940	3.461610	0.555744
2.200	5.245417	-4.152000	723.066568	3.670002	-25.042544	-0.588851	3.463380	0.507561
2.210	5.455723	-4.209519	723.091677	3.327876	-25.059832	-0.575341	3.465651	0.460229
2.220	5.653015	-4.373812	723.053779	2.991737	-25.076844	-0.572500	3.468185	0.413764
2.230	5.830458	-4.619749	723.023923	2.667258	-25.096108	-0.578135	3.470993	0.368903
2.240	5.989522	-4.906220	723.048482	2.363588	-25.120412	-0.588613	3.474236	0.326892
2.250	6.135798	-5.186703	723.109635	2.091621	-25.149213	-0.600258	3.477925	0.289254
2.260	6.272579	-5.418042	723.111239	1.862809	-25.175532	-0.610816	3.481557	0.257610
2.270	6.395986	-5.565863	722.899016	1.688568	-25.185273	-0.620305	3.483927	0.233583
2.280	6.494704	-5.606833	722.309050	1.579809	-25.159773	-0.630807	3.483242	0.218716
2.290	6.554747	-5.528925	721.227849	1.545950	-25.080796	-0.645243	3.477514	0.214350
2.300	6.566835	-5.330902	719.643063	1.593132	-24.936006	-0.665740	3.465052	0.221378
2.310	6.532461	-5.021703	717.666561	1.722085	-24.722762	-0.692351	3.444881	0.239956
2.320	6.465365	-4.619705	715.520949	1.926716	-24.448863	-0.722705	3.416932	0.269275
2.330	6.387282	-4.151428	713.494056	2.194281	-24.130189	-0.752716	3.381975	0.307540
2.340	6.319443	-3.649248	711.876878	2.507236	-23.786309	-0.778049	3.341351	0.352201
2.350	6.273176	-3.147863	710.904090	2.845909	-23.435642	-0.795727	3.296597	0.400323
2.360	6.243555	-2.679789	710.712651	3.190844	-23.091686	-0.805192	3.249089	0.448964
