Time[s]	Fx[N]	Fy[N]	Fz[N]	Mx[Nm]	My[Nm]	Mz[Nm]	COPx[cm]	COPy[cm]
0.010	0.714966	-9.742293	546.597743	1.796825	7.990024	-0.309338	-1.461774	0.328729
0.020	0.724695	-9.582467	543.898564	1.772906	8.158543	-0.303282	-1.500012	0.325963
0.030	0.773812	-9.419126	541.289797	1.767639	8.321614	-0.301245	-1.537368	0.326561
0.040	0.887618	-9.251049	538.861982	1.796072	8.476402	-0.306259	-1.573019	0.333308
0.050	1.068830	-9.076598	536.708698	1.868690	8.624883	-0.319911	-1.606995	0.348176
0.060	1.296132	-8.892627	534.920342	1.991759	8.773958	-0.342381	-1.640236	0.372347
0.070	1.530525	-8.692453	533.572711	2.168957	8.933950	-0.372905	-1.674364	0.406497
0.080	1.726948	-8.463812	532.712287	2.402738	9.116067	-0.410348	-1.711255	0.451039
0.090	1.846743	-8.188612	532.343945	2.694402	9.329707	-0.453563	-1.752571	0.506139
0.100	1.866695	-7.846092	532.429145	3.043070	9.580369	-0.501434	-1.799370	0.571545
0.110	1.782515	-7.419214	532.899369	3.444629	9.868577	-0.552723	-1.851865	0.646394
0.120	1.607087	-6.901818	533.680844	3.891627	10.189818	-0.605887	-1.909347	0.729205
0.130	1.365200	-6.303219	534.718219	4.374309	10.535366	-0.658964	-1.970265	0.818059
0.140	1.086657	-5.648437	535.983776	4.882167	10.893751	-0.709525	-2.032478	0.910880
0.150	0.799348	-4.974648	537.466562	5.405068	11.252606	-0.754633	-2.093638	1.005657
0.160	0.523899	-4.325657	539.147592	5.933343	11.600459	-0.790883	-2.151630	1.100504
0.170	0.271333	-3.745650	540.975129	6.456962	11.927993	-0.814628	-2.204906	1.193578
0.180	0.044313	-3.272644	542.853301	6.964598	12.228426	-0.822478	-2.252621	1.282961
0.190	-0.159002	-2.932317	544.649355	7.443503	12.496962	-0.812003	-2.294497	1.366660
0.200	-0.340667	-2.733888	546.215532	7.880520	12.729735	-0.782477	-2.330533	1.442749
0.210	-0.500449	-2.669980	547.416243	8.263786	12.922946	-0.735438	-2.360717	1.509598
0.220	-0.636122	-2.721201	548.150866	8.584207	13.072820	-0.674833	-2.384894	1.566030
0.230	-0.746010	-2.863952	548.365777	8.836027	13.176507	-0.606622	-2.402868	1.611338
0.240	-0.831941	-3.078139	548.054409	9.016437	13.233435	-0.537917	-2.414621	1.645172
0.250	-0.900338	-3.351130	547.249411	9.124763	13.246340	-0.475871	-2.420531	1.667387
0.260	-0.960107	-3.675896	546.013495	9.162059	13.221381	-0.426596	-2.421439	1.677991
0.270	-1.017969	-4.043958	544.433970	9.131590	13.167275	-0.394351	-2.418526	1.677263
0.280	-1.073604	-4.436420	542.621671	9.040159	13.093827	-0.381209	-2.413067	1.666015
0.290	-1.117108	-4.817726	540.710928	8.899536	13.010324	-0.387282	-2.406151	1.645895
0.300	-1.129890	-5.136225	538.855331	8.726905	12.924085	-0.411351	-2.398433	1.619526
0.310	-1.088612	-5.333156	537.215254	8.543384	12.839366	-0.451519	-2.389985	1.590309
0.320	-0.970977	-5.358047	535.936739	8.370523	12.756869	-0.505556	-2.380294	1.561849
0.330	-0.762285	-5.185202	535.125759	8.225710	12.674274	-0.570824	-2.368466	1.537154
0.340	-0.461614	-4.824803	534.825466	8.118247	12.587938	-0.643970	-2.353653	1.517924
0.350	-0.086213	-4.323865	535.004865	8.047681	12.495378	-0.720631	-2.335563	1.504226
0.360	0.327668	-3.756286	535.564401	8.005050	12.397512	-0.795416	-2.314850	1.494694
0.370	0.728966	-3.205450	536.358319	7.976435	12.299577	-0.862303	-2.293164	1.487147
0.380	1.061368	-2.745462	537.228198	7.947393	12.210163	-0.915463	-2.272807	1.479333
0.390	1.276596	-2.427105	538.038397	7.906608	12.138727	-0.950345	-2.256108	1.469525
0.400	1.347458	-2.272183	538.703007	7.847615	12.092662	-0.964646	-2.244773	1.456761
0.410	1.275649	-2.276320	539.196234	7.768311	12.075116	-0.958779	-2.239466	1.440721
0.420	1.090800	-2.417197	539.544101	7.668948	12.084421	-0.935680	-2.239747	1.421376
0.430	0.840947	-2.663976	539.802660	7.549788	12.115189	-0.900064	-2.244374	1.398620
0.440	0.578364	-2.984567	540.032728	7.409577	12.160379	-0.857455	-2.251786	1.372061
0.450	0.346268	-3.349385	540.280461	7.245509	12.213220	-0.813290	-2.260533	1.341064
0.460	0.170734	-3.732093	540.567648	7.054719	12.268123	-0.772267	-2.269489	1.305058
0.470	0.059435	-4.108739	540.890282	6.836562	12.320484	-0.737964	-2.277816	1.263946
0.480	0.006292	-4.456872	541.222783	6.594437	12.365866	-0.712722	-2.284802	1.218433
0.490	-0.000668	-4.755972	541.526787	6.336029	12.399294	-0.697702	-2.289692	1.170031
0.500	0.028246	-4.989951	541.763713	6.071768	12.415160	-0.692974	-2.291619	1.120741
0.510	0.088577	-5.151294	541.908251	5.812262	12.407935	-0.697548	-2.289674	1.072555
0.520	0.181138	-5.244898	541.958140	5.566013	12.373476	-0.709356	-2.283105	1.027019
0.530	0.307733	-5.288958	541.935837	5.338443	12.310475	-0.725338	-2.271574	0.985069
0.540	0.466042	-5.311285	541.880197	5.132558	12.221414	-0.741790	-2.255372	0.947176
0.550	0.646724	-5.341639	541.830578	4.950619	12.112526	-0.754973	-2.235482	0.913684
0.560	0.834230	-5.402673	541.810149	4.795676	11.992642	-0.761795	-2.213440	0.885121
0.570	1.010559	-5.502842	541.816198	4.671939	11.871267	-0.760389	-2.191014	0.862274
0.580	1.159743	-5.633822	541.821337	4.583756	11.756659	-0.750455	-2.169841	0.845990
0.590	1.270888	-5.773389	541.783526	4.533875	11.654642	-0.733338	-2.151162	0.836842
0.600	1.338941	-5.892626	541.659316	4.521969	11.568421	-0.711789	-2.135737	0.834836
0.610	1.363970	-5.964849	541.415845	4.544112	11.499052	-0.689368	-2.123885	0.839302
0.620	1.350589	-5.973126	541.040293	4.593282	11.445893	-0.669556	-2.115534	0.848972
0.630	1.308484	-5.914032	540.547003	4.660566	11.406592	-0.654841	-2.110194	0.862194
0.640	1.253211	-5.796916	539.981026	4.736599	11.376742	-0.646132	-2.106878	0.877179
0.650	1.205241	-5.639638	539.414872	4.812901	11.349847	-0.642729	-2.104103	0.892245
0.660	1.185947	-5.462894	538.935750	4.882927	11.318271	-0.642821	-2.100115	0.906031
0.670	1.211432	-5.285318	538.624505	4.942787	11.275224	-0.644292	-2.093337	0.917668
0.680	1.286762	-5.120583	538.532532	4.991565	11.217004	-0.645510	-2.082883	0.926883
0.690	1.403305	-4.976587	538.665573	5.031180	11.144323	-0.645881	-2.068876	0.934008
0.700	1.540559	-4.856181	538.981173	5.065675	11.061935	-0.646027	-2.052379	0.939861
0.710	1.672049	-4.758894	539.400936	5.099942	10.976720	-0.647554	-2.034983	0.945483
0.720	1.773296	-4.683072	539.832920	5.138272	10.895129	-0.652462	-2.018241	0.951826
0.730	1.829045	-4.627633	540.196085	5.183291	10.821061	-0.662313	-2.003173	0.959520
0.740	1.837226	-4.592637	540.438527	5.235818	10.754950	-0.677477	-1.990041	0.968809
0.750	1.808300	-4.578318	540.544514	5.295649	10.694341	-0.696750	-1.978439	0.979688
0.760	1.760562	-4.582999	540.530842	5.362703	10.635571	-0.717569	-1.967616	0.992118
0.770	1.713667	-4.601065	540.437315	5.437750	10.575677	-0.736755	-1.956874	1.006176
0.780	1.683116	-4.622337	540.315975	5.522222	10.513598	-0.751509	-1.945824	1.022036
0.790	1.677544	-4.633650	540.220444	5.617266	10.450171	-0.760234	-1.934427	1.039810
0.800	1.698839	-4.622344	540.194714	5.722626	10.387080	-0.762835	-1.922840	1.059364
0.810	1.743839	-4.580489	540.262165	5.835949	10.325475	-0.760399	-1.911197	1.080207
0.820	1.806113	-4.508300	540.417846	5.952789	10.265108	-0.754468	-1.899476	1.101516
0.830	1.877125	-4.415317	540.627154	6.067103	10.204433	-0.746300	-1.887518	1.122234
0.840	1.947019	-4.318644	540.832083	6.171938	10.141551	-0.736477	-1.875176	1.141193
0.850	2.005743	-4.238787	540.964614	6.260245	10.075440	-0.725011	-1.862495	1.157237
0.860	2.044870	-4.194645	540.965620	6.325885	10.006916	-0.711874	-1.849825	1.169369
0.870	2.059653	-4.199452	540.805264	6.364691	9.938923	-0.697646	-1.837801	1.176892
0.880	2.050294	-4.258747	540.497855	6.375133	9.875925	-0.683872	-1.827190	1.179493
0.890	2.021851	-4.370410	540.103803	6.358288	9.822486	-0.672857	-1.818629	1.177235
0.900	1.983067	-4.526055	539.715578	6.317270	9.781449	-0.666930	-1.812334	1.170481
0.910	1.944900	-4.712851	539.431608	6.256492	9.752401	-0.667558	-1.807903	1.159830
0.920	1.919053	-4.915155	539.327814	6.181118	9.731101	-0.674772	-1.804302	1.146078
0.930	1.916194	-5.115830	539.437605	6.096822	9.710144	-0.687190	-1.800049	1.130218
0.940	1.943485	-5.297487	539.746893	6.009773	9.680642	-0.702536	-1.793552	1.113443
0.950	2.001822	-5.444034	540.203908	5.926663	9.634334	-0.718352	-1.783462	1.097116
0.960	2.084028	-5.542734	540.738062	5.854553	9.565405	-0.732622	-1.768954	1.082697
0.970	2.175355	-5.586439	541.280031	5.800371	9.471516	-0.744140	-1.749837	1.071603
0.980	2.256753	-5.575077	541.776639	5.770002	9.353847	-0.752535	-1.726513	1.065015
0.990	2.310280	-5.515512	542.197315	5.767159	9.216362	-0.757982	-1.699817	1.063664
1.000	2.324937	-5.419655	542.532005	5.792422	9.064605	-0.760746	-1.670796	1.067665
1.010	2.300665	-5.301819	542.782484	5.842793	8.904275	-0.760842	-1.640487	1.076452
1.020	2.248687	-5.176594	542.950581	5.911943	8.739849	-0.758000	-1.609695	1.088855
1.030	2.187955	-5.057775	543.028514	5.991130	8.573628	-0.751934	-1.578854	1.103281
1.040	2.139242	-4.957770	542.996683	6.070600	8.405569	-0.742681	-1.547996	1.117981
1.050	2.119363	-4.886797	542.830755	6.141149	8.233912	-0.730843	-1.516847	1.131319
1.060	2.137572	-4.851840	542.513928	6.195526	8.056337	-0.717588	-1.485001	1.142003
1.070	2.194961	-4.855768	542.046969	6.229473	7.871154	-0.704436	-1.452117	1.149250
1.080	2.286349	-4.896742	541.451009	6.242200	7.678211	-0.692859	-1.418081	1.152865
1.090	2.403510	-4.967782	540.763721	6.236154	7.479283	-0.683873	-1.383096	1.153212
1.100	2.538477	-5.056736	540.033076	6.216059	7.277920	-0.677750	-1.347680	1.151051
1.110	2.685937	-5.147418	539.311969	6.187528	7.078885	-0.673956	-1.312577	1.147300
1.120	2.843949	-5.222477	538.653801	6.155804	6.887385	-0.671344	-1.278629	1.142813
1.130	3.012709	-5.267692	538.107025	6.125054	6.708402	-0.668562	-1.246667	1.138259
1.140	3.191741	-5.276334	537.707431	6.098262	6.546295	-0.664500	-1.217446	1.134123
1.150	3.376685	-5.251845	537.469687	6.077470	6.404721	-0.658568	-1.191643	1.130756
1.160	3.557265	-5.207516	537.382512	6.064145	6.286740	-0.650668	-1.169882	1.128460
1.170	3.717815	-5.162921	537.412147	6.059542	6.194837	-0.640928	-1.152716	1.127541
1.180	3.840829	-5.137988	537.515450	6.064962	6.130561	-0.629454	-1.140537	1.128333
1.190	3.912544	-5.146543	537.658686	6.081791	6.093704	-0.616303	-1.133378	1.131162
1.200	3.928327	-5.191552	537.834096	6.111404	6.081318	-0.601678	-1.130705	1.136299
1.210	3.895330	-5.263963	538.066019	6.155060	6.087183	-0.586108	-1.131308	1.143923
1.220	3.830995	-5.345716	538.402233	6.213979	6.102301	-0.570416	-1.133409	1.154152
1.230	3.757908	-5.415561	538.892948	6.289627	6.116491	-0.555430	-1.135010	1.167139
1.240	3.697082	-5.454994	539.565884	6.384158	6.120576	-0.541640	-1.134352	1.183203
1.250	3.662116	-5.451826	540.407564	6.500653	6.108303	-0.529075	-1.130314	1.202917
1.260	3.656098	-5.400663	541.357933	6.642698	6.077255	-0.517513	-1.122595	1.227044
1.270	3.672035	-5.301480	542.319677	6.813038	6.028645	-0.506900	-1.111641	1.256277
1.280	3.696521	-5.158136	543.178252	7.011703	5.966320	-0.497687	-1.098409	1.290866
1.290	3.715302	-4.977789	543.826217	7.234529	5.895442	-0.490845	-1.084067	1.330302
1.300	3.718738	-4.770782	544.186015	7.473021	5.821095	-0.487489	-1.069688	1.373247
1.310	3.705372	-4.550010	544.226426	7.715857	5.746993	-0.488310	-1.055993	1.417766
1.320	3.682701	-4.329372	543.968261	7.951576	5.674557	-0.493092	-1.043178	1.461772
1.330	3.665108	-4.121848	543.476513	8.171418	5.602658	-0.500603	-1.030892	1.503546
1.340	3.669580	-3.938002	542.840306	8.371250	5.528183	-0.508927	-1.018381	1.542120
1.350	3.710320	-3.785347	542.146683	8.551825	5.447279	-0.516086	-1.004761	1.577401
1.360	3.793959	-3.668398	541.457125	8.717253	5.356873	-0.520659	-0.989344	1.609962
1.370	3.917154	-3.588813	540.795378	8.872318	5.256035	-0.522151	-0.971908	1.640605
1.380	4.067528	-3.545082	540.150673	9.019817	5.146837	-0.521020	-0.952852	1.669871
1.390	4.227338	-3.531868	539.493195	9.159060	5.034484	-0.518452	-0.933188	1.697716
1.400	4.378042	-3.539795	538.793577	9.286097	4.926605	-0.515987	-0.914377	1.723498
1.410	4.503981	-3.556623	538.038876	9.395468	4.831850	-0.515131	-0.898049	1.746243
1.420	4.594468	-3.569900	537.241463	9.482677	4.758183	-0.517031	-0.885669	1.765068
1.430	4.644572	-3.570129	536.440389	9.546405	4.711374	-0.522280	-0.878266	1.779584
1.440	4.655099	-3.553097	535.695817	9.589570	4.694053	-0.530826	-0.876253	1.790115
1.450	4.631909	-3.520635	535.077955	9.618816	4.705553	-0.541965	-0.879414	1.797648
1.460	4.584473	-3.479932	534.653220	9.642540	4.742603	-0.554449	-0.887043	1.803513
1.470	4.523656	-3.441867	534.471144	9.668155	4.800724	-0.566785	-0.898219	1.808920
1.480	4.458988	-3.418758	534.555133	9.699578	4.875831	-0.577686	-0.912129	1.814514
1.490	4.396044	-3.421725	534.898878	9.735951	4.965413	-0.586525	-0.928290	1.820148
1.500	4.334828	-3.457947	535.468621	9.772168	5.068829	-0.593541	-0.946615	1.824975
1.510	4.269968	-3.528437	536.209900	9.801032	5.186751	-0.599676	-0.967299	1.827835
1.520	4.192772	-3.627139	537.056704	9.816055	5.320100	-0.606160	-0.990603	1.827750
1.530	4.094387	-3.742009	537.941423	9.813625	5.468957	-0.614022	-1.016646	1.824292
1.540	3.968896	-3.857943	538.804484	9.793669	5.631847	-0.623742	-1.045249	1.817667
1.550	3.815560	-3.960610	539.602047	9.758853	5.805690	-0.635127	-1.075921	1.808528
1.560	3.639768	-4.039838	540.309264	9.712970	5.986398	-0.647386	-1.107958	1.797669
1.570	3.452326	-4.091649	540.917018	9.659360	6.169792	-0.659351	-1.140617	1.785738
1.580	3.266770	-4.118704	541.422608	9.599959	6.352501	-0.669737	-1.173298	1.773099
1.590	3.094942	-4.129345	541.818608	9.535187	6.532672	-0.677418	-1.205694	1.759849
1.600	2.942239	-4.135429	542.086162	9.464440	6.710426	-0.681646	-1.237889	1.745929
1.610	2.804821	-4.149355	542.197392	9.386735	6.887882	-0.682135	-1.270364	1.731240
1.620	2.670672	-4.181267	542.126958	9.301180	7.068514	-0.678988	-1.303848	1.715683
1.630	2.524534	-4.237576	541.868062	9.207287	7.255824	-0.672562	-1.339039	1.699175
1.640	2.354723	-4.321188	541.445870	9.105369	7.451679	-0.663390	-1.376256	1.681677
1.650	2.159063	-4.432612	540.921948	8.997095	7.654907	-0.652236	-1.415159	1.663289
1.660	1.947778	-4.570661	540.386364	8.885991	7.860821	-0.640176	-1.454667	1.644377
1.670	1.742287	-4.732130	539.938452	8.777482	8.062042	-0.628601	-1.493141	1.625645
1.680	1.569740	-4.911011	539.661293	8.678196	8.250467	-0.619019	-1.528823	1.608082
1.690	1.454173	-5.098259	539.598175	8.594608	8.419753	-0.612682	-1.560375	1.592779
1.700	1.406784	-5.282670	539.740259	8.531501	8.567339	-0.610173	-1.587308	1.580668
1.710	1.419315	-5.452617	540.031354	8.490833	8.695246	-0.611164	-1.610137	1.572285
1.720	1.464357	-5.597834	540.388539	8.471486	8.809335	-0.614500	-1.630185	1.567666
1.730	1.503730	-5.710421	540.730316	8.469937	8.917349	-0.618639	-1.649131	1.566388
1.740	1.502038	-5.784915	541.001005	8.481525	9.026535	-0.622246	-1.668488	1.567747
1.750	1.439358	-5.817973	541.182472	8.501850	9.141693	-0.624664	-1.689207	1.570977
1.760	1.317237	-5.808338	541.290492	8.527905	9.264249	-0.626047	-1.711512	1.575477
1.770	1.155765	-5.757337	541.359727	8.558731	9.392442	-0.627119	-1.734972	1.580969
1.780	0.984083	-5.669812	541.424782	8.595393	9.522337	-0.628679	-1.758755	1.587551
1.790	0.829410	-5.555127	541.504362	8.640172	9.649155	-0.631088	-1.781916	1.595587
1.800	0.709255	-5.427443	541.593190	8.695131	9.768453	-0.633983	-1.803651	1.605473
1.810	0.628878	-5.304206	541.663733	8.760640	9.876916	-0.636372	-1.823440	1.617358
1.820	0.583109	-5.202410	541.676887	8.834694	9.972683	-0.636977	-1.841076	1.630990
1.830	0.560157	-5.133657	541.597435	8.913528	10.055330	-0.634625	-1.856606	1.645785
1.840	0.545338	-5.100171	541.407969	8.993360	10.125680	-0.628535	-1.870249	1.661106
1.850	0.523988	-5.093798	541.116224	9.072371	10.185550	-0.618494	-1.882322	1.676603
1.860	0.483927	-5.098739	540.754504	9.151847	10.237379	-0.604953	-1.893166	1.692422
1.870	0.417937	-5.097124	540.372809	9.235932	10.283606	-0.588954	-1.903058	1.709178
1.880	0.326125	-5.075400	540.028274	9.330226	10.325877	-0.571842	-1.912099	1.727729
1.890	0.217252	-5.029100	539.773807	9.439933	10.364343	-0.554860	-1.920127	1.748868
1.900	0.108042	-4.964145	539.649116	9.568286	10.397343	-0.538833	-1.926686	1.773057
1.910	0.020131	-4.894226	539.676404	9.715792	10.421593	-0.524100	-1.931082	1.800300
1.920	-0.024771	-4.835182	539.860540	9.880538	10.432817	-0.510700	-1.932502	1.830202
1.930	-0.010353	-4.798256	540.191398	10.059372	10.426655	-0.498677	-1.930178	1.862187
1.940	0.069457	-4.784337	540.645653	10.249407	10.399606	-0.488388	-1.923553	1.895772
1.950	0.207593	-4.781286	541.186722	10.449146	10.349765	-0.480646	-1.912420	1.930784
1.960	0.384070	-4.765801	541.763547	10.658743	10.277218	-0.476591	-1.896993	1.967416
1.970	0.569848	-4.709897	542.310785	10.879195	10.184099	-0.477292	-1.877908	2.006081
1.980	0.733628	-4.590182	542.753656	11.110752	10.074336	-0.483295	-1.856152	2.047108
1.990	0.849693	-4.396708	543.019291	11.351266	9.953160	-0.494351	-1.832929	2.090398
2.000	0.904660	-4.138031	543.052708	11.595418	9.826387	-0.509439	-1.809472	2.135229
2.010	0.901287	-3.840413	542.831752	11.835322	9.699475	-0.527039	-1.786829	2.180293
2.020	0.858122	-3.541316	542.374612	12.062333	9.576513	-0.545534	-1.765664	2.223986
2.030	0.804770	-3.279518	541.736634	12.269187	9.459470	-0.563586	-1.746138	2.264788
2.040	0.774070	-3.085244	540.997802	12.451486	9.348024	-0.580350	-1.727923	2.301578
2.050	0.793547	-2.973353	540.245101	12.607960	9.240159	-0.595435	-1.710364	2.333748
2.060	0.878485	-2.941188	539.554255	12.739646	9.133356	-0.608705	-1.692760	2.361143
2.070	1.028311	-2.970908	538.974773	12.848732	9.026009	-0.620089	-1.674663	2.383921
2.080	1.227080	-3.034837	538.522320	12.937875	8.918503	-0.629552	-1.656106	2.402477
2.090	1.447797	-3.102096	538.181824	13.010304	8.813481	-0.637209	-1.637640	2.417455
2.100	1.659424	-3.145271	537.921437	13.070369	8.715069	-0.643486	-1.620138	2.429791
2.110	1.834797	-3.146353	537.712382	13.123738	8.627296	-0.649196	-1.604444	2.440661
2.120	1.957457	-3.101042	537.546066	13.176612	8.552394	-0.655430	-1.591007	2.451253
2.130	2.025319	-3.020294	537.439964	13.233943	8.489794	-0.663228	-1.579673	2.462404
2.140	2.049547	-2.928096	537.428388	13.297393	8.436333	-0.673125	-1.569759	2.474263
2.150	2.048607	-2.855196	537.542330	13.364216	8.387565	-0.684743	-1.560354	2.486170
2.160	2.039940	-2.829838	537.789087	13.427889	8.339572	-0.696670	-1.550714	2.496869
2.170	2.033102	-2.868172	538.142333	13.480536	8.290536	-0.706793	-1.540584	2.505013
2.180	2.027173	-2.967907	538.547256	13.516222	8.241508	-0.713065	-1.530322	2.509756
2.190	2.012724	-3.107940	538.938444	13.533748	8.196081	-0.714365	-1.520782	2.511186
2.200	1.976642	-3.254475	539.263707	13.537702	8.158938	-0.711069	-1.512977	2.510405
2.210	1.907884	-3.371507	539.505071	13.537279	8.133628	-0.705035	-1.507609	2.509203
2.220	1.802778	-3.431814	539.688511	13.543310	8.120369	-0.698973	-1.504640	2.509468
2.230	1.668670	-3.424418	539.877385	13.564669	8.114830	-0.695460	-1.503088	2.512546
2.240	1.524595	-3.356078	540.150510	13.605421	8.108617	-0.695996	-1.501177	2.518820
2.250	1.397858	-3.246991	540.572326	13.663795	8.091361	-0.700487	-1.496814	2.527653
2.260	1.316657	-3.123105	541.166542	13.733377	8.053516	-0.707349	-1.488177	2.537736
2.270	1.300997	-3.008248	541.904182	13.805970	7.988711	-0.714185	-1.474192	2.547677
2.280	1.355812	-2.918448	542.711084	13.874840	7.894779	-0.718790	-1.454693	2.556579
2.290	1.469749	-2.859482	543.490967	13.937026	7.773297	-0.720049	-1.430253	2.564353
2.300	1.620291	-2.827513	544.152976	13.993863	7.628045	-0.718332	-1.401820	2.571678
2.310	1.782782	-2.811984	544.632110	14.049713	7.463140	-0.715203	-1.370308	2.579670
2.320	1.939282	-2.799624	544.896727	14.109614	7.281580	-0.712638	-1.336323	2.589411
2.330	2.083776	-2.778306	544.944287	14.176996	7.084697	-0.712197	-1.300077	2.601550
2.340	2.222153	-2.739811	544.790246	14.252486	6.872637	-0.714509	-1.261520	2.616142
2.350	2.367660	-2.681001	544.455346	14.334152	6.645608	-0.719227	-1.220597	2.632751
2.360	2.534149	-2.603457	543.955735	14.418752	6.405230	-0.725370	-1.177528	2.650722
2.370	2.729750	-2.511997	543.299378	14.503211	6.155293	-0.731847	-1.132947	2.669469
2.380	2.953011	-2.412805	542.490041	14.585584	5.901548	-0.737922	-1.087863	2.688636
