Time[s]	Fx[N]	Fy[N]	Fz[N]	Mx[Nm]	My[Nm]	Mz[Nm]	COPx[cm]	COPy[cm]
0.010	6.600954	-2.309317	688.534851	11.205622	-19.269656	-0.514484	2.798646	1.627459
0.020	6.392808	-2.370585	688.946024	11.201227	-19.337268	-0.502890	2.806790	1.625850
0.030	6.206137	-2.418486	689.334145	11.194460	-19.402821	-0.492673	2.814719	1.623953
0.040	6.056091	-2.444579	689.678618	11.183550	-19.464855	-0.484842	2.822308	1.621560
0.050	5.948422	-2.447813	689.961178	11.168007	-19.522898	-0.479767	2.829565	1.618643
0.060	5.879880	-2.433916	690.166794	11.148770	-19.577569	-0.477228	2.836643	1.615373
0.070	5.841345	-2.412565	690.285045	11.127835	-19.630480	-0.476647	2.843822	1.612064
0.080	5.821701	-2.393947	690.311553	11.107436	-19.684002	-0.477360	2.851466	1.609047
0.090	5.810820	-2.386093	690.248014	11.089079	-19.740926	-0.478849	2.859976	1.606535
0.100	5.801193	-2.393622	690.100297	11.072837	-19.803948	-0.480820	2.869720	1.604526
0.110	5.788510	-2.417888	689.876403	11.057201	-19.874959	-0.483129	2.880945	1.602780
0.120	5.771497	-2.458010	689.586836	11.039520	-19.954429	-0.485612	2.893679	1.600889
0.130	5.751113	-2.512040	689.247694	11.016891	-20.041309	-0.488029	2.907708	1.598394
0.140	5.729368	-2.577715	688.883804	10.987192	-20.133571	-0.490162	2.922637	1.594927
0.150	5.708212	-2.652619	688.528655	10.950008	-20.229060	-0.491991	2.938013	1.590349
0.160	5.688810	-2.733796	688.220077	10.907253	-20.326185	-0.493802	2.953443	1.584850
0.170	5.671241	-2.816853	687.993396	10.863475	-20.424231	-0.496151	2.968667	1.579009
0.180	5.654611	-2.894497	687.874888	10.825851	-20.523375	-0.499702	2.983591	1.573811
0.190	5.637739	-2.954948	687.877646	10.803780	-20.624571	-0.505024	2.998291	1.570596
0.200	5.620391	-2.981360	688.000767	10.807832	-20.729413	-0.512374	3.012993	1.570904
0.210	5.604690	-2.953701	688.232113	10.847915	-20.839977	-0.521530	3.028045	1.576200
0.220	5.595808	-2.853629	688.553980	10.930906	-20.958591	-0.531750	3.043856	1.587516
0.230	5.601052	-2.671307	688.949521	11.058424	-21.087510	-0.541922	3.060821	1.605114
0.240	5.627318	-2.411790	689.406341	11.225650	-21.228578	-0.550905	3.079255	1.628307
0.250	5.678150	-2.098246	689.914113	11.421717	-21.382961	-0.557890	3.099366	1.655527
0.260	5.752162	-1.769969	690.456361	11.631593	-21.550927	-0.562562	3.121258	1.684624
0.270	5.843746	-1.474771	691.001033	11.838833	-21.731624	-0.565002	3.144948	1.713287
0.280	5.945488	-1.257704	691.496386	12.028493	-21.922931	-0.565456	3.170361	1.739488
0.290	6.050753	-1.149902	691.876245	12.189454	-22.121578	-0.564176	3.197332	1.761797
0.300	6.155100	-1.161338	692.073711	12.315572	-22.323667	-0.561440	3.225620	1.779517
0.310	6.256121	-1.279577	692.038419	12.405516	-22.525458	-0.557630	3.254943	1.792605
0.320	6.352409	-1.474192	691.751313	12.461765	-22.724107	-0.553258	3.285011	1.801481
0.330	6.442832	-1.704758	691.231976	12.489426	-22.918056	-0.548865	3.315538	1.806836
0.340	6.526921	-1.929852	690.535864	12.495236	-23.106981	-0.544871	3.346239	1.809498
0.350	6.606071	-2.115014	689.741671	12.486650	-23.291420	-0.541449	3.376832	1.810337
0.360	6.684248	-2.238383	688.932628	12.470869	-23.472254	-0.538502	3.407046	1.810173
0.370	6.766931	-2.293342	688.178370	12.453891	-23.650194	-0.535712	3.436637	1.809689
0.380	6.858377	-2.287948	687.523788	12.439890	-23.825372	-0.532678	3.465389	1.809376
0.390	6.958872	-2.241352	686.987591	12.431109	-23.997119	-0.529071	3.493094	1.809510
0.400	7.063878	-2.178007	686.568908	12.428196	-24.164015	-0.524797	3.519532	1.810189
0.410	7.165558	-2.121107	686.257756	12.430739	-24.324304	-0.520125	3.544485	1.811380
0.420	7.255415	-2.087074	686.045368	12.437729	-24.476613	-0.515719	3.567783	1.812960
0.430	7.326275	-2.082527	685.932304	12.447840	-24.620703	-0.512497	3.589378	1.814733
0.440	7.372838	-2.104257	685.933384	12.459600	-24.757911	-0.511322	3.609375	1.816445
0.450	7.391384	-2.141761	686.077397	12.471653	-24.891031	-0.512591	3.628021	1.817820
0.460	7.379794	-2.181204	686.398765	12.483277	-25.023576	-0.515918	3.645632	1.818662
0.470	7.338434	-2.209484	686.921273	12.495077	-25.158595	-0.520098	3.662515	1.818997
0.480	7.271379	-2.217380	687.639466	12.509483	-25.297533	-0.523438	3.678895	1.819192
0.490	7.186878	-2.201443	688.506644	12.530546	-25.439704	-0.524388	3.694910	1.819960
0.500	7.096395	-2.164778	689.436513	12.562819	-25.582660	-0.522262	3.710662	1.822186
0.510	7.012425	-2.116825	690.319488	12.609658	-25.723268	-0.517696	3.726284	1.826641
0.520	6.945919	-2.071805	691.047909	12.671666	-25.858939	-0.512542	3.741989	1.833688
0.530	6.904173	-2.045420	691.541153	12.746077	-25.988452	-0.509154	3.758048	1.843141
0.540	6.889708	-2.050070	691.762516	12.827479	-26.112086	-0.509324	3.774718	1.854318
0.550	6.900299	-2.090039	691.723027	12.909567	-26.231145	-0.513434	3.792146	1.866291
0.560	6.930193	-2.158698	691.471142	12.987076	-26.347164	-0.520266	3.810306	1.878180
0.570	6.972280	-2.239207	691.071910	13.056989	-26.461150	-0.527497	3.829001	1.889382
0.580	7.020420	-2.308610	690.583807	13.118617	-26.573054	-0.532569	3.847912	1.899642
0.590	7.070659	-2.343789	690.042761	13.172893	-26.681584	-0.533520	3.866657	1.908997
0.600	7.120582	-2.327375	689.459318	13.221468	-26.784369	-0.529512	3.884837	1.917657
0.610	7.167513	-2.252220	688.828569	13.266024	-26.878479	-0.520941	3.902056	1.925882
0.620	7.207224	-2.123680	688.146638	13.307843	-26.961158	-0.509155	3.917938	1.933867
0.630	7.234420	-1.959315	687.425000	13.347541	-27.030525	-0.495909	3.932142	1.941672
0.640	7.244822	-1.785877	686.695980	13.384946	-27.086002	-0.482800	3.944395	1.949181
0.650	7.237309	-1.633900	686.008506	13.419258	-27.128416	-0.470854	3.954531	1.956136
0.660	7.214425	-1.530849	685.418095	13.449479	-27.159796	-0.460361	3.962515	1.962230
0.670	7.180625	-1.494481	684.976133	13.474904	-27.182864	-0.450902	3.968440	1.967208
0.680	7.139304	-1.528421	684.721491	13.495406	-27.200247	-0.441539	3.972454	1.970934
0.690	7.090473	-1.621507	684.675339	13.511468	-27.213649	-0.431140	3.974679	1.973412
0.700	7.030536	-1.751079	684.839215	13.524207	-27.223448	-0.418836	3.975159	1.974800
0.710	6.954288	-1.888848	685.196599	13.535510	-27.229014	-0.404503	3.973898	1.975420
0.720	6.858068	-2.007335	685.717980	13.548219	-27.229688	-0.389019	3.970975	1.975771
0.730	6.742374	-2.085182	686.368070	13.566238	-27.225936	-0.374083	3.966667	1.976525
0.740	6.612472	-2.110322	687.112249	13.594429	-27.220101	-0.361638	3.961522	1.978487
0.750	6.476445	-2.080749	687.919364	13.638168	-27.216267	-0.353180	3.956317	1.982524
0.760	6.341674	-2.003258	688.759848	13.702386	-27.219157	-0.349292	3.951908	1.989429
0.770	6.211889	-1.890959	689.600685	13.790204	-27.232382	-0.349549	3.949007	1.999738
0.780	6.086564	-1.760386	690.400818	13.901635	-27.256765	-0.352811	3.947963	2.013560
0.790	5.962789	-1.628732	691.110726	14.033026	-27.289517	-0.357764	3.948646	2.030503
0.800	5.838204	-1.511541	691.677647	14.177576	-27.324766	-0.363439	3.950506	2.049737
0.810	5.713237	-1.420992	692.054753	14.326893	-27.355319	-0.369441	3.952768	2.070196
0.820	5.591757	-1.364627	692.211198	14.473189	-27.375007	-0.375747	3.954719	2.090863
0.830	5.480288	-1.344140	692.140461	14.611499	-27.380767	-0.382252	3.955955	2.111060
0.840	5.386467	-1.354204	691.865029	14.741036	-27.373817	-0.388397	3.956526	2.130623
0.850	5.317222	-1.382120	691.435492	14.864887	-27.359582	-0.393193	3.956925	2.149859
0.860	5.276915	-1.409341	690.922891	14.987960	-27.346472	-0.395643	3.957963	2.169267
0.870	5.265668	-1.415216	690.405433	15.114123	-27.343810	-0.395273	3.960544	2.189166
0.880	5.278458	-1.382221	689.953038	15.244094	-27.359564	-0.392396	3.965424	2.209439
0.890	5.305715	-1.301315	689.613851	15.375199	-27.398554	-0.387929	3.973028	2.229537
0.900	5.335685	-1.175844	689.406024	15.502932	-27.461696	-0.382907	3.983385	2.248737
0.910	5.357863	-1.022365	689.316866	15.623169	-27.546383	-0.378020	3.996186	2.266471
0.920	5.366014	-0.867217	689.309756	15.733721	-27.647648	-0.373433	4.010918	2.282533
0.930	5.359412	-0.739233	689.336358	15.834624	-27.759535	-0.368912	4.026994	2.297082
0.940	5.341700	-0.661029	689.349355	15.927468	-27.876226	-0.364063	4.043846	2.310507
0.950	5.317989	-0.642410	689.311557	16.014487	-27.992714	-0.358499	4.060967	2.323258
0.960	5.291664	-0.678513	689.200347	16.097849	-28.105137	-0.351890	4.077934	2.335728
0.970	5.262494	-0.753008	689.009178	16.179181	-28.210999	-0.344005	4.094430	2.348181
0.980	5.226988	-0.844535	688.748431	16.259291	-28.309479	-0.334827	4.110279	2.360701
0.990	5.180780	-0.933504	688.446391	16.338175	-28.401834	-0.324759	4.125497	2.373195
1.000	5.121865	-1.006791	688.148447	16.415445	-28.491536	-0.314823	4.140318	2.385451
1.010	5.053061	-1.059120	687.911156	16.490956	-28.583717	-0.306705	4.155147	2.397251
1.020	4.982369	-1.091628	687.789681	16.565156	-28.683785	-0.302484	4.170430	2.408462
1.030	4.920748	-1.109089	687.821790	16.638811	-28.795704	-0.304034	4.186507	2.419058
1.040	4.878199	-1.117188	688.015251	16.712176	-28.920779	-0.312242	4.203508	2.429042
1.050	4.860112	-1.120436	688.344545	16.784119	-29.057591	-0.326366	4.221373	2.438331
1.060	4.865882	-1.120812	688.758018	16.851763	-29.203032	-0.343928	4.239955	2.446688
1.070	4.890374	-1.117401	689.191892	16.911030	-29.353773	-0.361283	4.259158	2.453748
1.080	4.927004	-1.107418	689.585858	16.957981	-29.507408	-0.374723	4.279004	2.459154
1.090	4.970241	-1.088479	689.896276	16.990362	-29.662895	-0.381637	4.299617	2.462742
1.100	5.016223	-1.061185	690.104947	17.008658	-29.820454	-0.381294	4.321148	2.464648
1.110	5.061922	-1.030725	690.222249	17.016216	-29.981333	-0.374948	4.343722	2.465324
1.120	5.104447	-1.006613	690.283409	17.018481	-30.147687	-0.365303	4.367436	2.465434
1.130	5.141576	-1.000537	690.337686	17.021658	-30.322406	-0.355586	4.392402	2.465700
1.140	5.173184	-1.022802	690.432995	17.031306	-30.508612	-0.348571	4.418765	2.466757
1.150	5.202249	-1.078160	690.600884	17.051269	-30.708728	-0.345864	4.446668	2.469048
1.160	5.234445	-1.162201	690.846596	17.083227	-30.923475	-0.347620	4.476171	2.472796
1.170	5.276397	-1.260098	691.146768	17.126946	-31.151407	-0.352735	4.507206	2.478048
1.180	5.333414	-1.349338	691.455359	17.181185	-31.389404	-0.359369	4.539614	2.484786
1.190	5.407774	-1.406478	691.717012	17.244901	-31.634002	-0.365580	4.573258	2.493057
1.200	5.498394	-1.415601	691.884779	17.318202	-31.882911	-0.369913	4.608124	2.503047
1.210	5.602098	-1.374697	691.935935	17.402590	-32.136035	-0.371808	4.644366	2.515058
1.220	5.715689	-1.296745	691.878729	17.500338	-32.395562	-0.371750	4.682260	2.529394
1.230	5.837404	-1.204825	691.746601	17.613290	-32.665116	-0.371048	4.722122	2.546206
1.240	5.966749	-1.123473	691.582838	17.741697	-32.948243	-0.371288	4.764179	2.565375
1.250	6.103044	-1.070199	691.422898	17.883655	-33.246722	-0.373602	4.808450	2.586500
1.260	6.244009	-1.050637	691.281431	18.035350	-33.559337	-0.378115	4.854656	2.608974
1.270	6.385591	-1.058633	691.147941	18.191830	-33.881545	-0.383882	4.902213	2.632118
1.280	6.523139	-1.080245	690.991700	18.347962	-34.206200	-0.389405	4.950306	2.655309
1.290	6.653078	-1.099299	690.773730	18.499279	-34.525246	-0.393462	4.998054	2.678052
1.300	6.774109	-1.102202	690.461714	18.642677	-34.831994	-0.395748	5.044739	2.700030
1.310	6.887510	-1.080566	690.043384	18.777021	-35.123286	-0.396957	5.090011	2.721136
1.320	6.996674	-1.031336	689.535120	18.903687	-35.400702	-0.398295	5.133995	2.741512
1.330	7.106232	-0.955085	688.983510	19.026735	-35.670208	-0.400709	5.177222	2.761566
1.340	7.220899	-0.853808	688.457828	19.152275	-35.940264	-0.404306	5.220402	2.781910
1.350	7.343981	-0.729567	688.032897	19.286878	-36.219063	-0.408249	5.264147	2.803191
1.360	7.475855	-0.584759	687.766694	19.435470	-36.512001	-0.411179	5.308777	2.825881
1.370	7.613458	-0.423655	687.682313	19.599537	-36.820379	-0.411918	5.354272	2.850086
1.380	7.751929	-0.253989	687.763648	19.776392	-37.141743	-0.410080	5.400364	2.875463
1.390	7.888164	-0.087187	687.966939	19.959830	-37.471509	-0.406281	5.446702	2.901277
1.400	8.024180	0.063459	688.241101	20.141977	-37.805046	-0.401857	5.492994	2.926587
1.410	8.167725	0.186426	688.545407	20.315627	-38.139264	-0.398239	5.539107	2.950514
1.420	8.329170	0.276244	688.856277	20.476153	-38.473062	-0.396312	5.585064	2.972486
1.430	8.516218	0.336525	689.162587	20.622372	-38.806533	-0.396084	5.630969	2.992381
1.440	8.729267	0.379660	689.455530	20.756272	-39.139602	-0.396804	5.676886	3.010531
1.450	8.959755	0.422346	689.720645	20.881963	-39.471071	-0.397415	5.722762	3.027597
1.460	9.192061	0.478350	689.937122	21.004341	-39.798753	-0.397091	5.768461	3.044385
1.470	9.407811	0.551826	690.085164	21.127857	-40.120610	-0.395609	5.813864	3.061630
1.480	9.590709	0.634552	690.157797	21.255640	-40.436127	-0.393441	5.858968	3.079823
1.490	9.730413	0.708817	690.169722	21.389064	-40.747030	-0.391589	5.903914	3.099102
1.500	9.824696	0.755056	690.155290	21.527684	-41.056849	-0.391241	5.948929	3.119252
1.510	9.879601	0.761064	690.152875	21.669484	-41.369500	-0.393329	5.994252	3.139809
1.520	9.907455	0.728623	690.181852	21.811341	-41.687515	-0.398133	6.040077	3.160231
1.530	9.923109	0.674460	690.225324	21.949651	-42.010765	-0.405086	6.086529	3.180070
1.540	9.939691	0.625159	690.231310	22.080952	-42.336295	-0.412900	6.133639	3.199066
1.550	9.965920	0.608514	690.135902	22.202404	-42.659440	-0.419939	6.181310	3.217106
1.560	10.006496	0.645104	689.898125	22.312073	-42.975812	-0.424672	6.229298	3.234111
1.570	10.065300	0.743080	689.526903	22.408977	-43.283263	-0.426011	6.277241	3.249906
1.580	10.148936	0.897190	689.083395	22.492840	-43.582856	-0.423438	6.324758	3.264168
1.590	10.267414	1.091371	688.656403	22.563571	-43.878244	-0.416966	6.371573	3.276463
1.600	10.430513	1.303561	688.324583	22.620721	-44.173673	-0.407027	6.417564	3.286345
1.610	10.641770	1.511176	688.125488	22.663237	-44.471542	-0.394398	6.462708	3.293474
1.620	10.894264	1.695529	688.045383	22.689730	-44.770789	-0.380132	6.506953	3.297708
1.630	11.171447	1.843727	688.031638	22.699096	-45.066893	-0.365392	6.550119	3.299135
1.640	11.453095	1.947879	688.019374	22.691268	-45.353544	-0.351155	6.591899	3.298057
1.650	11.723541	2.003020	687.959071	22.667860	-45.625149	-0.337894	6.631957	3.294943
1.660	11.978192	2.005748	687.832940	22.632483	-45.878953	-0.325423	6.670072	3.290404
1.670	12.225030	1.954661	687.654441	22.590461	-46.115659	-0.313046	6.706226	3.285147
1.680	12.479851	1.852183	687.454326	22.547793	-46.338237	-0.299991	6.740555	3.279897
1.690	12.756921	1.706291	687.262893	22.509633	-46.549619	-0.285933	6.773190	3.275258
1.700	13.059484	1.530683	687.098634	22.478837	-46.750640	-0.271370	6.804065	3.271559
1.710	13.375437	1.342942	686.967960	22.455069	-46.939386	-0.257663	6.832835	3.268721
1.720	13.681178	1.161413	686.872508	22.434655	-47.112175	-0.246681	6.858940	3.266204
1.730	13.951581	1.002048	686.814978	22.411223	-47.265331	-0.240106	6.881814	3.263066
1.740	14.169974	0.876260	686.796223	22.377188	-47.396435	-0.238622	6.901091	3.258199
1.750	14.332021	0.790330	686.804229	22.325925	-47.504229	-0.241349	6.916706	3.250697
1.760	14.441809	0.746263	686.803298	22.254021	-47.587369	-0.245883	6.928821	3.240232
1.770	14.503820	0.743274	686.732879	22.162668	-47.643006	-0.249003	6.937633	3.227262
1.780	14.517003	0.778660	686.520258	22.057470	-47.666332	-0.247761	6.943179	3.212938
1.790	14.475070	0.847117	686.104185	21.946653	-47.651669	-0.240467	6.945253	3.198735
1.800	14.372601	0.938704	685.461503	21.838448	-47.594850	-0.227176	6.943475	3.185948
1.810	14.212995	1.037043	684.627089	21.738799	-47.495835	-0.209587	6.937475	3.175276
1.820	14.013636	1.119915	683.699085	21.650295	-47.360309	-0.190490	6.927069	3.166641
1.830	13.805242	1.163402	682.825605	21.572545	-47.199378	-0.172992	6.912362	3.159305
1.840	13.625040	1.148656	682.174409	21.503544	-47.027223	-0.159707	6.893724	3.152206
1.850	13.506019	1.068699	681.892548	21.441168	-46.857381	-0.152116	6.871666	3.144362
1.860	13.466250	0.932439	682.067247	21.384136	-46.698978	-0.150248	6.846682	3.135195
1.870	13.502600	0.764038	682.700401	21.332131	-46.554321	-0.152758	6.819144	3.124670
1.880	13.591633	0.597300	683.705607	21.285239	-46.418744	-0.157393	6.789288	3.113217
1.890	13.697424	0.466446	684.929757	21.243088	-46.282602	-0.161685	6.757277	3.101499
1.900	13.782907	0.396258	686.193005	21.204210	-46.134509	-0.163681	6.723256	3.090123
1.910	13.820266	0.395057	687.334284	21.166020	-45.964637	-0.162421	6.687377	3.079436
1.920	13.797146	0.452918	688.247088	21.125513	-45.767084	-0.158025	6.649804	3.069466
1.930	13.717721	0.545387	688.894243	21.080355	-45.540745	-0.151440	6.610702	3.060028
1.940	13.599297	0.641052	689.299327	21.029696	-45.288595	-0.144088	6.570236	3.050880
1.950	13.465997	0.710375	689.521371	20.974126	-45.015804	-0.137579	6.528558	3.041838
1.960	13.341434	0.733183	689.623883	20.914758	-44.727419	-0.133501	6.485770	3.032777
1.970	13.242456	0.702885	689.648304	20.851988	-44.426323	-0.133166	6.441881	3.023568
1.980	13.175698	0.626313	689.597797	20.784500	-44.111900	-0.137282	6.396758	3.014003
1.990	13.137604	0.519371	689.432667	20.708681	-43.779470	-0.145654	6.350072	3.003728
2.000	13.117102	0.400103	689.076162	20.618465	-43.420342	-0.157162	6.301240	2.992190
2.010	13.099115	0.281976	688.429291	20.505918	-43.022393	-0.170153	6.249355	2.978653
2.020	13.067056	0.169999	687.393723	20.363085	-42.571278	-0.183133	6.193143	2.962361
2.030	13.003545	0.060768	685.900526	20.185000	-42.052517	-0.195445	6.130994	2.942847
2.040	12.890097	-0.054624	683.939817	19.972704	-41.454471	-0.207626	6.061129	2.920243
2.050	12.707562	-0.186970	681.584969	19.734556	-40.771711	-0.221330	5.981897	2.895392
2.060	12.438905	-0.346296	679.005974	19.484730	-40.007886	-0.238869	5.892126	2.869596
2.070	12.074444	-0.540442	676.468068	19.239184	-39.177165	-0.262511	5.791429	2.844064
2.080	11.617738	-0.773946	674.311382	19.010684	-38.303654	-0.293695	5.680410	2.819274
2.090	11.089036	-1.046340	672.906922	18.804963	-37.418574	-0.332354	5.560735	2.794586
2.100	10.523278	-1.349829	672.588372	18.619580	-36.555330	-0.376554	5.435023	2.768347
2.110	9.961351	-1.667349	673.570968	18.445874	-35.743096	-0.422582	5.306508	2.738520
2.120	9.436237	-1.972421	675.882208	18.273142	-35.000237	-0.465571	5.178452	2.703599
2.130	8.958886	-2.231955	679.333761	18.093384	-34.329588	-0.500537	5.053420	2.663401
2.140	8.510420	-2.412293	683.552958	17.904830	-33.717637	-0.523633	4.932703	2.619377
2.150	8.046139	-2.487487	688.069157	17.713000	-33.138560	-0.533233	4.816167	2.574305
2.160	7.512237	-2.447299	692.426468	17.528994	-32.562186	-0.530508	4.702620	2.531532
2.170	6.869995	-2.301892	696.283058	17.365578	-31.963385	-0.519258	4.590573	2.494040
2.180	6.117787	-2.081088	699.464125	17.232369	-31.329709	-0.505036	4.479102	2.463653
2.190	5.301117	-1.828217	701.955332	17.131758	-30.664734	-0.493764	4.368474	2.440577
2.200	4.505273	-1.590568	703.845769	17.057064	-29.985937	-0.490193	4.260299	2.423409
2.210	3.831959	-1.409429	705.245823	16.993685	-29.317770	-0.496651	4.157099	2.409612
2.220	3.367455	-1.312353	706.211701	16.922825	-28.682286	-0.512461	4.061429	2.396282
2.230	3.153270	-1.309082	706.703688	16.826265	-28.090628	-0.534236	3.974881	2.380951
2.240	3.169983	-1.391327	706.592073	16.690431	-27.538582	-0.556995	3.897381	2.362103
2.250	3.341107	-1.536113	705.707980	16.508691	-27.008019	-0.575769	3.827081	2.339309
2.260	3.557202	-1.712238	703.921211	16.281900	-26.473911	-0.587247	3.760920	2.313029
2.270	3.712833	-1.888928	701.217636	16.017739	-25.914434	-0.590964	3.695634	2.284275
2.280	3.743031	-2.044635	697.747155	15.729271	-25.320308	-0.589627	3.628866	2.254294
2.290	3.644750	-2.173215	693.821287	15.432696	-24.699636	-0.588316	3.559942	2.224304
2.300	3.474106	-2.285153	689.856440	15.144223	-24.076196	-0.592668	3.490030	2.195272
2.310	3.320163	-2.403282	686.280432	14.876515	-23.481697	-0.606623	3.421589	2.167702
2.320	3.266063	-2.554564	683.435919	14.635902	-22.944939	-0.630590	3.357292	2.141518
2.330	3.353569	-2.760844	681.515199	14.421699	-22.482119	-0.660875	3.298843	2.116123
2.340	3.565240	-3.031609	680.545259	14.228118	-22.091982	-0.690689	3.246218	2.090694
