Time[s]	Fx[N]	Fy[N]	Fz[N]	Mx[Nm]	My[Nm]	Mz[Nm]	COPx[cm]	COPy[cm]
0.010	8.493285	-6.099460	661.963353	-36.529958	9.924658	2.870923	-1.499276	-5.518426
0.020	8.326786	-6.565880	663.007584	-36.991255	10.342119	2.855458	-1.559879	-5.579311
0.030	8.132071	-7.025307	664.018700	-37.455222	10.763240	2.832389	-1.620924	-5.640688
0.040	7.886993	-7.469239	664.972341	-37.925353	11.188884	2.796033	-1.682609	-5.703298
0.050	7.581106	-7.887082	665.863942	-38.407259	11.614932	2.743852	-1.744340	-5.768034
0.060	7.219524	-8.267815	666.708549	-38.908161	12.031792	2.676599	-1.804655	-5.835858
0.070	6.824691	-8.602657	667.534197	-39.435419	12.425341	2.597491	-1.861379	-5.907625
0.080	6.435360	-8.886999	668.373337	-39.994442	12.778988	2.510895	-1.911954	-5.983848
0.090	6.102057	-9.120632	669.256337	-40.586540	13.076309	2.421080	-1.953857	-6.064424
0.100	5.878560	-9.306752	670.207625	-41.207240	13.303629	2.331429	-1.985001	-6.148429
0.110	5.809912	-9.451126	671.241268	-41.845573	13.451947	2.244196	-2.004041	-6.234058
0.120	5.919448	-9.562324	672.352428	-42.484633	13.518007	2.160723	-2.010554	-6.318804
0.130	6.199374	-9.652551	673.505303	-43.103551	13.504615	2.081839	-2.005124	-6.399883
0.140	6.609774	-9.737376	674.623753	-43.680555	13.420418	2.008188	-1.989319	-6.474802
0.150	7.088011	-9.832748	675.592601	-44.196436	13.279166	1.940377	-1.965558	-6.541877
0.160	7.565406	-9.949427	676.273390	-44.637486	13.098298	1.879045	-1.936835	-6.600509
0.170	7.984108	-10.087178	676.530958	-44.997163	12.896814	1.824981	-1.906315	-6.651161
0.180	8.307141	-10.231993	676.262003	-45.276195	12.692783	1.779385	-1.876903	-6.695067
0.190	8.518763	-10.358774	675.417332	-45.481479	12.501147	1.744178	-1.850877	-6.733834
0.200	8.617514	-10.439518	674.013511	-45.624599	12.332259	1.722138	-1.829675	-6.769093
0.210	8.607519	-10.454430	672.133566	-45.720645	12.191145	1.716619	-1.813798	-6.802315
0.220	8.493060	-10.401670	669.918558	-45.787345	12.077245	1.730827	-1.802793	-6.834763
0.230	8.278228	-10.301598	667.552432	-45.844006	11.984623	1.766821	-1.795308	-6.867476
0.240	7.970165	-10.193370	665.241088	-45.909771	11.902901	1.824546	-1.789261	-6.901223
0.250	7.582736	-10.124748	663.184552	-46.001185	11.819095	1.901188	-1.782173	-6.936408
0.260	7.137886	-10.138532	661.541918	-46.129499	11.720200	1.991110	-1.771649	-6.973027
0.270	6.663395	-10.260225	660.394593	-46.298459	11.596129	2.086542	-1.755939	-7.010727
0.280	6.187390	-10.490964	659.720941	-46.503309	11.442476	2.178974	-1.734442	-7.048936
0.290	5.731117	-10.807734	659.397620	-46.731433	11.262472	2.260907	-1.707994	-7.086988
0.300	5.302380	-11.170202	659.235911	-46.964379	11.067177	2.327463	-1.678789	-7.124063
0.310	4.892513	-11.531258	659.048883	-47.180368	10.873017	2.377370	-1.649804	-7.158857
0.320	4.479682	-11.847326	658.733127	-47.356205	10.696448	2.412942	-1.623791	-7.188982
0.330	4.039965	-12.085100	658.340389	-47.468049	10.546694	2.438933	-1.602012	-7.210259
0.340	3.565092	-12.223214	658.111335	-47.491426	10.418511	2.460537	-1.583092	-7.216321
0.350	3.082317	-12.249814	658.448920	-47.401701	10.287427	2.481233	-1.562373	-7.198994
0.360	2.668710	-12.158491	659.823395	-47.176227	10.109871	2.501424	-1.532209	-7.149826
0.370	2.450612	-11.944873	662.622330	-46.798454	9.829760	2.518606	-1.483463	-7.062613
0.380	2.581320	-11.605005	666.982495	-46.262969	9.391331	2.529114	-1.408033	-6.936159
0.390	3.197659	-11.136017	672.658544	-45.579534	8.755427	2.530685	-1.301615	-6.776028
0.400	4.367229	-10.539439	678.985459	-44.774189	7.914251	2.524505	-1.165600	-6.594278
0.410	6.047110	-9.826926	684.968758	-43.886457	6.899027	2.515515	-1.007203	-6.407074
0.420	8.074532	-9.026350	689.491945	-42.963212	5.776853	2.510583	-0.837842	-6.231141
0.430	10.198074	-8.184504	691.583410	-42.051096	4.636917	2.515409	-0.670478	-6.080408
0.440	12.139810	-7.363079	690.658736	-41.189774	3.570462	2.531801	-0.516965	-5.963839
0.450	13.664901	-6.627627	686.661686	-40.407725	2.651358	2.556776	-0.386123	-5.884663
0.460	14.633298	-6.032881	680.064032	-39.721120	1.923444	2.583931	-0.282833	-5.840791
0.470	15.017969	-5.609516	671.734296	-39.135328	1.397675	2.606261	-0.208070	-5.826013
0.480	14.888859	-5.356697	662.728419	-38.648101	1.058075	2.619014	-0.159654	-5.831665
0.490	14.373849	-5.242661	654.073721	-38.253468	0.872777	2.621349	-0.133437	-5.848495
0.500	13.613365	-5.213253	646.605827	-37.945489	0.805538	2.616292	-0.124579	-5.868411
0.510	12.723583	-5.206252	640.886821	-37.720992	0.824142	2.609256	-0.128594	-5.885749
0.520	11.777096	-5.167595	637.200627	-37.580564	0.903984	2.605835	-0.141868	-5.897760
0.530	10.802827	-5.064843	635.601187	-37.527486	1.027157	2.609784	-0.161604	-5.904251
0.540	9.801438	-4.893794	635.982590	-37.565091	1.178812	2.621877	-0.185353	-5.906623
0.550	8.768990	-4.676200	638.143669	-37.693612	1.343026	2.639953	-0.210458	-5.906760
0.560	7.719966	-4.449501	641.829402	-37.907867	1.500181	2.659895	-0.233735	-5.906222
0.570	6.701336	-4.252325	646.744997	-38.196695	1.626929	2.677028	-0.251556	-5.905990
0.580	5.792518	-4.110993	652.551842	-38.544364	1.698660	2.687425	-0.260310	-5.906713
0.590	5.091228	-4.031717	658.862005	-38.933341	1.693501	2.688932	-0.257034	-5.909180
0.600	4.690316	-4.001086	665.246358	-39.347397	1.596345	2.681769	-0.239963	-5.914711
0.610	4.653612	-3.994659	671.262295	-39.773955	1.401615	2.668589	-0.208803	-5.925248
0.620	4.998382	-3.990669	676.496004	-40.204898	1.114011	2.653855	-0.164674	-5.943109
0.630	5.688982	-3.983612	680.607556	-40.635660	0.747264	2.642531	-0.109794	-5.970498
0.640	6.642255	-3.992163	683.367331	-41.063122	0.321338	2.638394	-0.047023	-6.008938
0.650	7.742087	-4.058141	684.677729	-41.483228	-0.141382	2.642461	0.020649	-6.058796
0.660	8.858865	-4.237066	684.579465	-41.889303	-0.620372	2.652193	0.090621	-6.118983
0.670	9.869442	-4.584022	683.243595	-42.271695	-1.100942	2.661867	0.161135	-6.186914
0.680	10.674359	-5.139211	680.949417	-42.618692	-1.576965	2.664086	0.231583	-6.258716
0.690	11.210789	-5.915977	678.047715	-42.918103	-2.051639	2.651930	0.302580	-6.329658
0.700	11.460782	-6.892402	674.911337	-43.158694	-2.536153	2.621080	0.375776	-6.394721
0.710	11.454321	-8.007694	671.880903	-43.330933	-3.046745	2.571342	0.453465	-6.449198
0.720	11.266072	-9.165863	669.219027	-43.426964	-3.600995	2.507183	0.538089	-6.489200
0.730	11.004856	-10.249241	667.087069	-43.440166	-4.214340	2.437076	0.631753	-6.511918
0.740	10.796218	-11.141219	665.550616	-43.364842	-4.897590	2.371655	0.735870	-6.515634
0.750	10.760615	-11.752495	664.606591	-43.196522	-5.655786	2.321034	0.850998	-6.499563
0.760	10.991481	-12.041636	664.214358	-42.933021	-6.488046	2.292081	0.976800	-6.463730
0.770	11.538033	-12.021925	664.313073	-42.576050	-7.387603	2.286668	1.112067	-6.409034
0.780	12.396582	-11.752124	664.818349	-42.132989	-8.341451	2.301630	1.254696	-6.337519
0.790	13.511801	-11.315529	665.605720	-41.618217	-9.329762	2.330481	1.401695	-6.252683
0.800	14.786954	-10.795688	666.497496	-41.053240	-10.325970	2.366110	1.549289	-6.159549
0.810	16.100420	-10.257036	667.268812	-40.465010	-11.298477	2.403279	1.693242	-6.064274
0.820	17.325579	-9.735581	667.679705	-39.882414	-12.214253	2.439902	1.829358	-5.973285
0.830	18.351361	-9.240697	667.527467	-39.331727	-13.043634	2.476712	1.954022	-5.892151
0.840	19.100558	-8.765281	666.702581	-38.832205	-13.765061	2.515664	2.064648	-5.824517
0.850	19.542181	-8.298995	665.227074	-38.393068	-14.368458	2.557988	2.159933	-5.771423
0.860	19.694165	-7.838806	663.258645	-38.012763	-14.856204	2.602874	2.239881	-5.731213
0.870	19.614756	-7.392758	661.056159	-37.680877	-15.241334	2.647432	2.305603	-5.700102
0.880	19.384751	-6.976231	658.917140	-37.382073	-15.543502	2.687883	2.358946	-5.673259
0.890	19.086445	-6.603555	657.109032	-37.100618	-15.784044	2.721268	2.402043	-5.646037
0.900	18.786304	-6.279950	655.818007	-36.823818	-15.981775	2.746797	2.436922	-5.614945
0.910	18.526267	-5.998189	655.130450	-36.543388	-16.150620	2.766184	2.465253	-5.578032
0.920	18.324296	-5.741369	655.046618	-36.254825	-16.299193	2.782921	2.488249	-5.534694
0.930	18.180991	-5.489806	655.511741	-35.955627	-16.431570	2.800879	2.506678	-5.485123
0.940	18.087548	-5.228350	656.445252	-35.643397	-16.548337	2.822860	2.520901	-5.429759
0.950	18.031568	-4.950846	657.755606	-35.314675	-16.647325	2.849679	2.530929	-5.368966
0.960	17.999539	-4.660257	659.339658	-34.964989	-16.723972	2.880114	2.536473	-5.303031
0.970	17.976765	-4.365128	661.074242	-34.590084	-16.771555	2.911629	2.537015	-5.232405
0.980	17.946127	-4.074515	662.810664	-34.187732	-16.781660	2.941474	2.531894	-5.157994
0.990	17.887084	-3.793673	664.380957	-33.759225	-16.745187	2.967658	2.520419	-5.081305
1.000	17.776344	-3.522096	665.618952	-33.309880	-16.653870	2.989443	2.502013	-5.004347
1.010	17.591309	-3.254353	666.391460	-32.848517	-16.502015	3.007308	2.476325	-4.929312
1.020	17.316056	-2.983127	666.629178	-32.386347	-16.287980	3.022548	2.443334	-4.858225
1.030	16.947697	-2.703194	666.346165	-31.935830	-16.015030	3.036744	2.403410	-4.792679
1.040	16.499975	-2.414851	665.640902	-31.509792	-15.691333	3.051269	2.357327	-4.733752
1.050	16.001829	-2.125668	664.678584	-31.120603	-15.329010	3.066944	2.306229	-4.682053
1.060	15.490886	-1.850031	663.660464	-30.779082	-14.942306	3.083853	2.251499	-4.637775
1.070	15.003896	-1.606523	662.789022	-30.493081	-14.545220	3.101340	2.194548	-4.600722
1.080	14.567053	-1.413642	662.236747	-30.266215	-14.149216	3.118192	2.136580	-4.570301
1.090	14.189118	-1.284849	662.123001	-30.097256	-13.761815	3.132965	2.078438	-4.545569
1.100	13.859754	-1.224348	662.500670	-29.980357	-13.386712	3.144329	2.020634	-4.525332
1.110	13.554276	-1.225010	663.353816	-29.905869	-13.025419	3.151291	1.963570	-4.508283
1.120	13.243912	-1.269298	664.607768	-29.861292	-12.679679	3.153219	1.907844	-4.493070
1.130	12.908134	-1.333251	666.150433	-29.832147	-12.353433	3.149719	1.854451	-4.478290
1.140	12.544321	-1.392486	667.857762	-29.802901	-12.053370	3.140538	1.804781	-4.462462
1.150	12.170811	-1.428264	669.611977	-29.758310	-11.787685	3.125710	1.760375	-4.444113
1.160	11.821970	-1.431429	671.303924	-29.685414	-11.563395	3.105943	1.722528	-4.422053
1.170	11.536947	-1.402974	672.820424	-29.575939	-11.383116	3.083049	1.691851	-4.395815
1.180	11.346019	-1.351619	674.027703	-29.428492	-11.242521	3.060054	1.667961	-4.366066
1.190	11.259200	-1.290058	674.766200	-29.249750	-11.129595	3.040731	1.649400	-4.334798
1.200	11.260905	-1.231676	674.867526	-29.054050	-11.026275	3.028593	1.633843	-4.305149
1.210	11.312383	-1.188695	674.193601	-28.861315	-10.912244	3.025730	1.618562	-4.280865
1.220	11.361214	-1.171737	672.686826	-28.693871	-10.769795	3.032006	1.601012	-4.265562
1.230	11.355186	-1.190192	670.413075	-28.573029	-10.588223	3.045014	1.579358	-4.262003
1.240	11.256547	-1.252756	667.578102	-28.516167	-10.366363	3.060832	1.552831	-4.271585
1.250	11.052366	-1.367688	664.504019	-28.534616	-10.112459	3.075261	1.521806	-4.294122
1.260	10.757610	-1.542573	661.566369	-28.632401	-9.841371	3.085007	1.487586	-4.327971
1.270	10.409641	-1.783431	659.109365	-28.805867	-9.569840	3.088348	1.451935	-4.370423
1.280	10.055536	-2.093055	657.367786	-29.044260	-9.311199	3.085077	1.416437	-4.418266
1.290	9.736167	-2.468856	656.422426	-29.331430	-9.071152	3.075877	1.381908	-4.468377
1.300	9.472663	-2.901061	656.203408	-29.648676	-8.846079	3.061564	1.348070	-4.518214
1.310	9.260474	-3.372498	656.538241	-29.978290	-8.624536	3.042575	1.313638	-4.566115
1.320	9.073107	-3.860924	657.225543	-30.306868	-8.391585	3.018879	1.276820	-4.611334
1.330	8.873077	-4.343716	658.106715	-30.627335	-8.134576	2.990165	1.236057	-4.653855
1.340	8.624862	-4.803202	659.110638	-30.938959	-7.848404	2.956075	1.190757	-4.694046
1.350	8.305446	-5.229936	660.259061	-31.245257	-7.538457	2.916370	1.141742	-4.732272
1.360	7.910878	-5.622014	661.635916	-31.550514	-7.220335	2.871077	1.091285	-4.768561
1.370	7.459176	-5.980714	663.335162	-31.856308	-6.916659	2.820751	1.042710	-4.802445
1.380	6.989737	-6.305036	665.406270	-32.159458	-6.652182	2.766840	0.999717	-4.833056
1.390	6.558393	-6.588522	667.814948	-32.452018	-6.448738	2.711926	0.965647	-4.859433
1.400	6.227420	-6.820512	670.431071	-32.722885	-6.321315	2.659570	0.942873	-4.880872
1.410	6.051706	-6.991545	673.047159	-32.960109	-6.276017	2.613672	0.932478	-4.897147
1.420	6.064833	-7.100181	675.420691	-33.153021	-6.310111	2.577543	0.934249	-4.908499
1.430	6.269943	-7.157446	677.325401	-33.293684	-6.413858	2.553037	0.946939	-4.915464
1.440	6.638933	-7.185920	678.594796	-33.377403	-6.573445	2.540014	0.968685	-4.918606
1.450	7.120218	-7.213066	679.146061	-33.402184	-6.774051	2.536250	0.997437	-4.918262
1.460	7.651994	-7.261368	678.980735	-33.367323	-7.002090	2.537799	1.031265	-4.914325
1.470	8.176187	-7.339523	678.166117	-33.271720	-7.246092	2.539727	1.068483	-4.906131
1.480	8.648671	-7.438453	676.806594	-33.112914	-7.496404	2.537129	1.107614	-4.892522
1.490	9.043367	-7.533560	675.016472	-32.887624	-7.744503	2.526237	1.147306	-4.872122
1.500	9.350450	-7.592079	672.904133	-32.593771	-7.982772	2.505280	1.186316	-4.843747
1.510	9.570944	-7.582726	670.571199	-32.232960	-8.205017	2.474775	1.223586	-4.806792
1.520	9.711008	-7.484390	668.121885	-31.812042	-8.407375	2.437155	1.258359	-4.761413
1.530	9.778763	-7.291196	665.672086	-31.342949	-8.588905	2.395902	1.290261	-4.708467
1.540	9.784663	-7.012810	663.349307	-30.841044	-8.751421	2.354617	1.319278	-4.649292
1.550	9.743780	-6.670777	661.282112	-30.322936	-8.898491	2.316416	1.345642	-4.585476
1.560	9.676749	-6.292849	659.584492	-29.804690	-9.034000	2.283783	1.369650	-4.518707
1.570	9.606835	-5.907238	658.341893	-29.300735	-9.160888	2.258681	1.391509	-4.450687
1.580	9.553570	-5.538027	657.602955	-28.823214	-9.280609	2.242595	1.411279	-4.383072
1.590	9.526377	-5.202308	657.377530	-28.381518	-9.393486	2.236332	1.428933	-4.317385
1.600	9.522209	-4.909172	657.639179	-27.982091	-9.499640	2.239665	1.444506	-4.254931
1.610	9.528902	-4.660394	658.329980	-27.628661	-9.599907	2.251127	1.458221	-4.196780
1.620	9.532350	-4.452412	659.367258	-27.322783	-9.696214	2.268160	1.470533	-4.143788
1.630	9.523468	-4.278845	660.653042	-27.064394	-9.791298	2.287693	1.482064	-4.096612
1.640	9.501614	-4.132568	662.085784	-26.852226	-9.888030	2.306945	1.493467	-4.055702
1.650	9.473589	-4.006614	663.572076	-26.684091	-9.988758	2.324156	1.505301	-4.021280
1.660	9.449676	-3.893957	665.036001	-26.556963	-10.095005	2.338971	1.517964	-3.993312
1.670	9.439148	-3.786986	666.424585	-26.466714	-10.207678	2.352297	1.531708	-3.971449
1.680	9.447299	-3.677575	667.707845	-26.407562	-10.327628	2.365719	1.546729	-3.954958
1.690	9.474874	-3.558161	668.872081	-26.371653	-10.456199	2.380788	1.563258	-3.942705
1.700	9.519343	-3.423593	669.906940	-26.349370	-10.595370	2.398535	1.581618	-3.933288
1.710	9.576650	-3.272991	670.790608	-26.330687	-10.747343	2.419417	1.602190	-3.925321
1.720	9.642447	-3.110738	671.480230	-26.307280	-10.913771	2.443617	1.625330	-3.917804
1.730	9.712879	-2.946196	671.913350	-26.274574	-11.095057	2.471482	1.651263	-3.910411
1.740	9.785622	-2.792462	672.021031	-26.232887	-11.290074	2.503817	1.680018	-3.903581
1.750	9.861368	-2.664808	671.747610	-26.187226	-11.496328	2.541832	1.711406	-3.898373
1.760	9.944993	-2.579121	671.069384	-26.145883	-11.710365	2.586675	1.745030	-3.896152
1.770	10.045172	-2.550177	670.005804	-26.118267	-11.928240	2.638733	1.780319	-3.898215
1.780	10.171839	-2.589491	668.620621	-26.112570	-12.145976	2.697022	1.816572	-3.905439
1.790	10.332168	-2.702856	667.013973	-26.133792	-12.359940	2.759002	1.853026	-3.918028
1.800	10.526839	-2.888077	665.307930	-26.182641	-12.566952	2.821028	1.888893	-3.935417
1.810	10.748361	-3.133708	663.628424	-26.255556	-12.763942	2.879340	1.923357	-3.956364
1.820	10.982188	-3.419653	662.087179	-26.345755	-12.947253	2.931181	1.955521	-3.979197
1.830	11.209916	-3.719987	660.767443	-26.444844	-13.112044	2.975455	1.984366	-4.002141
1.840	11.413084	-4.007520	659.716566	-26.544344	-13.252260	3.012523	2.008781	-4.023598
1.850	11.576152	-4.258846	658.947388	-26.636633	-13.361404	3.043203	2.027689	-4.042300
1.860	11.687958	-4.458487	658.448933	-26.715147	-13.433968	3.067601	2.040244	-4.057285
1.870	11.741723	-4.601102	658.203909	-26.774176	-13.467120	3.084446	2.046041	-4.067763
1.880	11.734354	-4.691405	658.206568	-26.808732	-13.462027	3.091324	2.045259	-4.072997
1.890	11.666008	-4.741941	658.472614	-26.814832	-13.424217	3.085664	2.038690	-4.072277
1.900	11.540477	-4.769131	659.035384	-26.790026	-13.362713	3.065976	2.027617	-4.065036
1.910	11.366076	-4.788424	659.929238	-26.733727	-13.288211	3.032701	2.013581	-4.050999
1.920	11.156044	-4.809838	661.168250	-26.646951	-13.210958	2.988333	1.998123	-4.030283
1.930	10.927669	-4.835278	662.730108	-26.531541	-13.139013	2.936856	1.982559	-4.003370
1.940	10.700350	-4.858497	664.550366	-26.389354	-13.077380	2.882780	1.967854	-3.971009
1.950	10.493446	-4.867775	666.525844	-26.221896	-13.028110	2.830138	1.954629	-3.934115
1.960	10.324497	-4.850371	668.523638	-26.030423	-12.991127	2.781667	1.943256	-3.893718
1.970	10.207508	-4.797154	670.393589	-25.816204	-12.965268	2.738400	1.933978	-3.850903
1.980	10.150762	-4.705674	671.983598	-25.580630	-12.949052	2.699832	1.926989	-3.806734
1.990	10.154563	-4.580614	673.156860	-25.325142	-12.940963	2.664647	1.922429	-3.762146
2.000	10.210379	-4.431514	673.808925	-25.051264	-12.939316	2.631752	1.920324	-3.717859
2.010	10.302602	-4.268812	673.882151	-24.761047	-12.941936	2.601131	1.920504	-3.674388
2.020	10.412492	-4.100108	673.375726	-24.457948	-12.945909	2.574068	1.922539	-3.632140
2.030	10.522234	-3.928601	672.349734	-24.147735	-12.947689	2.552613	1.925737	-3.591544
2.040	10.617130	-3.754390	670.921244	-23.838878	-12.943804	2.538532	1.929258	-3.553156
2.050	10.685563	-3.577463	669.250718	-23.542108	-12.931998	2.532300	1.932310	-3.517681
2.060	10.718038	-3.400368	667.519776	-23.269212	-12.912236	2.532640	1.934360	-3.485921
2.070	10.706958	-3.229145	665.905061	-23.031226	-12.886924	2.536814	1.935249	-3.458635
2.080	10.647931	-3.072233	664.554469	-22.836352	-12.860197	2.541527	1.935161	-3.436340
2.090	10.542227	-2.937809	663.570356	-22.688129	-12.836687	2.543993	1.934488	-3.419099
2.100	10.399036	-2.830419	663.000883	-22.584575	-12.820340	2.542791	1.933684	-3.406417
2.110	10.235937	-2.748192	662.837867	-22.518872	-12.813517	2.538253	1.933130	-3.397342
2.120	10.076275	-2.682107	663.018632	-22.481738	-12.816219	2.532376	1.933010	-3.390815
2.130	9.943209	-2.618171	663.430671	-22.464991	-12.825214	2.528338	1.933166	-3.386185
2.140	9.851811	-2.542027	663.920561	-22.465142	-12.833189	2.529711	1.932941	-3.383709
2.150	9.802027	-2.444428	664.310496	-22.485529	-12.828442	2.539562	1.931091	-3.384792
2.160	9.775726	-2.325894	664.425524	-22.535867	-12.795782	2.559628	1.925841	-3.391782
2.170	9.739845	-2.199281	664.131066	-22.629215	-12.719069	2.589754	1.915144	-3.407342
2.180	9.655269	-2.089344	663.373637	-22.777466	-12.585123	2.627693	1.897139	-3.433580
2.190	9.488594	-2.028633	662.210882	-22.987088	-12.387951	2.669275	1.870696	-3.471264
2.200	9.222435	-2.049943	660.815138	-23.256657	-12.131687	2.708965	1.835867	-3.519389
2.210	8.860291	-2.176943	659.442226	-23.576983	-11.830769	2.740756	1.794057	-3.575292
2.220	8.424155	-2.416070	658.372484	-23.933441	-11.506892	2.759311	1.747778	-3.635243
2.230	7.946265	-2.752918	657.845269	-24.309229	-11.183823	2.761112	1.700069	-3.695281
2.240	7.458971	-3.154691	658.011399	-24.688114	-10.882258	2.745335	1.653810	-3.751928
2.250	6.987309	-3.577688	658.917645	-25.055896	-10.616721	2.714111	1.611236	-3.802584
2.260	6.547124	-3.976796	660.520650	-25.400601	-10.395303	2.672046	1.573804	-3.845542
2.270	6.148537	-4.313609	662.715090	-25.711946	-10.221571	2.625113	1.542378	-3.879789
2.280	5.801586	-4.561137	665.359054	-25.980717	-10.097213	2.579336	1.517558	-3.904766
2.290	5.519820	-4.705038	668.287403	-26.198537	-10.024006	2.539679	1.499954	-3.920250
2.300	5.319302	-4.742773	671.314640	-26.358244	-10.004390	2.509465	1.490268	-3.926362
2.310	5.213845	-4.682175	674.235684	-26.454845	-10.040815	2.490345	1.489214	-3.923679
