Time[s]	Fx[N]	Fy[N]	Fz[N]	Mx[Nm]	My[Nm]	Mz[Nm]	COPx[cm]	COPy[cm]
0.010	4.933166	-1.410106	557.147540	-6.117491	-15.094527	0.685501	2.709251	-1.098002
0.020	4.863682	-1.423317	557.598968	-6.102423	-15.062593	0.680481	2.701331	-1.094411
0.030	4.799537	-1.429866	557.973081	-6.085866	-15.030980	0.676698	2.693854	-1.090710
0.040	4.748097	-1.426490	558.201073	-6.066973	-15.000888	0.674905	2.687363	-1.086880
0.050	4.717966	-1.415149	558.239285	-6.045913	-14.973968	0.675375	2.682357	-1.083032
0.060	4.716763	-1.402285	558.082323	-6.023581	-14.951743	0.677704	2.679129	-1.079336
0.070	4.747834	-1.395930	557.766329	-6.000976	-14.934787	0.680839	2.677606	-1.075894
0.080	4.807492	-1.401975	557.358101	-5.978703	-14.922154	0.683432	2.677301	-1.072686
0.090	4.884035	-1.421396	556.935027	-5.956978	-14.911312	0.684400	2.677388	-1.069600
0.100	4.959205	-1.449824	556.565500	-5.936068	-14.898583	0.683408	2.676879	-1.066553
0.110	5.011999	-1.479693	556.296946	-5.916732	-14.879902	0.680999	2.674813	-1.063592
0.120	5.023911	-1.503823	556.153044	-5.900250	-14.851676	0.678248	2.670430	-1.060904
0.130	4.983941	-1.518510	556.137468	-5.888024	-14.811502	0.676117	2.663281	-1.058735
0.140	4.891667	-1.524620	556.239383	-5.881036	-14.758692	0.674856	2.653299	-1.057285
0.150	4.757441	-1.526496	556.436610	-5.879461	-14.694624	0.673744	2.640844	-1.056627
0.160	4.599851	-1.529649	556.695808	-5.882562	-14.622836	0.671317	2.626719	-1.056692
0.170	4.441410	-1.538478	556.972749	-5.888892	-14.548609	0.665959	2.612086	-1.057303
0.180	4.303618	-1.554872	557.216403	-5.896701	-14.477829	0.656641	2.598242	-1.058243
0.190	4.202423	-1.578068	557.377896	-5.904371	-14.415334	0.643470	2.586277	-1.059312
0.200	4.145086	-1.605559	557.422019	-5.910639	-14.363452	0.627741	2.576764	-1.060353
0.210	4.129306	-1.634362	557.337300	-5.914675	-14.321464	0.611392	2.569622	-1.061238
0.220	4.144770	-1.662051	557.140981	-5.916242	-14.286305	0.596143	2.564217	-1.061893
0.230	4.176317	-1.687311	556.876746	-5.916054	-14.254061	0.582831	2.559644	-1.062363
0.240	4.207612	-1.710094	556.605193	-5.916009	-14.221518	0.571351	2.555046	-1.062874
0.250	4.224491	-1.731462	556.389310	-5.918782	-14.187135	0.561175	2.549858	-1.063784
0.260	4.217511	-1.753161	556.279100	-5.926720	-14.151263	0.552013	2.543914	-1.065422
0.270	4.183476	-1.776961	556.300159	-5.940518	-14.115769	0.544158	2.537438	-1.067862
0.280	4.125872	-1.803818	556.449504	-5.958471	-14.083336	0.538330	2.530928	-1.070802
0.290	4.054090	-1.833067	556.698612	-5.976779	-14.056656	0.535250	2.525003	-1.073611
0.300	3.981205	-1.862004	557.000900	-5.990872	-14.037761	0.535281	2.520240	-1.075559
0.310	3.920428	-1.886279	557.300905	-5.997175	-14.027692	0.538344	2.517077	-1.076111
0.320	3.881321	-1.901238	557.544101	-5.994539	-14.026654	0.544012	2.515793	-1.075169
0.330	3.867434	-1.903728	557.686955	-5.984676	-14.034527	0.551583	2.516560	-1.073125
0.340	3.876309	-1.893512	557.705648	-5.971487	-14.051386	0.560087	2.519499	-1.070724
0.350	3.901390	-1.873580	557.600899	-5.959608	-14.077619	0.568402	2.524677	-1.068795
0.360	3.934623	-1.849258	557.397220	-5.952806	-14.113515	0.575590	2.532039	-1.067965
0.370	3.968875	-1.826486	557.137131	-5.952782	-14.158626	0.581319	2.541318	-1.068459
0.380	3.999885	-1.809845	556.872552	-5.958810	-14.211378	0.586073	2.551998	-1.070049
0.390	4.027534	-1.801029	556.655636	-5.968318	-14.269277	0.590984	2.563394	-1.072174
0.400	4.055952	-1.798524	556.530067	-5.978186	-14.329697	0.597347	2.574829	-1.074189
0.410	4.092012	-1.798748	556.522704	-5.986135	-14.390932	0.606077	2.585866	-1.075632
0.420	4.142462	-1.798092	556.635946	-5.991483	-14.452934	0.617320	2.596479	-1.076374
0.430	4.210888	-1.794666	556.843500	-5.994886	-14.517352	0.630385	2.607079	-1.076584
0.440	4.296036	-1.788810	557.093583	-5.997366	-14.586833	0.643985	2.618381	-1.076546
0.450	4.392401	-1.782393	557.321479	-5.999365	-14.663941	0.656702	2.631146	-1.076464
0.460	4.492759	-1.777710	557.468599	-6.000502	-14.750156	0.667433	2.645917	-1.076384
0.470	4.591235	-1.776724	557.501093	-6.000163	-14.845308	0.675621	2.662830	-1.076260
0.480	4.685350	-1.780806	557.420506	-5.998331	-14.947638	0.681222	2.681573	-1.076087
0.490	4.776184	-1.790616	557.262085	-5.995914	-15.054419	0.684564	2.701497	-1.075959
0.500	4.866808	-1.805854	557.081345	-5.994191	-15.162777	0.686227	2.721825	-1.075999
0.510	4.959885	-1.824906	556.934154	-5.993715	-15.270283	0.686980	2.741847	-1.076198
0.520	5.055648	-1.844690	556.858093	-5.993469	-15.375015	0.687704	2.761029	-1.076301
0.530	5.151333	-1.860969	556.862383	-5.991006	-15.475192	0.689264	2.778998	-1.075850
0.540	5.242345	-1.869251	556.929970	-5.983606	-15.568770	0.692317	2.795463	-1.074391
0.550	5.324455	-1.866128	557.029676	-5.969753	-15.653425	0.697124	2.810160	-1.071712
0.560	5.395862	-1.850551	557.131625	-5.950011	-15.727062	0.703419	2.822863	-1.067972
0.570	5.458110	-1.824405	557.218304	-5.926783	-15.788632	0.710449	2.833473	-1.063638
0.580	5.515544	-1.792093	557.287132	-5.903231	-15.838799	0.717208	2.842125	-1.059280
0.590	5.573481	-1.759406	557.345811	-5.882056	-15.880099	0.722803	2.849236	-1.055369
0.600	5.635721	-1.732189	557.405430	-5.864742	-15.916500	0.726775	2.855462	-1.052150
0.610	5.702384	-1.715086	557.475733	-5.851388	-15.952562	0.729187	2.861571	-1.049622
0.620	5.769299	-1.710341	557.563148	-5.840984	-15.992464	0.730464	2.868279	-1.047591
0.630	5.829667	-1.716690	557.668761	-5.831923	-16.039115	0.731114	2.876101	-1.045768
0.640	5.877452	-1.728880	557.783522	-5.822599	-16.093489	0.731529	2.885257	-1.043882
0.650	5.910691	-1.738555	557.881591	-5.811977	-16.154382	0.731908	2.895665	-1.041794
0.660	5.932787	-1.736744	557.917220	-5.800003	-16.218692	0.732239	2.907007	-1.039581
0.670	5.950931	-1.717255	557.831864	-5.787714	-16.282137	0.732253	2.918825	-1.037537
0.680	5.972500	-1.679540	557.573975	-5.776959	-16.340095	0.731431	2.930570	-1.036088
0.690	6.001429	-1.629653	557.125754	-5.769803	-16.388284	0.729178	2.941577	-1.035637
0.700	6.036455	-1.578680	556.524343	-5.767841	-16.423213	0.725193	2.951032	-1.036404
0.710	6.071956	-1.539167	555.864738	-5.771629	-16.442452	0.719839	2.957995	-1.038315
0.720	6.100550	-1.521058	555.279286	-5.780444	-16.444775	0.714216	2.961532	-1.040998
0.730	6.115842	-1.528929	554.899892	-5.792442	-16.430160	0.709812	2.960923	-1.043871
0.740	6.114012	-1.561492	554.817488	-5.805219	-16.399663	0.707876	2.955866	-1.046329
0.750	6.094056	-1.613072	555.054494	-5.816615	-16.355230	0.708866	2.946599	-1.047936
0.760	6.057488	-1.675799	555.559853	-5.825448	-16.299572	0.712265	2.933900	-1.048573
0.770	6.008361	-1.741300	556.226923	-5.831858	-16.236138	0.716797	2.918977	-1.048467
0.780	5.953552	-1.801476	556.925998	-5.837090	-16.168982	0.720887	2.903255	-1.048091
0.790	5.902441	-1.849018	557.538725	-5.842869	-16.102288	0.723140	2.888102	-1.047975
0.800	5.865198	-1.878658	557.982681	-5.850653	-16.039554	0.722695	2.874561	-1.048537
0.810	5.849878	-1.889120	558.220246	-5.861108	-15.982743	0.719407	2.863161	-1.049963
0.820	5.859292	-1.884402	558.253397	-5.873973	-15.931819	0.713815	2.853869	-1.052206
0.830	5.888866	-1.872945	558.111204	-5.888356	-15.884841	0.706922	2.846178	-1.055051
0.840	5.926473	-1.864808	557.837605	-5.903280	-15.838562	0.699785	2.839278	-1.058244
0.850	5.954796	-1.868400	557.483811	-5.918226	-15.789249	0.693092	2.832235	-1.061596
0.860	5.955988	-1.888372	557.105069	-5.933382	-15.733421	0.686898	2.824139	-1.065038
0.870	5.917338	-1.925105	556.758491	-5.949512	-15.668285	0.680673	2.814198	-1.068598
0.880	5.835866	-1.975174	556.498648	-5.967521	-15.591936	0.673649	2.801792	-1.072333
0.890	5.719912	-2.032171	556.369383	-5.987984	-15.503542	0.665277	2.786556	-1.076260
0.900	5.586821	-2.087834	556.392639	-6.010814	-15.403560	0.655577	2.768469	-1.080319
0.910	5.457434	-2.133660	556.558029	-6.035163	-15.293846	0.645192	2.747934	-1.084373
0.920	5.349499	-2.162833	556.819579	-6.059561	-15.177441	0.635154	2.725738	-1.088245
0.930	5.272617	-2.171908	557.105190	-6.082212	-15.058066	0.626486	2.702913	-1.091753
0.940	5.226497	-2.161815	557.337970	-6.101311	-14.939475	0.619872	2.680505	-1.094724
0.950	5.202795	-2.137953	557.460348	-6.115280	-14.824806	0.615503	2.659347	-1.096989
0.960	5.189263	-2.109210	557.449390	-6.123018	-14.715938	0.613069	2.639870	-1.098399
0.970	5.174160	-2.085802	557.317579	-6.124249	-14.612975	0.611819	2.622019	-1.098880
0.980	5.149259	-2.076367	557.102448	-6.119870	-14.514139	0.610650	2.605291	-1.098518
0.990	5.110773	-2.085244	556.852908	-6.111979	-14.416304	0.608325	2.588889	-1.097593
1.000	5.058456	-2.110985	556.618153	-6.103383	-14.316073	0.603849	2.571974	-1.096512
1.010	4.993649	-2.146724	556.440594	-6.096718	-14.210938	0.596946	2.553900	-1.095664
1.020	4.917337	-2.182390	556.351494	-6.093638	-14.100014	0.588370	2.534372	-1.095286
1.030	4.829420	-2.208114	556.367743	-6.094515	-13.984082	0.579824	2.513460	-1.095411
1.040	4.729657	-2.217601	556.489454	-6.098750	-13.865083	0.573413	2.491527	-1.095933
1.050	4.619582	-2.210095	556.699394	-6.105402	-13.745464	0.570802	2.469100	-1.096714
1.060	4.503987	-2.190029	556.965293	-6.113620	-13.627744	0.572439	2.446785	-1.097666
1.070	4.390900	-2.164593	557.244852	-6.122707	-13.514388	0.577251	2.425215	-1.098746
1.080	4.289886	-2.140578	557.492344	-6.131948	-13.407817	0.583010	2.405023	-1.099916
1.090	4.209239	-2.122136	557.665885	-6.140449	-13.310313	0.587223	2.386790	-1.101098
1.100	4.153168	-2.110347	557.734780	-6.147095	-13.223696	0.588149	2.370965	-1.102154
1.110	4.120304	-2.104228	557.685766	-6.150719	-13.148801	0.585473	2.357744	-1.102900
1.120	4.104495	-2.102124	557.526371	-6.150563	-13.084961	0.580387	2.346967	-1.103188
1.130	4.097642	-2.102607	557.284234	-6.146844	-13.029829	0.575108	2.338094	-1.103000
1.140	4.093108	-2.104704	557.002530	-6.140965	-12.979770	0.572018	2.330289	-1.102502
1.150	4.087876	-2.107824	556.732056	-6.135029	-12.930770	0.572731	2.322620	-1.101972
1.160	4.082445	-2.111708	556.520556	-6.130886	-12.879487	0.577392	2.314288	-1.101646
1.170	4.078918	-2.116513	556.401135	-6.129290	-12.823939	0.584480	2.304801	-1.101596
1.180	4.078541	-2.122814	556.383789	-6.129601	-12.763603	0.591248	2.294029	-1.101686
1.190	4.079956	-2.131156	556.454141	-6.130108	-12.699057	0.594701	2.282139	-1.101638
1.200	4.078845	-2.141156	556.580093	-6.128806	-12.631471	0.592771	2.269479	-1.101154
1.210	4.069103	-2.150794	556.722870	-6.124320	-12.562243	0.585231	2.256463	-1.100066
1.220	4.045150	-2.156747	556.847397	-6.116599	-12.492897	0.573932	2.243505	-1.098434
1.230	4.004494	-2.155739	556.928577	-6.107020	-12.425109	0.562239	2.231006	-1.096553
1.240	3.949365	-2.146035	556.952851	-6.097770	-12.360701	0.553884	2.219344	-1.094845
1.250	3.886550	-2.128128	556.916822	-6.090785	-12.301443	0.551738	2.208848	-1.093662
1.260	3.825448	-2.104349	556.825512	-6.086754	-12.248718	0.556942	2.199741	-1.093117
1.270	3.775309	-2.077733	556.691573	-6.084683	-12.203170	0.568662	2.192088	-1.093008
1.280	3.742830	-2.050720	556.534774	-6.082213	-12.164563	0.584433	2.185769	-1.092872
1.290	3.730853	-2.024311	556.380201	-6.076549	-12.131976	0.600896	2.180519	-1.092158
1.300	3.738221	-1.998107	556.254385	-6.065649	-12.104262	0.614688	2.176030	-1.090445
1.310	3.760558	-1.971196	556.179979	-6.049146	-12.080450	0.623235	2.172040	-1.087624
1.320	3.791656	-1.943361	556.170707	-6.028589	-12.059833	0.625297	2.168369	-1.083946
1.330	3.825131	-1.915944	556.228446	-6.006871	-12.041743	0.621175	2.164892	-1.079929
1.340	3.855960	-1.891945	556.343310	-5.987159	-12.025306	0.612602	2.161490	-1.076163
1.350	3.881374	-1.875287	556.496404	-5.971858	-12.009401	0.602318	2.158037	-1.073117
1.360	3.900747	-1.869374	556.664187	-5.962002	-11.992846	0.593357	2.154413	-1.071023
1.370	3.914722	-1.875290	556.823541	-5.957143	-11.974630	0.588173	2.150525	-1.069844
1.380	3.924392	-1.890431	556.956746	-5.955645	-11.954031	0.587893	2.146312	-1.069319
1.390	3.931061	-1.908544	557.055233	-5.955191	-11.930639	0.592054	2.141734	-1.069049
1.400	3.936202	-1.921644	557.120471	-5.953381	-11.904410	0.598916	2.136775	-1.068598
1.410	3.940928	-1.923141	557.160887	-5.948320	-11.875772	0.606186	2.131480	-1.067613
1.420	3.945084	-1.910583	557.185719	-5.939132	-11.845680	0.611783	2.125984	-1.065916
1.430	3.946941	-1.886392	557.198958	-5.926254	-11.815512	0.614391	2.120519	-1.063579
1.440	3.944223	-1.856209	557.196683	-5.911340	-11.786773	0.613711	2.115370	-1.060907
1.450	3.936075	-1.826068	557.168602	-5.896686	-11.760742	0.610426	2.110805	-1.058331
1.460	3.924766	-1.800331	557.101960	-5.884346	-11.738166	0.605920	2.107005	-1.056242
1.470	3.915903	-1.781466	556.985852	-5.875347	-11.719126	0.601802	2.104026	-1.054847
1.480	3.916718	-1.770968	556.815793	-5.869424	-11.703057	0.599357	2.101783	-1.054105
1.490	3.933073	-1.769820	556.598986	-5.865377	-11.688863	0.599126	2.100051	-1.053789
1.500	3.966682	-1.777748	556.358903	-5.861860	-11.675097	0.600805	2.098483	-1.053611
1.510	4.013945	-1.792208	556.135793	-5.858128	-11.660227	0.603468	2.096651	-1.053363
1.520	4.066841	-1.808571	555.979974	-5.854274	-11.642937	0.605966	2.094129	-1.052965
1.530	4.115253	-1.821862	555.937939	-5.850743	-11.622248	0.607286	2.090566	-1.052409
1.540	4.149628	-1.828847	556.035860	-5.847466	-11.597356	0.606790	2.085721	-1.051635
1.550	4.163077	-1.828963	556.267813	-5.843273	-11.567404	0.604328	2.079467	-1.050442
1.560	4.152539	-1.823547	556.594551	-5.836078	-11.531558	0.600261	2.071806	-1.048533
1.570	4.119065	-1.814237	556.953449	-5.823749	-11.489496	0.595371	2.062918	-1.045644
1.580	4.067525	-1.801873	557.275071	-5.805118	-11.441949	0.590620	2.053196	-1.041697
1.590	4.006011	-1.786551	557.500155	-5.780528	-11.390934	0.586814	2.043216	-1.036866
1.600	3.945001	-1.768538	557.592481	-5.751680	-11.339487	0.584326	2.033651	-1.031520
1.610	3.895889	-1.749297	557.545135	-5.720994	-11.291039	0.582980	2.025135	-1.026104
1.620	3.868297	-1.732001	557.379343	-5.690902	-11.248571	0.582145	2.018118	-1.021011
1.630	3.866433	-1.721247	557.137233	-5.663368	-11.213695	0.581010	2.012735	-1.016512
1.640	3.886190	-1.721866	556.871646	-5.639653	-11.185908	0.578960	2.008705	-1.012738
1.650	3.915208	-1.737005	556.635704	-5.620190	-11.162460	0.575876	2.005344	-1.009671
1.660	3.936572	-1.766065	556.473038	-5.604561	-11.139141	0.572204	2.001739	-1.007158
1.670	3.934585	-1.803611	556.409335	-5.591626	-11.111810	0.568767	1.997057	-1.004948
1.680	3.899899	-1.840116	556.447305	-5.579842	-11.078037	0.566453	1.990851	-1.002762
1.690	3.832104	-1.864548	556.567406	-5.567686	-11.038064	0.565936	1.983239	-1.000362
1.700	3.739432	-1.867798	556.734440	-5.554100	-10.994650	0.567522	1.974846	-0.997621
1.710	3.636349	-1.845618	556.907014	-5.538865	-10.951893	0.571109	1.966557	-0.994576
1.720	3.539939	-1.800063	557.046120	-5.522791	-10.913663	0.576202	1.959203	-0.991442
1.730	3.465812	-1.738978	557.121138	-5.507604	-10.882402	0.581999	1.953328	-0.988583
1.740	3.424213	-1.673779	557.114096	-5.495554	-10.858756	0.587567	1.949108	-0.986432
1.750	3.417259	-1.616461	557.023438	-5.488810	-10.842021	0.592056	1.946421	-0.985382
1.760	3.438189	-1.577041	556.866785	-5.488745	-10.831030	0.594848	1.944995	-0.985648
1.770	3.473042	-1.562031	556.679964	-5.495350	-10.824996	0.595572	1.944564	-0.987165
1.780	3.504494	-1.573697	556.509564	-5.507071	-10.823969	0.594049	1.944974	-0.989573
1.790	3.516776	-1.609698	556.399620	-5.521183	-10.828726	0.590288	1.946214	-0.992305
1.800	3.500168	-1.663196	556.377341	-5.534564	-10.840184	0.584630	1.948351	-0.994750
1.810	3.453692	-1.723839	556.444294	-5.544489	-10.858638	0.577928	1.951433	-0.996414
1.820	3.385175	-1.779777	556.576952	-5.549248	-10.883255	0.571546	1.955391	-0.997032
1.830	3.308620	-1.820412	556.736452	-5.548493	-10.912188	0.567014	1.960028	-0.996610
1.840	3.239693	-1.839195	556.883934	-5.543359	-10.943336	0.565460	1.965102	-0.995425
1.850	3.190919	-1.835457	556.995500	-5.536371	-10.975452	0.567105	1.970474	-0.993971
1.860	3.168465	-1.814575	557.070090	-5.531110	-11.009112	0.571107	1.976252	-0.992893
1.870	3.171680	-1.786360	557.125962	-5.531616	-11.047121	0.575814	1.982877	-0.992884
1.880	3.195201	-1.762182	557.187204	-5.541521	-11.094191	0.579332	1.991107	-0.994553
1.890	3.232341	-1.751738	557.267482	-5.563080	-11.155880	0.580216	2.001890	-0.998278
1.900	3.278133	-1.760475	557.359747	-5.596465	-11.237008	0.578089	2.016114	-1.004103
1.910	3.330895	-1.788510	557.436978	-5.639627	-11.340025	0.573897	2.034315	-1.011707
1.920	3.392015	-1.831242	557.463104	-5.688863	-11.464012	0.569656	2.056461	-1.020491
1.930	3.464328	-1.881199	557.408375	-5.739982	-11.604920	0.567747	2.081942	-1.029762
1.940	3.549813	-1.930377	557.261901	-5.789717	-11.757067	0.570098	2.109792	-1.038958
1.950	3.647636	-1.972443	557.036344	-5.836733	-11.915171	0.577583	2.139029	-1.047819
1.960	3.753606	-2.004374	556.764234	-5.881676	-12.075887	0.589827	2.168941	-1.056403
1.970	3.861566	-2.027071	556.488874	-5.926222	-12.238145	0.605392	2.199172	-1.064931
1.980	3.966203	-2.044609	556.253730	-5.971714	-12.402370	0.622220	2.229625	-1.073559
1.990	4.065868	-2.062381	556.093324	-6.018168	-12.569221	0.638141	2.260272	-1.082223
2.000	4.163828	-2.084962	556.027462	-6.064097	-12.738595	0.651324	2.291001	-1.090611
2.010	4.267179	-2.114604	556.059410	-6.107084	-12.909290	0.660608	2.321567	-1.098279
2.020	4.383854	-2.150797	556.177270	-6.144752	-13.079331	0.665650	2.351648	-1.104819
2.030	4.519211	-2.190722	556.356726	-6.175740	-13.246628	0.666894	2.380959	-1.110033
2.040	4.673864	-2.230185	556.564092	-6.200284	-13.409529	0.665378	2.409341	-1.114029
2.050	4.843713	-2.264649	556.760450	-6.220125	-13.566962	0.662487	2.436768	-1.117199
2.060	5.021845	-2.290248	556.908362	-6.237709	-13.718104	0.659746	2.463260	-1.120060
2.070	5.201045	-2.304741	556.980691	-6.255056	-13.861910	0.658674	2.488760	-1.123029
2.080	5.375485	-2.308252	556.968182	-6.272929	-13.996914	0.660550	2.513055	-1.126263
2.090	5.540840	-2.303445	556.881959	-6.290749	-14.121545	0.666063	2.535824	-1.129638
2.100	5.693220	-2.294826	556.749747	-6.307197	-14.234823	0.674951	2.556772	-1.132860
2.110	5.828264	-2.287189	556.608094	-6.321010	-14.336945	0.685897	2.575770	-1.135630
2.120	5.941569	-2.283752	556.494283	-6.331475	-14.429328	0.696857	2.592898	-1.137743
2.130	6.030385	-2.284894	556.440186	-6.338460	-14.513966	0.705702	2.608360	-1.139109
2.140	6.095328	-2.288181	556.467474	-6.342186	-14.592387	0.710842	2.622325	-1.139723
2.150	6.140804	-2.289561	556.582385	-6.343082	-14.664772	0.711577	2.634789	-1.139648
2.160	6.173781	-2.285025	556.770627	-6.341837	-14.729728	0.708071	2.645565	-1.139039
2.170	6.201543	-2.271970	556.996582	-6.339514	-14.784881	0.701115	2.654394	-1.138160
2.180	6.229295	-2.250008	557.211136	-6.337436	-14.827987	0.691842	2.661107	-1.137349
2.190	6.258403	-2.221253	557.367631	-6.336727	-14.857987	0.681552	2.665743	-1.136903
2.200	6.285906	-2.190160	557.439363	-6.337716	-14.875502	0.671606	2.668542	-1.136934
2.210	6.305625	-2.162938	557.429675	-6.339637	-14.882592	0.663220	2.669860	-1.137298
2.220	6.310477	-2.146460	557.368900	-6.340836	-14.882001	0.657129	2.670045	-1.137637
2.230	6.294962	-2.146530	557.298982	-6.339346	-14.876278	0.653244	2.669353	-1.137513
2.240	6.256903	-2.165620	557.252894	-6.333501	-14.867076	0.650592	2.667923	-1.136558
2.250	6.198037	-2.200867	557.238647	-6.322345	-14.854840	0.647711	2.665795	-1.134585
2.260	6.123595	-2.243556	557.235514	-6.305879	-14.838981	0.643381	2.662964	-1.131636
2.270	6.041040	-2.280943	557.204185	-6.285224	-14.818467	0.637321	2.659432	-1.127993
2.280	5.958179	-2.300151	557.105733	-6.262656	-14.792489	0.630432	2.655239	-1.124141
2.290	5.880964	-2.292806	556.920558	-6.241275	-14.760855	0.624427	2.650442	-1.120676
2.300	5.811672	-2.258516	556.659640	-6.224252	-14.723960	0.621000	2.645056	-1.118143
2.310	5.748231	-2.205578	556.364636	-6.213886	-14.682515	0.620909	2.639009	-1.116873
2.320	5.685219	-2.148435	556.097279	-6.210902	-14.637289	0.623425	2.632145	-1.116873
2.330	5.616415	-2.102819	555.921368	-6.214237	-14.589072	0.626463	2.624305	-1.117827
2.340	5.537957	-2.080539	555.883071	-6.221439	-14.538844	0.627415	2.615450	-1.119199
