Time[s]	Fx[N]	Fy[N]	Fz[N]	Mx[Nm]	My[Nm]	Mz[Nm]	COPx[cm]	COPy[cm]
0.010	10.086348	6.055196	458.752276	5.414627	-21.161072	-0.150945	4.612745	1.180294
0.020	9.600444	5.810291	458.067097	5.341344	-20.546871	-0.159878	4.485559	1.166062
0.030	9.123164	5.575744	458.012151	5.277969	-19.959583	-0.167428	4.357872	1.152364
0.040	8.663146	5.361980	459.090433	5.232933	-19.421911	-0.172935	4.230520	1.139848
0.050	8.227084	5.180601	461.554246	5.210902	-18.946340	-0.176656	4.104900	1.128990
0.060	7.818208	5.043706	465.345443	5.211504	-18.532079	-0.179781	3.982435	1.119922
0.070	7.435133	4.961438	470.106350	5.228987	-18.164723	-0.184039	3.863960	1.112299
0.080	7.072316	4.938329	475.260828	5.253186	-17.819298	-0.190971	3.749372	1.105327
0.090	6.722420	4.969886	480.142710	5.271605	-17.466129	-0.201105	3.637695	1.097925
0.100	6.379236	5.041017	484.135582	5.271830	-17.077939	-0.213379	3.527512	1.088916
0.110	6.039165	5.127359	486.789986	5.243284	-16.636151	-0.225157	3.417521	1.077114
0.120	5.700544	5.199590	487.896626	5.177871	-16.134821	-0.232909	3.307016	1.061264
0.130	5.362090	5.229420	487.507824	5.069901	-15.581494	-0.233358	3.196153	1.039963
0.140	5.022651	5.194981	485.909259	4.916186	-14.995175	-0.224629	3.086003	1.011750
0.150	4.683243	5.083681	483.550376	4.716863	-14.402117	-0.206952	2.978411	0.975465
0.160	4.350283	4.892284	480.946977	4.476573	-13.830405	-0.182614	2.875661	0.930783
0.170	4.037494	4.625614	478.574579	4.204956	-13.304317	-0.155204	2.779988	0.878642
0.180	3.764358	4.295667	476.774828	3.915578	-12.839484	-0.128446	2.692987	0.821264
0.190	3.550634	3.921779	475.696740	3.623340	-12.439849	-0.105151	2.615080	0.761691
0.200	3.408552	3.530885	475.286968	3.341364	-12.097195	-0.086651	2.545240	0.703020
0.210	3.335789	3.156024	475.330058	3.078618	-11.793496	-0.072788	2.481117	0.647680
0.220	3.312691	2.831734	475.525776	2.839023	-11.505523	-0.062226	2.419537	0.597028
0.230	3.305784	2.586615	475.580978	2.622010	-11.210497	-0.052857	2.357222	0.551328
0.240	3.276853	2.435135	475.290562	2.423908	-10.891260	-0.042235	2.291495	0.509984
0.250	3.194199	2.371849	474.586201	2.239520	-10.539569	-0.028076	2.220791	0.471889
0.260	3.041444	2.370850	473.541995	2.063545	-10.156689	-0.008816	2.144834	0.435768
0.270	2.820376	2.391534	472.340199	1.891821	-9.751385	0.015949	2.064483	0.400521
0.280	2.547393	2.389386	471.212607	1.722420	-9.336297	0.045326	1.981334	0.365529
0.290	2.246141	2.328505	470.378398	1.556553	-8.924043	0.077335	1.897205	0.330915
0.300	1.940020	2.191847	469.995261	1.399008	-8.524134	0.109298	1.813664	0.297664
0.310	1.646916	1.985782	470.131511	1.257784	-8.141228	0.138269	1.731692	0.267539
0.320	1.376501	1.737536	470.759168	1.142782	-7.774801	0.161449	1.651545	0.242753
0.330	1.129505	1.486591	471.765274	1.063738	-7.420042	0.176590	1.572825	0.225480
0.340	0.898586	1.273351	472.979516	1.027910	-7.069612	0.182341	1.494697	0.217327
0.350	0.670758	1.129124	474.215738	1.038059	-6.715892	0.178453	1.416210	0.218900
0.360	0.431175	1.070353	475.320633	1.091301	-6.353374	0.165789	1.336650	0.229593
0.370	0.167803	1.097703	476.217417	1.179270	-5.980944	0.146164	1.255927	0.247633
0.380	-0.123689	1.198816	476.930167	1.289666	-5.603704	0.122037	1.174953	0.270410
0.390	-0.435903	1.352868	477.577653	1.408791	-5.233765	0.096122	1.095898	0.294987
0.400	-0.748101	1.535360	478.333482	1.524236	-4.889276	0.070925	1.022148	0.318656
0.410	-1.028485	1.721923	479.360935	1.626918	-4.591182	0.048303	0.957771	0.339393
0.420	-1.240623	1.890631	480.742335	1.711933	-4.358152	0.029160	0.906546	0.356102
0.430	-1.352493	2.023262	482.427648	1.778218	-4.201174	0.013414	0.870840	0.368598
0.440	-1.345188	2.106533	484.221466	1.827434	-4.119767	0.000222	0.850802	0.377396
0.450	-1.218140	2.133782	485.814113	1.862644	-4.101220	-0.011608	0.844195	0.383407
0.460	-0.989274	2.106374	486.848267	1.887259	-4.123185	-0.023169	0.846914	0.387648
0.470	-0.690657	2.033731	487.002450	1.904397	-4.158812	-0.035096	0.853961	0.391045
0.480	-0.361801	1.931490	486.069009	1.916566	-4.182815	-0.047450	0.860539	0.394299
0.490	-0.042989	1.818159	484.007211	1.925542	-4.176589	-0.059843	0.862919	0.397833
0.500	0.229871	1.711199	480.960644	1.932431	-4.131059	-0.071699	0.858918	0.401786
0.510	0.428656	1.623649	477.238290	1.937967	-4.046944	-0.082516	0.847992	0.406079
0.520	0.535523	1.562337	473.266258	1.943036	-3.933075	-0.092070	0.831049	0.410559
0.530	0.545301	1.528211	469.521263	1.949322	-3.803693	-0.100500	0.810122	0.415172
0.540	0.467491	1.518478	466.458302	1.959841	-3.675373	-0.108249	0.787932	0.420154
0.550	0.326399	1.529598	464.444512	1.979176	-3.564009	-0.115858	0.767370	0.426138
0.560	0.157968	1.559882	463.709538	2.013239	-3.482337	-0.123717	0.750974	0.434159
0.570	0.003259	1.610568	464.320407	2.068510	-3.438602	-0.131923	0.740567	0.445492
0.580	-0.099766	1.684845	466.184646	2.150819	-3.436731	-0.140360	0.737204	0.461366
0.590	-0.123623	1.785200	469.077692	2.263890	-3.477629	-0.149006	0.741376	0.482626
0.600	-0.055543	1.910499	472.682740	2.407895	-3.560621	-0.158213	0.753279	0.509410
0.610	0.102492	2.054558	476.629963	2.578362	-3.684148	-0.168663	0.772958	0.540957
0.620	0.337330	2.207225	480.529916	2.765837	-3.845569	-0.180900	0.800277	0.575581
0.630	0.629914	2.357501	484.005580	2.956793	-4.040652	-0.194739	0.834836	0.610901
0.640	0.960215	2.496968	486.729336	3.135924	-4.263525	-0.208959	0.875954	0.644285
0.650	1.310776	2.621688	488.463848	3.289511	-4.507472	-0.221541	0.922785	0.673440
0.660	1.669011	2.731836	489.096504	3.408980	-4.766369	-0.230335	0.974525	0.696995
0.670	2.028964	2.829800	488.653522	3.493556	-5.036139	-0.233821	1.030616	0.714935
0.680	2.392636	2.918225	487.284959	3.551023	-5.315438	-0.231594	1.090827	0.728736
0.690	2.769953	2.999072	485.222895	3.596093	-5.605053	-0.224398	1.155150	0.741122
0.700	3.175883	3.073790	482.725158	3.646527	-5.906062	-0.213780	1.223483	0.755404
0.710	3.624090	3.144048	480.020598	3.717915	-6.217352	-0.201597	1.295226	0.774532
0.720	4.118665	3.212472	477.269320	3.818724	-6.533284	-0.189522	1.368888	0.800119
0.730	4.647248	3.283020	474.546155	3.947332	-6.842231	-0.178566	1.441847	0.831812
0.740	5.178862	3.360633	471.850151	4.092078	-7.126547	-0.168724	1.510341	0.867241
0.750	5.667747	3.449872	469.136697	4.234268	-7.364345	-0.158892	1.569765	0.902566
0.760	6.061981	3.552644	466.362701	4.353163	-7.533001	-0.147199	1.615267	0.933429
0.770	6.314047	3.665779	463.531630	4.431505	-7.613593	-0.131698	1.642519	0.956031
0.780	6.390584	3.779618	460.725852	4.460023	-7.594957	-0.111176	1.648476	0.968043
0.790	6.279391	3.878657	458.116997	4.439603	-7.476020	-0.085732	1.631902	0.969098
0.800	5.992545	3.944642	455.949330	4.380536	-7.265610	-0.056936	1.593513	0.960751
0.810	5.564668	3.961512	454.496818	4.299232	-6.979750	-0.027530	1.535709	0.945932
0.820	5.045727	3.920623	454.002611	4.213585	-6.637205	-0.000791	1.461931	0.928097
0.830	4.489106	3.824300	454.618221	4.138438	-6.254738	0.020329	1.375822	0.910311
0.840	3.938025	3.686352	456.363236	4.082473	-5.843761	0.034098	1.280507	0.894567
0.850	3.415019	3.529316	459.119726	4.047401	-5.409582	0.040636	1.178251	0.881557
0.860	2.918420	3.379160	462.660493	4.029628	-4.953262	0.041925	1.070604	0.870969
0.870	2.426639	3.258745	466.697173	4.023636	-4.474952	0.041031	0.958856	0.862151
0.880	1.908147	3.181929	470.931286	4.025628	-3.977126	0.040816	0.844524	0.854823
0.890	1.334154	3.150472	475.097109	4.035853	-3.466672	0.042764	0.729677	0.849480
0.900	0.691408	3.155247	478.992355	4.058682	-2.955634	0.046503	0.617052	0.847338
0.910	-0.007392	3.181461	482.495654	4.100583	-2.460926	0.050204	0.510041	0.849869
0.920	-0.718715	3.215722	485.568592	4.167011	-2.003350	0.051512	0.412578	0.858171
0.930	-1.371960	3.251950	488.238404	4.259474	-1.605878	0.048559	0.328913	0.872417
0.940	-1.883107	3.293711	490.560210	4.373789	-1.290990	0.040680	0.263167	0.891591
0.950	-2.176049	3.351846	492.566576	4.500071	-1.077202	0.028643	0.218692	0.913597
0.960	-2.205537	3.438050	494.222415	4.624499	-0.975446	0.014332	0.197370	0.935712
0.970	-1.973340	3.556815	495.406553	4.732260	-0.986512	-0.000009	0.199132	0.955228
0.980	-1.530404	3.699355	495.932070	4.810723	-1.100633	-0.012629	0.221932	0.970037
0.990	-0.962842	3.842665	495.599070	4.852004	-1.299516	-0.022839	0.262211	0.979018
1.000	-0.366460	3.954780	494.256873	4.854479	-1.560037	-0.031075	0.315633	0.982177
1.010	0.180373	4.004544	491.849517	4.823031	-1.858171	-0.038473	0.377793	0.980591
1.020	0.635147	3.972257	488.430847	4.767834	-2.171888	-0.046182	0.444666	0.976153
1.030	0.995002	3.857179	484.153093	4.701622	-2.482534	-0.054702	0.512758	0.971102
1.040	1.286498	3.679126	479.243183	4.636016	-2.774924	-0.063487	0.579022	0.967362
1.050	1.546975	3.473567	473.979298	4.578248	-3.036777	-0.070937	0.640698	0.965917
1.060	1.804818	3.281851	468.671506	4.529773	-3.258160	-0.074793	0.695190	0.966514
1.070	2.065253	3.139802	463.643490	4.487394	-3.431243	-0.072912	0.740061	0.967854
1.080	2.306209	3.068225	459.211935	4.446146	-3.550439	-0.064199	0.773159	0.968212
1.090	2.485530	3.068030	455.663364	4.402366	-3.612748	-0.049256	0.792855	0.966144
1.100	2.556658	3.121170	453.230685	4.355443	-3.618156	-0.030368	0.798303	0.960977
1.110	2.486386	3.196904	452.072730	4.307682	-3.569808	-0.010729	0.789654	0.952874
1.120	2.267347	3.261373	452.260553	4.262794	-3.473774	0.006708	0.768091	0.942553
1.130	1.920486	3.287501	453.773983	4.224183	-3.338411	0.020195	0.735699	0.930900
1.140	1.487488	3.262135	456.509254	4.194052	-3.173588	0.029541	0.695186	0.918722
1.150	1.017445	3.188325	460.294730	4.173604	-2.990103	0.035805	0.649606	0.906724
1.160	0.553664	3.082352	464.909344	4.163774	-2.799408	0.040592	0.602141	0.895610
1.170	0.125215	2.967099	470.098558	4.165682	-2.613516	0.045321	0.555951	0.886129
1.180	-0.255133	2.864637	475.584595	4.180420	-2.444833	0.050707	0.514069	0.879007
1.190	-0.587550	2.790847	481.071766	4.208417	-2.305735	0.056574	0.479291	0.874800
1.200	-0.878646	2.753392	486.253320	4.248950	-2.207957	0.061943	0.454075	0.873814
1.210	-1.134150	2.752587	490.828524	4.300246	-2.162165	0.065359	0.440513	0.876120
1.220	-1.352305	2.783775	494.533186	4.360260	-2.178138	0.065337	0.440443	0.881692
1.230	-1.518770	2.839851	497.176382	4.427803	-2.265589	0.060767	0.455691	0.890590
1.240	-1.603821	2.913215	498.668970	4.503488	-2.434954	0.051111	0.488291	0.903102
1.250	-1.563531	2.997101	499.030440	4.589924	-2.697120	0.036330	0.540472	0.919768
1.260	-1.347051	3.086577	498.368419	4.690832	-3.061380	0.016677	0.614280	0.941238
1.270	-0.910626	3.179422	496.835382	4.809216	-3.531735	-0.007390	0.710846	0.967970
1.280	-0.235413	3.276746	494.575945	4.945241	-4.102538	-0.035050	0.829506	0.999895
1.290	0.657366	3.382980	491.682742	5.094695	-4.755055	-0.064800	0.967098	1.036175
1.300	1.701122	3.504823	488.177642	5.248705	-5.456607	-0.094301	1.117750	1.075163
1.310	2.792544	3.648994	484.027535	5.394956	-6.163378	-0.120613	1.273353	1.114597
1.320	3.812638	3.819019	479.191695	5.520200	-6.826774	-0.140817	1.424644	1.151981
1.330	4.653402	4.011892	473.685796	5.613535	-7.401830	-0.152832	1.562603	1.185076
1.340	5.241068	4.215958	467.641137	5.669440	-7.855293	-0.156101	1.679769	1.212348
1.350	5.548527	4.411517	461.338721	5.689318	-8.171088	-0.151840	1.771169	1.233219
1.360	5.594244	4.575012	455.204857	5.680837	-8.351812	-0.142675	1.834737	1.247974
1.370	5.429972	4.686174	449.764962	5.655398	-8.415993	-0.131776	1.871198	1.257412
1.380	5.122536	4.735682	445.562953	5.624967	-8.391977	-0.121841	1.883455	1.262440
1.390	4.735202	4.729887	443.063843	5.599498	-8.310085	-0.114347	1.875595	1.263813
1.400	4.313014	4.689981	442.564883	5.585486	-8.195230	-0.109305	1.851758	1.262072
1.410	3.875098	4.645418	444.141212	5.585596	-8.062144	-0.105455	1.815221	1.257617
1.420	3.415503	4.624152	447.642463	5.599126	-7.914610	-0.100762	1.768065	1.250803
1.430	2.912087	4.643621	452.739309	5.623053	-7.748785	-0.093079	1.711534	1.242007
1.440	2.340785	4.705770	459.000793	5.653438	-7.559205	-0.080836	1.646883	1.231684
1.450	1.690691	4.797424	465.973296	5.686760	-7.345129	-0.063586	1.576298	1.220405
1.460	0.974699	4.895389	473.235380	5.720718	-7.114883	-0.042229	1.503456	1.208853
1.470	0.231601	4.974415	480.417667	5.754310	-6.886776	-0.018854	1.433498	1.197772
1.480	-0.481125	5.015538	487.194875	5.787528	-6.686565	0.003712	1.372462	1.187929
1.490	-1.100588	5.012142	493.268568	5.821201	-6.542705	0.022446	1.326398	1.180128
1.500	-1.572149	4.971656	498.359295	5.857115	-6.481082	0.034607	1.300484	1.175280
1.510	-1.858348	4.912288	502.217169	5.898024	-6.520737	0.038099	1.298390	1.174397
1.520	-1.940881	4.856384	504.647292	5.947053	-6.671439	0.031737	1.322000	1.178457
1.530	-1.817045	4.823418	505.537890	6.006582	-6.933305	0.015512	1.371471	1.188157
1.540	-1.494583	4.825493	504.878782	6.077191	-7.298138	-0.009160	1.445523	1.203693
1.550	-0.988755	4.866592	502.764346	6.157249	-7.751782	-0.039376	1.541832	1.224679
1.560	-0.323089	4.944815	499.382450	6.243248	-8.276743	-0.071078	1.657396	1.250194
1.570	0.467814	5.055699	494.994157	6.330654	-8.854435	-0.099840	1.788796	1.278935
1.580	1.336662	5.194693	489.908659	6.414899	-9.466817	-0.121827	1.932364	1.309407
1.590	2.225736	5.357695	484.456760	6.492165	-10.097436	-0.134583	2.084280	1.340092
1.600	3.073766	5.539831	478.965376	6.559711	-10.732030	-0.137418	2.240669	1.369558
1.610	3.826018	5.733774	473.734303	6.615720	-11.358757	-0.131403	2.397706	1.396504
1.620	4.444625	5.929187	469.015812	6.658905	-11.968081	-0.119027	2.551744	1.419761
1.630	4.915615	6.113957	464.998913	6.688221	-12.552404	-0.103550	2.699448	1.438330
1.640	5.249756	6.276487	461.801967	6.702850	-13.105689	-0.088152	2.837946	1.451455
1.650	5.476443	6.407796	459.476386	6.702353	-13.623300	-0.075087	2.964962	1.458694
1.660	5.632966	6.502688	458.020322	6.686791	-14.102156	-0.065168	3.078937	1.459933
1.670	5.753708	6.560106	457.397422	6.656639	-14.541043	-0.057839	3.179083	1.455329
1.680	5.863244	6.582984	457.554037	6.612497	-14.940815	-0.051782	3.265366	1.445184
1.690	5.974321	6.577715	458.429285	6.554670	-15.304283	-0.045736	3.338417	1.429811
1.700	6.088872	6.553161	459.956342	6.482823	-15.635783	-0.039116	3.399406	1.409443
1.710	6.199958	6.519119	462.058555	6.395824	-15.940612	-0.032176	3.449912	1.384202
1.720	6.294224	6.484336	464.646266	6.291867	-16.224602	-0.025793	3.491818	1.354120
1.730	6.355888	6.454217	467.617367	6.168791	-16.494040	-0.021053	3.527251	1.319196
1.740	6.372649	6.428819	470.859379	6.024451	-16.755825	-0.018851	3.558563	1.279459
1.750	6.342162	6.402056	474.248356	5.856949	-17.017468	-0.019621	3.588303	1.234996
1.760	6.276280	6.362944	477.642697	5.664705	-17.286455	-0.023225	3.619118	1.185971
1.770	6.200453	6.298743	480.876246	5.446472	-17.568909	-0.028990	3.653520	1.132614
1.780	6.147546	6.198761	483.759342	5.201527	-17.868035	-0.035829	3.693579	1.075230
1.790	6.147966	6.057134	486.094760	4.930180	-18.183192	-0.042487	3.740668	1.014243
1.800	6.220066	5.873506	487.708067	4.634423	-18.510247	-0.047911	3.795354	0.950245
1.810	6.364897	5.651872	488.483633	4.318276	-18.843255	-0.051644	3.857500	0.884016
1.820	6.567469	5.398858	488.392607	3.987399	-19.176745	-0.053994	3.926502	0.816433
1.830	6.803724	5.122603	487.500422	3.647871	-19.507548	-0.055837	4.001545	0.748281
1.840	7.050020	4.832324	485.949178	3.304527	-19.835329	-0.058164	4.081770	0.680015
1.850	7.291155	4.537951	483.921482	2.959543	-20.161733	-0.061660	4.166323	0.611575
1.860	7.524004	4.249236	481.601056	2.611881	-20.488767	-0.066559	4.254303	0.542333
1.870	7.755867	3.974252	479.145918	2.257890	-20.817335	-0.072791	4.344675	0.471232
1.880	7.998801	3.717576	476.681397	1.892851	-21.146542	-0.080225	4.436200	0.397089
1.890	8.262546	3.478741	474.308173	1.512846	-21.473876	-0.088816	4.527410	0.318958
1.900	8.548860	3.251689	472.113833	1.116116	-21.795950	-0.098566	4.616673	0.236408
1.910	8.849202	3.025680	470.178952	0.703506	-22.109418	-0.109375	4.702341	0.149625
1.920	9.146326	2.787598	468.576049	0.278120	-22.411740	-0.120935	4.782946	0.059354
1.930	9.419091	2.525192	467.364608	-0.155350	-22.701612	-0.132716	4.857367	-0.033240
1.940	9.648837	2.230511	466.585444	-0.591402	-22.979022	-0.144058	4.924933	-0.126751
1.950	9.825170	1.902759	466.255911	-1.024622	-23.245028	-0.154289	4.985466	-0.219755
1.960	9.949149	1.549816	466.366807	-1.450632	-23.501360	-0.162828	5.039244	-0.311050
1.970	10.032772	1.187803	466.881884	-1.866781	-23.749853	-0.169289	5.086908	-0.399840
1.980	10.094998	0.838271	467.739640	-2.272217	-23.991730	-0.173568	5.129291	-0.485787
1.990	10.155879	0.523300	468.855144	-2.667396	-24.226794	-0.175819	5.167224	-0.568917
2.000	10.231030	0.259726	470.120080	-3.053280	-24.452637	-0.176299	5.201360	-0.649468
2.010	10.328317	0.054359	471.402701	-3.430510	-24.663983	-0.175114	5.232041	-0.727724
2.020	10.447214	-0.098067	472.552476	-3.798603	-24.852514	-0.172049	5.259207	-0.803848
2.030	10.579869	-0.213286	473.413818	-4.155338	-25.007529	-0.166618	5.282383	-0.877739
2.040	10.712680	-0.312563	473.849489	-4.496607	-25.117604	-0.158356	5.300756	-0.948953
2.050	10.828056	-0.416098	473.768835	-4.816998	-25.172888	-0.147202	5.313327	-1.016740
2.060	10.906730	-0.537292	473.152169	-5.111010	-25.167356	-0.133740	5.319083	-1.080204
2.070	10.930976	-0.680058	472.062813	-5.374433	-25.100358	-0.119191	5.317165	-1.138500
2.080	10.888403	-0.839701	470.641981	-5.605286	-24.977126	-0.105208	5.307033	-1.190987
2.090	10.775291	-1.005980	469.086022	-5.803902	-24.808068	-0.093591	5.288597	-1.237279
2.100	10.597990	-1.166219	467.610403	-5.972189	-24.606883	-0.085948	5.262262	-1.277172
2.110	10.371210	-1.307392	466.409799	-6.112445	-24.387821	-0.083358	5.228840	-1.310531
2.120	10.113285	-1.417640	465.626339	-6.226402	-24.162874	-0.086099	5.189327	-1.337210
2.130	9.840205	-1.488048	465.335422	-6.315070	-23.939848	-0.093583	5.144643	-1.357101
2.140	9.561295	-1.514533	465.550857	-6.379522	-23.721895	-0.104552	5.095446	-1.370317
2.150	9.278886	-1.498730	466.242048	-6.422236	-23.508379	-0.117430	5.042098	-1.377447
2.160	8.992023	-1.447092	467.351294	-6.448137	-23.296408	-0.130665	4.984774	-1.379720
2.170	8.701505	-1.368671	468.802661	-6.464546	-23.082258	-0.142936	4.923662	-1.378948
2.180	8.412569	-1.272951	470.503020	-6.479666	-22.862355	-0.153226	4.859130	-1.377178
2.190	8.133389	-1.168861	472.342463	-6.500026	-22.633907	-0.160846	4.791842	-1.376126
2.200	7.870865	-1.065036	474.199899	-6.527852	-22.395378	-0.165415	4.722772	-1.376603
2.210	7.627177	-0.970363	475.952405	-6.559492	-22.146669	-0.166829	4.653127	-1.378182
2.220	7.399475	-0.893555	477.482036	-6.585606	-21.888622	-0.165233	4.584177	-1.379236
2.230	7.181961	-0.841194	478.676775	-6.593178	-21.621752	-0.161091	4.516984	-1.377376
2.240	6.967630	-0.814879	479.430748	-6.568694	-21.344804	-0.155318	4.452114	-1.370103
2.250	6.748000	-0.808885	479.654366	-6.501442	-21.054230	-0.149345	4.389459	-1.355443
2.260	6.512088	-0.809670	479.301352	-6.386087	-20.745387	-0.144930	4.328255	-1.332374
2.270	6.247454	-0.797660	478.407581	-6.224065	-20.415417	-0.143653	4.267369	-1.300996
2.280	5.944894	-0.750818	477.123651	-6.023541	-20.066770	-0.146287	4.205780	-1.262470
2.290	5.605260	-0.648972	475.718071	-5.797898	-19.709707	-0.152352	4.143149	-1.218768
2.300	5.244381	-0.478077	474.536400	-5.562994	-19.362287	-0.160111	4.080253	-1.172301
2.310	4.892031	-0.233919	473.921050	-5.333904	-19.047222	-0.167027	4.019071	-1.125484
2.320	4.583905	0.075277	474.116898	-5.122176	-18.786363	-0.170478	3.962391	-1.080361
2.330	4.349818	0.428232	475.197928	-4.934465	-18.594782	-0.168464	3.913060	-1.038402
2.340	4.203846	0.792988	477.043704	-4.772731	-18.476744	-0.160127	3.873176	-1.000481
2.350	4.141042	1.132563	479.374371	-4.635261	-18.425096	-0.145957	3.843571	-0.966940
2.360	4.141625	1.412932	481.829166	-4.517550	-18.424164	-0.127665	3.823796	-0.937583
2.370	4.180149	1.611209	484.057663	-4.412673	-18.454969	-0.107740	3.812556	-0.911601
2.380	4.235740	1.721489	485.792013	-4.311704	-18.500889	-0.088809	3.808397	-0.887562
2.390	4.299874	1.756318	486.881043	-4.204917	-18.551849	-0.073042	3.810345	-0.863644
2.400	4.379259	1.743035	487.284873	-4.083953	-18.605770	-0.061793	3.818253	-0.838104
