Time[s]	Fx[N]	Fy[N]	Fz[N]	Mx[Nm]	My[Nm]	Mz[Nm]	COPx[cm]	COPy[cm]
0.010	12.191949	-1.050894	677.941220	7.006296	1.386393	-1.885139	-0.204500	1.033467
0.020	12.022239	-1.108381	676.760010	7.116178	1.377528	-1.862140	-0.203547	1.051507
0.030	11.901142	-1.156703	675.710790	7.226292	1.372097	-1.840509	-0.203060	1.069436
0.040	11.859323	-1.186008	674.904897	7.336511	1.374182	-1.821355	-0.203611	1.087044
0.050	11.899620	-1.189073	674.415732	7.445666	1.388431	-1.805128	-0.205872	1.104017
0.060	11.994527	-1.164105	674.269208	7.551245	1.419918	-1.791389	-0.210586	1.119915
0.070	12.093910	-1.116765	674.442378	7.649470	1.473636	-1.778870	-0.218497	1.134192
0.080	12.140753	-1.059740	674.870649	7.735842	1.553637	-1.765927	-0.230213	1.146270
0.090	12.089664	-1.009586	675.462586	7.805983	1.662098	-1.751277	-0.246068	1.155650
0.100	11.921893	-0.982225	676.118794	7.856478	1.798560	-1.734679	-0.266012	1.161997
0.110	11.652099	-0.988929	676.749624	7.885490	1.959583	-1.717232	-0.289558	1.165200
0.120	11.324889	-1.033855	677.286994	7.893156	2.138954	-1.701124	-0.315812	1.165408
0.130	11.002086	-1.113235	677.688510	7.881812	2.328638	-1.688976	-0.343615	1.163043
0.140	10.744229	-1.216098	677.935499	7.855902	2.520487	-1.683118	-0.371789	1.158798
0.150	10.591608	-1.326423	678.028195	7.821444	2.708427	-1.685088	-0.399456	1.153557
0.160	10.550809	-1.426556	677.980551	7.785008	2.890444	-1.695437	-0.426331	1.148264
0.170	10.591636	-1.501399	677.815720	7.752454	3.069548	-1.713753	-0.452859	1.143741
0.180	10.656254	-1.542320	677.562337	7.727797	3.252965	-1.738659	-0.480098	1.140529
0.190	10.678174	-1.549331	677.251825	7.712583	3.449411	-1.767705	-0.509325	1.138806
0.200	10.604852	-1.530505	676.917274	7.705881	3.665224	-1.797234	-0.541458	1.138379
0.210	10.415799	-1.498886	676.594367	7.704881	3.900974	-1.822545	-0.576560	1.138774
0.220	10.129215	-1.468269	676.323355	7.705905	4.150208	-1.838626	-0.613643	1.139382
0.230	9.794535	-1.449364	676.148594	7.705571	4.400941	-1.841468	-0.650884	1.139627
0.240	9.474074	-1.447288	676.111357	7.701680	4.639167	-1.829494	-0.686154	1.139114
0.250	9.221392	-1.460832	676.235576	7.693389	4.852727	-1.804361	-0.717609	1.137679
0.260	9.064889	-1.483679	676.512990	7.680534	5.034022	-1.770571	-0.744113	1.135312
0.270	9.002410	-1.507347	676.897520	7.662499	5.180815	-1.733969	-0.765377	1.132003
0.280	9.007724	-1.524959	677.314503	7.637326	5.295262	-1.699805	-0.781803	1.127589
0.290	9.045046	-1.534296	677.681779	7.601648	5.381963	-1.671327	-0.794173	1.121714
0.300	9.084850	-1.538624	677.933268	7.551644	5.445979	-1.649500	-0.803321	1.113921
0.310	9.114156	-1.544828	678.035463	7.484656	5.491658	-1.633886	-0.809937	1.103874
0.320	9.137135	-1.559875	677.992116	7.400719	5.522714	-1.624099	-0.814569	1.091564
0.330	9.166394	-1.587508	677.838100	7.303074	5.543428	-1.620937	-0.817810	1.077407
0.340	9.209892	-1.626823	677.626526	7.197206	5.560192	-1.626495	-0.820539	1.062120
0.350	9.260788	-1.673239	677.413250	7.088828	5.582218	-1.643146	-0.824049	1.046456
0.360	9.295963	-1.721064	677.242046	6.981946	5.620556	-1.671979	-0.829918	1.030938
0.370	9.284240	-1.766196	677.133535	6.878080	5.685509	-1.711560	-0.839644	1.015764
0.380	9.200057	-1.807754	677.080916	6.776903	5.783434	-1.757666	-0.854172	1.000900
0.390	9.035546	-1.848289	677.054297	6.677675	5.914337	-1.804039	-0.873540	0.986284
0.400	8.805080	-1.892869	677.012765	6.580533	6.071269	-1.843792	-0.896773	0.971995
0.410	8.540549	-1.947415	676.920538	6.486900	6.241727	-1.870981	-0.922077	0.958296
0.420	8.280406	-2.016618	676.762119	6.398847	6.410406	-1.881906	-0.947217	0.945509
0.430	8.058065	-2.101967	676.551586	6.317803	6.562246	-1.875862	-0.969955	0.933824
0.440	7.894472	-2.200613	676.332674	6.243370	6.684910	-1.855177	-0.988406	0.923121
0.450	7.796715	-2.305531	676.168955	6.172971	6.770272	-1.824558	-1.001269	0.912933
0.460	7.761627	-2.406881	676.126336	6.102548	6.814830	-1.789941	-1.007923	0.902575
0.470	7.781699	-2.494160	676.252211	6.027930	6.819130	-1.757151	-1.008371	0.891373
0.480	7.850547	-2.558783	676.556989	5.946157	6.786496	-1.730674	-1.003093	0.878885
0.490	7.965841	-2.596605	677.004445	5.856180	6.721696	-1.712789	-0.992858	0.865013
0.500	8.128391	-2.609576	677.516033	5.758686	6.630093	-1.703244	-0.978588	0.849970
0.510	8.337357	-2.605618	677.989585	5.655251	6.517456	-1.699595	-0.961291	0.834121
0.520	8.583702	-2.596490	678.326667	5.547401	6.390027	-1.698201	-0.942028	0.817807
0.530	8.845875	-2.594448	678.459040	5.436215	6.254384	-1.695619	-0.921851	0.801259
0.540	9.091485	-2.609081	678.365430	5.322611	6.116907	-1.689984	-0.901713	0.784623
0.550	9.285772	-2.645317	678.074076	5.207875	5.983107	-1.681803	-0.882368	0.768039
0.560	9.403719	-2.702890	677.651471	5.093915	5.857150	-1.673801	-0.864331	0.751701
0.570	9.440095	-2.777259	677.181708	4.983058	5.741805	-1.669801	-0.847897	0.735852
0.580	9.412268	-2.861598	676.743439	4.877520	5.638747	-1.673109	-0.833218	0.720734
0.590	9.353895	-2.949014	676.391942	4.778794	5.549046	-1.685062	-0.820389	0.706512
0.600	9.302109	-3.034013	676.151518	4.687210	5.473647	-1.704313	-0.809530	0.693219
0.610	9.283978	-3.112815	676.018843	4.601945	5.413636	-1.727115	-0.800811	0.680742
0.620	9.308115	-3.182844	675.973277	4.521447	5.370110	-1.748469	-0.794426	0.668880
0.630	9.364391	-3.242262	675.988006	4.443954	5.343429	-1.763710	-0.790462	0.657401
0.640	9.430949	-3.290288	676.037302	4.367688	5.331934	-1.769963	-0.788704	0.646072
0.650	9.485169	-3.328391	676.098743	4.290686	5.330583	-1.766948	-0.788433	0.634624
0.660	9.514469	-3.361459	676.152648	4.210521	5.330334	-1.756847	-0.788333	0.622718
0.670	9.523308	-3.397649	676.182624	4.124305	5.318992	-1.743278	-0.786621	0.609940
0.680	9.534035	-3.446260	676.180168	4.029235	5.283770	-1.729850	-0.781414	0.595882
0.690	9.580986	-3.514184	676.152650	3.923652	5.214975	-1.718951	-0.771272	0.580291
0.700	9.699385	-3.602538	676.129573	3.808140	5.109542	-1.711310	-0.755705	0.563226
0.710	9.912406	-3.705151	676.160440	3.686030	4.972986	-1.706423	-0.735474	0.545141
0.720	10.220760	-3.809879	676.301309	3.562875	4.818897	-1.703461	-0.712537	0.526818
0.730	10.598593	-3.902486	676.593778	3.445048	4.666016	-1.702110	-0.689633	0.509175
0.740	10.997363	-3.971800	677.045035	3.338036	4.533978	-1.702936	-0.669672	0.493030
0.750	11.356612	-4.014219	677.617608	3.245238	4.439187	-1.707131	-0.655117	0.478919
0.760	11.618651	-4.035591	678.233358	3.167831	4.391971	-1.715816	-0.647560	0.467071
0.770	11.743328	-4.049235	678.790584	3.105622	4.395529	-1.729224	-0.647553	0.457523
0.780	11.718879	-4.070368	679.188554	3.058200	4.446607	-1.746204	-0.654694	0.450273
0.790	11.565239	-4.109026	679.351828	3.025637	4.537536	-1.764359	-0.667921	0.445371
0.800	11.328031	-4.164642	679.247857	3.008317	4.659001	-1.780805	-0.685906	0.442889
0.810	11.064611	-4.224967	678.894212	3.006039	4.802856	-1.793248	-0.707453	0.442785
0.820	10.826673	-4.269956	678.354802	3.016802	4.964395	-1.800953	-0.731829	0.444723
0.830	10.644981	-4.278973	677.726319	3.035943	5.143671	-1.805215	-0.758960	0.447960
0.840	10.520890	-4.238313	677.117507	3.056231	5.345629	-1.809105	-0.789468	0.451359
0.850	10.426968	-4.146208	676.625176	3.069242	5.579027	-1.816519	-0.824537	0.453610
0.860	10.316289	-4.013718	676.311891	3.067715	5.854320	-1.830870	-0.865624	0.453595
0.870	10.137476	-3.861557	676.190614	3.048066	6.180850	-1.853860	-0.914069	0.450770
0.880	9.851308	-3.714141	676.221496	3.012058	6.563752	-1.884724	-0.970651	0.445425
0.890	9.444560	-3.592819	676.323883	2.966904	7.001171	-1.920155	-1.035180	0.438681
0.900	8.937203	-3.510509	676.401277	2.923652	7.482620	-1.954953	-1.106240	0.432236
0.910	8.380094	-3.469511	676.371015	2.894240	7.989349	-1.983276	-1.181208	0.427907
0.920	7.842706	-3.462862	676.188412	2.888105	8.497151	-2.000216	-1.256625	0.427115
0.930	7.394158	-3.477919	675.858800	2.909453	8.981172	-2.003239	-1.328853	0.430482
0.940	7.084017	-3.500311	675.436668	2.956269	9.421451	-1.992964	-1.394868	0.437683
0.950	6.929629	-3.517342	675.014362	3.021528	9.807469	-1.972888	-1.452927	0.447624
0.960	6.913825	-3.520966	674.702734	3.095985	10.140166	-1.948105	-1.502909	0.458866
0.970	6.992509	-3.510358	674.606140	3.171065	10.430619	-1.923499	-1.546179	0.470062
0.980	7.108412	-3.493205	674.796077	3.240405	10.695713	-1.902209	-1.585029	0.480205
0.990	7.206070	-3.484248	675.289846	3.299568	10.952278	-1.884927	-1.621863	0.488615
1.000	7.243891	-3.500350	676.040164	3.344678	11.211796	-1.870239	-1.658451	0.494746
1.010	7.200940	-3.553227	676.938876	3.371265	11.477540	-1.855738	-1.695506	0.498016
1.020	7.077926	-3.642839	677.835270	3.374337	11.744936	-1.839417	-1.732712	0.497811
1.030	6.893223	-3.755076	678.567051	3.349766	12.004520	-1.820816	-1.769099	0.493653
1.040	6.675594	-3.865763	678.997640	3.296184	12.245847	-1.801598	-1.803518	0.485448
1.050	6.455903	-3.950005	679.048702	3.216357	12.460561	-1.785446	-1.835003	0.473656
1.060	6.260052	-3.992928	678.717007	3.117273	12.643602	-1.777215	-1.862868	0.459289
1.070	6.104620	-3.996645	678.071869	3.008821	12.792693	-1.781435	-1.886628	0.443732
1.080	5.995880	-3.979707	677.237798	2.901594	12.907117	-1.800566	-1.905847	0.428445
1.090	5.932221	-3.968874	676.369993	2.804653	12.986934	-1.833761	-1.920093	0.414663
1.100	5.908953	-3.986934	675.627788	2.724018	13.033209	-1.876829	-1.929052	0.403183
1.110	5.922940	-4.042413	675.148041	2.662194	13.049037	-1.923495	-1.932767	0.394313
1.120	5.974188	-4.125873	675.020226	2.618626	13.040548	-1.967337	-1.931875	0.387933
1.130	6.063332	-4.214009	675.266995	2.590788	13.016943	-2.003464	-1.927674	0.383669
1.140	6.186802	-4.278943	675.836060	2.575626	12.988998	-2.029217	-1.921915	0.381102
1.150	6.333074	-4.298357	676.608762	2.571036	12.966186	-2.043858	-1.916349	0.379989
1.160	6.482844	-4.262722	677.426183	2.576904	12.953316	-2.047737	-1.912137	0.380396
1.170	6.614007	-4.177710	678.126620	2.595297	12.947988	-2.041591	-1.909376	0.382716
1.180	6.710005	-4.061622	678.583316	2.629713	12.940111	-2.026315	-1.906930	0.387530
1.190	6.768152	-3.938824	678.731453	2.683747	12.914085	-2.003137	-1.902680	0.395406
1.200	6.803812	-3.831247	678.578024	2.759704	12.853177	-1.973833	-1.894134	0.406689
1.210	6.847512	-3.750989	678.193769	2.857443	12.744683	-1.940607	-1.879210	0.421331
1.220	6.934966	-3.697009	677.690774	2.973567	12.583952	-1.905555	-1.856887	0.438779
1.230	7.093358	-3.657392	677.192075	3.101185	12.375579	-1.870006	-1.827484	0.457948
1.240	7.329698	-3.616055	676.801136	3.230625	12.131120	-1.834223	-1.792420	0.477337
1.250	7.627279	-3.560797	676.579106	3.351276	11.864160	-1.797657	-1.753551	0.495327
1.260	7.953114	-3.489077	676.536031	3.454147	11.584659	-1.759653	-1.712349	0.510564
1.270	8.273554	-3.408997	676.638276	3.534224	11.294802	-1.720229	-1.669253	0.522321
1.280	8.570364	-3.335095	676.828713	3.591695	10.987963	-1.680584	-1.623448	0.530665
1.290	8.848794	-3.280923	677.050983	3.631537	10.651299	-1.643127	-1.573190	0.536376
1.300	9.133479	-3.251893	677.267872	3.661677	10.271153	-1.611032	-1.516557	0.540654
1.310	9.454435	-3.241757	677.467575	3.690479	9.839353	-1.587519	-1.452373	0.544746
1.320	9.830212	-3.234505	677.657651	3.724454	9.357975	-1.575156	-1.380930	0.549607
1.330	10.256206	-3.210989	677.851037	3.766913	8.840669	-1.575304	-1.304220	0.555714
1.340	10.703516	-3.157412	678.050588	3.817822	8.309948	-1.587773	-1.225565	0.563059
1.350	11.128914	-3.071799	678.238828	3.874768	7.791491	-1.610678	-1.148783	0.571298
1.360	11.491282	-2.965387	678.377845	3.934630	7.307767	-1.640613	-1.077241	0.580006
1.370	11.766791	-2.858302	678.420300	3.995301	6.873531	-1.673182	-1.013167	0.588912
1.380	11.955743	-2.771570	678.327524	4.056844	6.494829	-1.703808	-0.957477	0.598066
1.390	12.078259	-2.719046	678.087186	4.121623	6.171561	-1.728617	-0.910143	0.607831
1.400	12.161370	-2.702586	677.722479	4.193296	5.901980	-1.745205	-0.870855	0.618734
1.410	12.224124	-2.712172	677.288323	4.275034	5.686769	-1.753117	-0.839638	0.631199
1.420	12.267943	-2.730512	676.856586	4.367783	5.530823	-1.753957	-0.817134	0.645304
1.430	12.276608	-2.739888	676.497397	4.469546	5.442247	-1.751058	-0.804474	0.660689
1.440	12.225367	-2.728266	676.263443	4.576155	5.429571	-1.748782	-0.802878	0.676682
1.450	12.094166	-2.692262	676.180269	4.683173	5.498845	-1.751638	-0.813222	0.692592
1.460	11.878195	-2.636179	676.242544	4.787884	5.651991	-1.763481	-0.835794	0.708013
1.470	11.590553	-2.568209	676.415668	4.890242	5.886889	-1.786981	-0.870306	0.722964
1.480	11.255988	-2.496035	676.642255	4.992214	6.198686	-1.823347	-0.916095	0.737792
1.490	10.899198	-2.424120	676.852654	5.095843	6.581421	-1.872142	-0.972357	0.752873
1.500	10.533770	-2.353927	676.978182	5.201026	7.029137	-1.931051	-1.038311	0.768271
1.510	10.157104	-2.286674	676.965611	5.304129	7.536197	-1.995706	-1.113232	0.783515
1.520	9.753116	-2.226632	676.790846	5.398079	8.097083	-2.059858	-1.196394	0.797599
1.530	9.300517	-2.182601	676.467964	5.473978	8.706094	-2.116182	-1.286993	0.809200
1.540	8.782504	-2.166115	676.048773	5.523681	9.357065	-2.157699	-1.384081	0.817054
1.550	8.194445	-2.186814	675.610464	5.542305	10.042823	-2.179412	-1.486481	0.820340
1.560	7.547973	-2.247225	675.234483	5.529647	10.754110	-2.179469	-1.592648	0.818922
1.570	6.871099	-2.340074	674.984540	5.490018	11.478273	-2.159468	-1.700524	0.813355
1.580	6.204164	-2.450102	674.892091	5.430881	12.198584	-2.123961	-1.807487	0.804704
1.590	5.591954	-2.559688	674.953467	5.361123	12.895130	-2.079573	-1.910521	0.794295
1.600	5.073550	-2.655090	675.136935	5.289621	13.547516	-2.034074	-2.006632	0.783489
1.610	4.672817	-2.729911	675.394027	5.224173	14.138727	-1.995469	-2.093404	0.773500
1.620	4.392792	-2.784591	675.669694	5.170523	14.658707	-1.970903	-2.169508	0.765244
1.630	4.216137	-2.823348	675.909726	5.131388	15.106158	-1.965310	-2.234937	0.759182
1.640	4.111663	-2.851084	676.067706	5.105835	15.487621	-1.980124	-2.290839	0.755225
1.650	4.044313	-2.871763	676.113773	5.089575	15.814065	-2.012673	-2.338965	0.752769
1.660	3.984897	-2.888012	676.043820	5.076372	16.096182	-2.056711	-2.380938	0.750894
1.670	3.916918	-2.900884	675.884645	5.060127	16.340163	-2.103997	-2.417596	0.748667
1.680	3.839847	-2.909262	675.691446	5.036860	16.545465	-2.146306	-2.448672	0.745438
1.690	3.768972	-2.909519	675.537883	5.005877	16.705314	-2.177132	-2.472891	0.741021
1.700	3.731532	-2.896405	675.501725	4.969792	16.809586	-2.192604	-2.488459	0.735719
1.710	3.758925	-2.865489	675.648821	4.933512	16.848774	-2.191502	-2.493718	0.730189
1.720	3.876531	-2.816236	676.016429	4.902707	16.817346	-2.174628	-2.487713	0.725235
1.730	4.094698	-2.754016	676.597261	4.882494	16.715117	-2.143941	-2.470468	0.721625
1.740	4.404899	-2.689527	677.328806	4.876863	16.546106	-2.101925	-2.442847	0.720014
1.750	4.783085	-2.635354	678.095225	4.888814	16.315487	-2.051411	-2.406076	0.720963
1.760	5.198725	-2.600843	678.746996	4.920738	16.026143	-1.995801	-2.361136	0.724974
1.770	5.625413	-2.587564	679.136561	4.974415	15.676525	-1.939321	-2.308302	0.732462
1.780	6.048662	-2.587680	679.160703	5.050235	15.260865	-1.886875	-2.247018	0.743599
1.790	6.468602	-2.586589	678.796310	5.145908	14.771678	-1.843212	-2.176158	0.758093
1.800	6.897665	-2.569194	678.116790	5.255488	14.203549	-1.811586	-2.094558	0.775012
1.810	7.354837	-2.526857	677.281292	5.369635	13.556748	-1.792555	-2.001642	0.792822
1.820	7.858558	-2.461301	676.497488	5.477398	12.839313	-1.783674	-1.897910	0.809670
1.830	8.420187	-2.383316	675.968325	5.569048	12.066894	-1.780430	-1.785127	0.823862
1.840	9.039434	-2.307260	675.839373	5.638975	11.260371	-1.778096	-1.666131	0.834366
1.850	9.702691	-2.244739	676.162693	5.687469	10.442074	-1.773611	-1.544314	0.841139
1.860	10.384951	-2.200944	676.886586	5.720558	9.631849	-1.766640	-1.422964	0.845128
1.870	11.055334	-2.175107	677.872053	5.747826	8.844300	-1.759356	-1.304715	0.847922
1.880	11.684762	-2.163954	678.929894	5.779052	8.088068	-1.755139	-1.191297	0.851200
1.890	12.252564	-2.165367	679.867487	5.820979	7.367224	-1.756840	-1.083626	0.856193
1.900	12.748695	-2.179796	680.531618	5.875379	6.683944	-1.765379	-0.982165	0.863351
1.910	13.170614	-2.208731	680.835263	5.938918	6.041212	-1.779282	-0.887324	0.872299
1.920	13.517086	-2.251625	680.763263	6.004576	5.444449	-1.795258	-0.799757	0.882036
1.930	13.782835	-2.303489	680.360828	6.063892	4.901656	-1.809463	-0.720449	0.891276
1.940	13.957160	-2.354881	679.713471	6.109212	4.422334	-1.818854	-0.650617	0.898792
1.950	14.027497	-2.394549	678.925424	6.135314	4.015819	-1.822159	-0.591496	0.903680
1.960	13.986596	-2.413406	678.100086	6.140168	3.689720	-1.820277	-0.544126	0.905496
1.970	13.840076	-2.407709	677.324668	6.124894	3.448960	-1.816081	-0.509203	0.904277
1.980	13.610401	-2.379840	676.660848	6.093182	3.295583	-1.813710	-0.487036	0.900478
1.990	13.334388	-2.336536	676.141815	6.050353	3.229052	-1.817519	-0.477570	0.894835
2.000	13.054299	-2.285776	675.774160	6.002195	3.246613	-1.830869	-0.480429	0.888195
2.010	12.805651	-2.234066	675.542623	5.953605	3.343427	-1.854979	-0.494925	0.881307
2.020	12.606454	-2.185513	675.416644	5.907143	3.512522	-1.888073	-0.520053	0.874592
2.030	12.451910	-2.143096	675.358367	5.861831	3.744861	-1.925140	-0.554500	0.867959
2.040	12.316473	-2.111172	675.331080	5.812804	4.029742	-1.958660	-0.596706	0.860734
2.050	12.162630	-2.097255	675.306209	5.752315	4.355491	-1.980394	-0.644965	0.851808
2.060	11.953804	-2.111426	675.267777	5.672085	4.710187	-1.983846	-0.697529	0.839976
2.070	11.667475	-2.163281	675.215019	5.566392	5.082153	-1.966562	-0.752672	0.824388
2.080	11.304232	-2.257987	675.163906	5.434866	5.460264	-1.931290	-0.808732	0.804970
2.090	10.889377	-2.393501	675.146262	5.283861	5.834316	-1.885466	-0.864156	0.782625
2.100	10.466142	-2.560182	675.203782	5.125617	6.195623	-1.839137	-0.917593	0.759122
2.110	10.082787	-2.742649	675.376056	4.975237	6.537649	-1.802077	-0.968001	0.736662
2.120	9.778512	-2.922684	675.685550	4.846493	6.856326	-1.781095	-1.014721	0.717270
2.130	9.573683	-3.081932	676.125142	4.748132	7.149928	-1.778427	-1.057486	0.702256
2.140	9.467594	-3.203992	676.653756	4.682159	7.418724	-1.791618	-1.096384	0.691958
2.150	9.443222	-3.276422	677.203216	4.644615	7.664709	-1.814796	-1.131818	0.685853
2.160	9.475375	-3.293117	677.695486	4.628138	7.891556	-1.840756	-1.164469	0.682923
2.170	9.537898	-3.256389	678.064595	4.624834	8.104613	-1.863061	-1.195257	0.682064
2.180	9.607206	-3.177231	678.274662	4.628294	8.310679	-1.877417	-1.225268	0.682363
2.190	9.661994	-3.072946	678.327083	4.634313	8.517342	-1.882007	-1.255639	0.683197
2.200	9.681327	-2.962954	678.255378	4.640565	8.731814	-1.876965	-1.287393	0.684191
2.210	9.644122	-2.864701	678.111492	4.645741	8.959496	-1.863514	-1.321242	0.685100
2.220	9.532198	-2.791142	677.949562	4.648694	9.202555	-1.843246	-1.357410	0.685699
2.230	9.336745	-2.750019	677.811902	4.648059	9.458866	-1.817811	-1.395500	0.685745
2.240	9.065603	-2.744049	677.719605	4.642523	9.721652	-1.788962	-1.434465	0.685021
2.250	8.747240	-2.770968	677.668980	4.631544	9.980227	-1.758776	-1.472729	0.683452
2.260	8.427871	-2.823148	677.635065	4.616096	10.222091	-1.729835	-1.508495	0.681207
2.270	8.160814	-2.887583	677.582563	4.598869	10.436232	-1.705228	-1.540215	0.678717
2.280	7.990756	-2.947447	677.481531	4.583583	10.616802	-1.688359	-1.567098	0.676562
2.290	7.938399	-2.985753	677.321771	4.573472	10.765824	-1.682579	-1.589470	0.675229
2.300	7.991634	-2.990284	677.119177	4.569550	10.893431	-1.690601	-1.608791	0.674852
2.310	8.107529	-2.957884	676.910521	4.569477	11.014982	-1.713707	-1.627243	0.675049
2.320	8.225452	-2.896268	676.738655	4.567617	11.145783	-1.750862	-1.646985	0.674945
2.330	8.287123	-2.822458	676.634932	4.556381	11.295476	-1.798164	-1.669361	0.673388
2.340	8.256214	-2.758139	676.606931	4.528529	11.464410	-1.849103	-1.694397	0.669300
2.350	8.129931	-2.723232	676.636713	4.479721	11.643417	-1.895778	-1.720778	0.662057
2.360	7.938155	-2.729801	676.689501	4.410380	11.816913	-1.930749	-1.746283	0.651758
2.370	7.730802	-2.778526	676.728029	4.326017	11.967869	-1.948823	-1.768490	0.639255
2.380	7.558856	-2.859074	676.726088	4.235654	12.082779	-1.948208	-1.785476	0.625904
