Time[s]	Fx[N]	Fy[N]	Fz[N]	Mx[Nm]	My[Nm]	Mz[Nm]	COPx[cm]	COPy[cm]
0.010	10.857841	5.888141	682.067232	12.433452	-5.013023	-0.615446	0.734975	1.822907
0.020	10.687305	5.329251	682.245963	11.787222	-4.686876	-0.559623	0.686977	1.727709
0.030	10.489815	4.792975	682.595007	11.128572	-4.336461	-0.503258	0.635290	1.630333
0.040	10.240341	4.293016	683.256906	10.445740	-3.941462	-0.445921	0.576864	1.528816
0.050	9.916000	3.824299	684.332352	9.727093	-3.487524	-0.387451	0.509624	1.421399
0.060	9.498520	3.361192	685.875928	8.962709	-2.968430	-0.328375	0.432794	1.306754
0.070	8.975983	2.862288	687.897600	8.146050	-2.386916	-0.270220	0.346987	1.184195
0.080	8.343083	2.280075	690.363176	7.275164	-1.753815	-0.215444	0.254042	1.053817
0.090	7.600759	1.572317	693.191917	6.353179	-1.085735	-0.166969	0.156628	0.916511
0.100	6.756828	0.712311	696.255165	5.388110	-0.401992	-0.127524	0.057736	0.773870
0.110	5.828209	-0.303630	699.381439	4.392065	0.278360	-0.099132	-0.039801	0.627993
0.120	4.843504	-1.452539	702.370756	3.379740	0.938756	-0.082940	-0.133655	0.481190
0.130	3.843589	-2.686012	705.017178	2.366203	1.566263	-0.079327	-0.222160	0.335624
0.140	2.878463	-3.936834	707.135979	1.364546	2.151692	-0.088087	-0.304283	0.192968
0.150	2.000615	-5.130173	708.590465	0.384413	2.688930	-0.108523	-0.379476	0.054250
0.160	1.257313	-6.196533	709.312821	-0.567753	3.173870	-0.139465	-0.447457	-0.080043
0.170	0.684739	-7.082741	709.313386	-1.486891	3.603348	-0.179306	-0.508005	-0.209624
0.180	0.305184	-7.758129	708.674136	-2.367017	3.974620	-0.226093	-0.560853	-0.334006
0.190	0.126128	-8.215270	707.526069	-3.199749	4.285750	-0.277637	-0.605737	-0.452245
0.200	0.139194	-8.466488	706.016215	-3.974445	4.536907	-0.331603	-0.642607	-0.562940
0.210	0.318413	-8.538157	704.274801	-4.679801	4.732076	-0.385500	-0.671908	-0.664485
0.220	0.619321	-8.464728	702.393297	-5.306139	4.880464	-0.436574	-0.694833	-0.755437
0.230	0.981262	-8.284060	700.419449	-5.847600	4.997011	-0.481697	-0.713431	-0.834871
0.240	1.334425	-8.034929	698.368787	-6.303698	5.101709	-0.517386	-0.730518	-0.902632
0.250	1.611043	-7.756499	696.246635	-6.679964	5.217702	-0.540027	-0.749404	-0.959425
0.260	1.758094	-7.488432	694.072399	-6.987538	5.368305	-0.546264	-0.773450	-1.006745
0.270	1.747690	-7.269819	691.898992	-7.241592	5.573357	-0.533454	-0.805516	-1.046626
0.280	1.581657	-7.135514	689.822716	-7.458712	5.845674	-0.500155	-0.847417	-1.081251
0.290	1.288363	-7.109699	687.980675	-7.653846	6.188641	-0.446634	-0.899537	-1.112509
0.300	0.912266	-7.198315	686.534419	-7.837859	6.595856	-0.375259	-0.960747	-1.141656
0.310	0.499256	-7.383688	685.641964	-8.016585	7.053190	-0.290576	-1.028699	-1.169209
0.320	0.082692	-7.625221	685.425316	-8.191590	7.542742	-0.198913	-1.100447	-1.195110
0.330	-0.324842	-7.868247	685.943913	-8.362003	8.047256	-0.107433	-1.173165	-1.219051
0.340	-0.730846	-8.059308	687.183071	-8.526466	8.553317	-0.022828	-1.244693	-1.240785
0.350	-1.153652	-8.162461	689.060653	-8.684351	9.052249	0.050007	-1.313709	-1.260317
0.360	-1.608946	-8.170355	691.447799	-8.835979	9.538794	0.108887	-1.379539	-1.277895
0.370	-2.098483	-8.106122	694.194875	-8.982011	10.008518	0.154505	-1.441745	-1.293875
0.380	-2.606009	-8.015927	697.154322	-9.122507	10.455121	0.189786	-1.499685	-1.308535
0.390	-3.101037	-7.955403	700.195675	-9.256231	10.868649	0.218724	-1.552230	-1.321949
0.400	-3.546990	-7.974747	703.211228	-9.380654	11.235130	0.245172	-1.597689	-1.333974
0.410	-3.909004	-8.106658	706.112784	-9.492715	11.537655	0.271890	-1.633968	-1.344362
0.420	-4.158737	-8.359333	708.822075	-9.589965	11.758423	0.299967	-1.658868	-1.352944
0.430	-4.276536	-8.715046	711.259841	-9.671587	11.881111	0.328537	-1.670432	-1.359782
0.440	-4.252652	-9.134210	713.339408	-9.738876	11.892954	0.354833	-1.667222	-1.365251
0.450	-4.088378	-9.564546	714.968801	-9.794986	11.786165	0.374645	-1.648487	-1.369988
0.460	-3.796324	-9.953828	716.060962	-9.843986	11.558507	0.383247	-1.614179	-1.374741
0.470	-3.398269	-10.263017	716.546889	-9.889583	11.213041	0.376652	-1.564872	-1.380172
0.480	-2.919875	-10.475699	716.384246	-9.933964	10.757282	0.352933	-1.501608	-1.386681
0.490	-2.383683	-10.600492	715.556577	-9.977120	10.202325	0.313134	-1.425789	-1.394316
0.500	-1.803892	-10.665444	714.064353	-10.016845	9.562529	0.261395	-1.339169	-1.402793
0.510	-1.186628	-10.706473	711.914074	-10.049452	8.856116	0.204084	-1.243987	-1.411610
0.520	-0.536747	-10.754346	709.112290	-10.070918	8.106302	0.148145	-1.143162	-1.420215
0.530	0.132077	-10.825257	705.668975	-10.077872	7.341963	0.099253	-1.040426	-1.428130
0.540	0.790241	-10.918400	701.611857	-10.067929	6.596678	0.060445	-0.940218	-1.434971
0.550	1.393734	-11.020620	697.009847	-10.039365	5.905604	0.031748	-0.847277	-1.440348
0.560	1.895408	-11.114909	691.998724	-9.990534	5.300690	0.010868	-0.765997	-1.443721
0.570	2.261008	-11.188229	686.797871	-9.919547	4.805687	-0.005470	-0.699724	-1.444318
0.580	2.481192	-11.235426	681.707129	-9.824341	4.432686	-0.020196	-0.650233	-1.441138
0.590	2.572427	-11.258444	677.079409	-9.702903	4.181347	-0.035101	-0.617556	-1.433052
0.600	2.566293	-11.261733	673.274526	-9.553174	4.040836	-0.050709	-0.600177	-1.418912
0.610	2.493608	-11.245609	670.607676	-9.372378	3.993455	-0.066532	-0.595498	-1.397595
0.620	2.372365	-11.200153	669.307962	-9.155851	4.018583	-0.081424	-0.600409	-1.367958
0.630	2.205563	-11.102842	669.497551	-8.895844	4.095768	-0.093865	-0.611767	-1.328734
0.640	1.989207	-10.922124	671.192670	-8.580889	4.206396	-0.102263	-0.626705	-1.278454
0.650	1.725572	-10.626499	674.317716	-8.196130	4.334018	-0.105329	-0.642726	-1.215470
0.660	1.434436	-10.195894	678.718521	-7.724670	4.464004	-0.102469	-0.657711	-1.138126
0.670	1.155955	-9.630965	684.164206	-7.149659	4.583459	-0.094008	-0.669935	-1.045021
0.680	0.942424	-8.956746	690.337738	-6.456801	4.682077	-0.081078	-0.678230	-0.935310
0.690	0.841036	-8.218948	696.826638	-5.636965	4.753899	-0.065278	-0.682221	-0.808948
0.700	0.874120	-7.473155	703.130956	-4.688469	4.799027	-0.048310	-0.682523	-0.666799
0.710	1.025558	-6.769165	708.702875	-3.618379	4.824073	-0.031828	-0.680691	-0.510564
0.720	1.240825	-6.134821	713.021044	-2.442286	4.840448	-0.017532	-0.678865	-0.342526
0.730	1.443187	-5.565190	715.686172	-1.182484	4.860384	-0.007401	-0.679122	-0.165224
0.740	1.561477	-5.022064	716.510856	0.134849	4.891509	-0.003870	-0.682685	0.018820
0.750	1.558891	-4.445197	715.573941	1.482665	4.931649	-0.009699	-0.689188	0.207199
0.760	1.450480	-3.771872	713.219025	2.835594	4.965957	-0.027440	-0.696274	0.397577
0.770	1.301111	-2.958069	709.992688	4.171752	4.968026	-0.058639	-0.699729	0.587577
0.780	1.203871	-1.994138	706.534860	5.473703	4.905276	-0.103276	-0.694272	0.774725
0.790	1.247058	-0.910279	703.447769	6.728460	4.747165	-0.159885	-0.674843	0.956498
0.800	1.482367	0.229048	701.176726	7.926391	4.473588	-0.226347	-0.638012	1.130441
0.810	1.905817	1.339133	699.932307	9.059070	4.080810	-0.300764	-0.583029	1.294278
0.820	2.457586	2.332881	699.670474	10.116718	3.583174	-0.381733	-0.512123	1.445926
0.830	3.039767	3.137964	700.130910	11.086523	3.010162	-0.467802	-0.429943	1.583493
0.840	3.545324	3.710225	700.920037	11.953330	2.399621	-0.556617	-0.342353	1.705377
0.850	3.889054	4.041800	701.615780	12.703333	1.789020	-0.644535	-0.254986	1.810583
0.860	4.031807	4.163090	701.867253	13.329745	1.207147	-0.727211	-0.171991	1.899183
0.870	3.991580	4.137586	701.465817	13.837959	0.668617	-0.800979	-0.095317	1.972720
0.880	3.838387	4.049089	700.374644	14.247623	0.172609	-0.864310	-0.024645	2.034286
0.890	3.674204	3.983040	698.717316	14.590359	-0.294180	-0.918490	0.042103	2.088163
0.900	3.604039	4.006732	696.735907	14.903798	-0.751810	-0.967126	0.107905	2.139089
0.910	3.707706	4.154916	694.732371	15.223924	-1.220714	-1.014735	0.175710	2.191337
0.920	4.021596	4.425784	693.005802	15.578023	-1.716507	-1.065058	0.247690	2.247892
0.930	4.535181	4.788012	691.795415	15.979999	-2.247023	-1.119743	0.324810	2.309931
0.940	5.200608	5.195112	691.237274	16.429032	-2.811690	-1.177780	0.406762	2.376757
0.950	5.949596	5.601113	691.342008	16.911675	-3.402723	-1.235773	0.492191	2.446210
0.960	6.711379	5.972186	691.998944	17.406663	-4.007411	-1.288913	0.579106	2.515418
0.970	7.427363	6.291203	693.006562	17.891041	-4.610797	-1.332372	0.665332	2.581655
0.980	8.060119	6.555261	694.120637	18.345957	-5.198205	-1.362679	0.748891	2.643050
0.990	8.595668	6.769068	695.105168	18.760659	-5.757010	-1.378685	0.828221	2.698967
1.000	9.039710	6.938606	695.771934	19.133825	-6.277205	-1.381790	0.902193	2.750014
1.010	9.410102	7.068694	696.001458	19.472240	-6.750746	-1.375312	0.969933	2.797730
1.020	9.728616	7.165005	695.746215	19.787661	-7.170397	-1.363170	1.030605	2.844092
1.030	10.014156	7.237854	695.021657	20.093145	-7.529138	-1.348391	1.083295	2.891010
1.040	10.278414	7.303954	693.891649	20.399974	-7.820854	-1.332100	1.127100	2.939936
1.050	10.524032	7.383800	692.454071	20.715947	-8.042093	-1.313466	1.161390	2.991671
1.060	10.744810	7.495380	690.830247	21.045455	-8.193905	-1.290582	1.186095	3.046400
1.070	10.927304	7.647597	689.158221	21.391268	-8.282545	-1.261808	1.201835	3.103971
1.080	11.053512	7.837408	687.586088	21.757183	-8.318378	-1.226931	1.209794	3.164285
1.090	11.104825	8.052749	686.260521	22.149964	-8.313217	-1.187674	1.211379	3.227632
1.100	11.067056	8.279847	685.308538	22.579153	-8.277119	-1.147471	1.207795	3.294743
1.110	10.935368	8.510962	684.815796	23.054372	-8.215833	-1.110731	1.199714	3.366507
1.120	10.717050	8.748764	684.809367	23.581175	-8.129737	-1.081857	1.187153	3.443466
1.130	10.430616	9.005950	685.254450	24.157198	-8.014578	-1.064305	1.169577	3.525289
1.140	10.101410	9.301277	686.071056	24.770199	-7.863858	-1.059805	1.146216	3.610442
1.150	9.755897	9.653965	687.168518	25.398766	-7.672280	-1.067863	1.116506	3.696148
1.160	9.417588	10.077628	688.485012	26.015599	-7.439270	-1.085615	1.080528	3.778673
1.170	9.106403	10.574209	690.012168	26.592391	-7.171323	-1.108189	1.039304	3.853902
1.180	8.840548	11.128697	691.788020	27.104878	-6.882058	-1.129684	0.994822	3.918090
1.190	8.637649	11.706573	693.856702	27.536649	-6.589564	-1.144612	0.949701	3.968636
1.200	8.511849	12.256523	696.212407	27.880733	-6.311634	-1.149326	0.906567	4.004630
1.210	8.466562	12.719744	698.755725	28.138633	-6.060512	-1.142779	0.867329	4.026963
1.220	8.486605	13.044022	701.285817	28.317207	-5.839225	-1.126289	0.832646	4.037898
1.230	8.535502	13.197669	703.535306	28.424429	-5.641065	-1.102511	0.801817	4.040228
1.240	8.561876	13.177560	705.235434	28.465405	-5.452475	-1.074208	0.773142	4.036298
1.250	8.514057	13.007899	706.186294	28.439933	-5.258139	-1.043417	0.744582	4.027256
1.260	8.357335	12.730504	706.306214	28.342382	-5.046208	-1.011268	0.714450	4.012761
1.270	8.086680	12.391066	705.644586	28.163758	-4.811747	-0.978309	0.681894	3.991210
1.280	7.729742	12.026953	704.357732	27.894830	-4.557389	-0.944987	0.647028	3.960321
1.290	7.339108	11.660355	702.660234	27.528687	-4.291300	-0.911929	0.610722	3.917781
1.300	6.976846	11.297413	700.770063	27.061594	-4.023427	-0.879825	0.574144	3.861694
1.310	6.696629	10.931421	698.864377	26.492275	-3.761439	-0.848981	0.538222	3.790761
1.320	6.528831	10.547150	697.056246	25.820887	-3.507711	-0.818791	0.503218	3.704276
1.330	6.472595	10.123894	695.394440	25.049162	-3.258282	-0.787478	0.468552	3.602152
1.340	6.496570	9.636732	693.882481	24.182457	-3.004079	-0.752391	0.432938	3.485094
1.350	6.547573	9.057767	692.510063	23.233210	-2.734067	-0.710949	0.394805	3.354927
1.360	6.564609	8.360086	691.287742	22.224123	-2.439397	-0.661950	0.352877	3.214888
1.370	6.494784	7.525863	690.273431	21.189014	-2.117218	-0.606651	0.306722	3.069655
1.380	6.307473	6.556893	689.579108	20.169942	-1.772665	-0.549045	0.257065	2.924964
1.390	6.003155	5.482980	689.351033	19.210860	-1.418103	-0.495091	0.205716	2.786804
1.400	5.613901	4.363052	689.726516	18.349601	-1.069733	-0.451223	0.155095	2.660417
1.410	5.194168	3.276282	690.781115	17.610785	-0.742778	-0.422663	0.107527	2.549402
1.420	4.803643	2.304933	692.486731	17.001847	-0.447001	-0.412009	0.064550	2.455187
1.430	4.487338	1.514620	694.698861	16.513176	-0.184271	-0.418435	0.026525	2.377026
1.440	4.260497	0.939141	697.180273	16.122120	0.050812	-0.437658	-0.007288	2.312475
1.450	4.105179	0.575058	699.653543	15.799637	0.267473	-0.462810	-0.038229	2.258209
1.460	3.980847	0.387021	701.863066	15.517724	0.474011	-0.486091	-0.067536	2.210933
1.470	3.844628	0.320690	703.623604	15.255577	0.673875	-0.500784	-0.095772	2.168145
1.480	3.671813	0.317932	704.838997	15.002833	0.864260	-0.502948	-0.122618	2.128547
1.490	3.467134	0.329287	705.488466	14.759207	1.037824	-0.492261	-0.147107	2.092055
1.500	3.262115	0.320877	705.591662	14.531037	1.186739	-0.471786	-0.168191	2.059412
1.510	3.100357	0.275613	705.170996	14.326206	1.307429	-0.446845	-0.185406	2.031593
1.520	3.017594	0.190589	704.228830	14.149306	1.403995	-0.423371	-0.199366	2.009191
1.530	3.025019	0.073155	702.749620	13.998511	1.488795	-0.406207	-0.211853	1.991963
1.540	3.102339	-0.062692	700.725650	13.864822	1.579840	-0.397849	-0.225458	1.978638
1.550	3.202550	-0.199553	698.194058	13.733447	1.696082	-0.397986	-0.242924	1.966996
1.560	3.265711	-0.320481	695.267883	13.586538	1.852550	-0.403938	-0.266451	1.954144
1.570	3.236450	-0.413990	692.147406	13.406458	2.057084	-0.411727	-0.297203	1.936937
1.580	3.079779	-0.479095	689.106923	13.179031	2.309380	-0.417348	-0.335126	1.912480
1.590	2.791162	-0.527808	686.460636	12.896505	2.602025	-0.417837	-0.379049	1.878696
1.600	2.398509	-0.582930	684.515847	12.559780	2.922732	-0.411945	-0.426978	1.834841
1.610	1.955715	-0.671052	683.522567	12.179175	3.256982	-0.400324	-0.476500	1.781825
1.620	1.529167	-0.813239	683.629014	11.772941	3.590605	-0.385223	-0.525227	1.722124
1.630	1.180396	-1.017141	684.853294	11.363367	3.911994	-0.369799	-0.571216	1.659241
1.640	0.949308	-1.273697	687.079821	10.971428	4.213762	-0.357239	-0.613286	1.596820
1.650	0.842865	-1.559630	690.082865	10.611840	4.493474	-0.349981	-0.651150	1.537763
1.660	0.833276	-1.844622	693.571095	10.290435	4.753027	-0.349211	-0.685298	1.483689
1.670	0.867338	-2.100445	697.240907	10.004730	4.996445	-0.354751	-0.716602	1.434903
1.680	0.884979	-2.308798	700.824574	9.746943	5.226498	-0.365338	-0.745764	1.390782
1.690	0.841349	-2.465306	704.121520	9.507671	5.441349	-0.379177	-0.772785	1.350288
1.700	0.724647	-2.578742	707.005919	9.278509	5.632767	-0.394488	-0.796707	1.312367
1.710	0.562643	-2.666300	709.410781	9.052926	5.786946	-0.409786	-0.815740	1.276119
1.720	0.414729	-2.747100	711.296336	8.825810	5.887794	-0.423795	-0.827755	1.240806
1.730	0.351888	-2.836563	712.616893	8.592687	5.921466	-0.435195	-0.830947	1.205793
1.740	0.431805	-2.943814	713.302252	8.349544	5.880402	-0.442473	-0.824391	1.170548
1.750	0.678249	-3.072780	713.264861	8.093740	5.765409	-0.444125	-0.808313	1.134745
1.760	1.072291	-3.225754	712.432509	7.825784	5.585191	-0.439227	-0.783961	1.098460
1.770	1.558522	-3.406770	710.793567	7.551271	5.353608	-0.428173	-0.753188	1.062372
1.780	2.064085	-3.622187	708.434574	7.282106	5.085562	-0.413242	-0.717859	1.027915
1.790	2.523727	-3.877443	705.552342	7.036272	4.792658	-0.398656	-0.679277	0.997271
1.800	2.901675	-4.171055	702.432941	6.835803	4.479996	-0.389989	-0.637783	0.973161
1.810	3.202195	-4.488484	699.401880	6.703124	4.145261	-0.392990	-0.592687	0.958408
1.820	3.465211	-4.799064	696.758563	6.656669	3.780756	-0.412128	-0.542621	0.955377
1.830	3.749398	-5.058349	694.712103	6.707003	3.378020	-0.449283	-0.486247	0.965436
1.840	4.109713	-5.216304	693.335038	6.854456	2.933603	-0.503059	-0.423115	0.988621
1.850	4.577454	-5.229193	692.547218	7.088567	2.453931	-0.568871	-0.354334	1.023550
1.860	5.148850	-5.071264	692.135183	7.389198	1.957386	-0.639658	-0.282804	1.067595
1.870	5.784736	-4.742276	691.804574	7.729196	1.472672	-0.706974	-0.212874	1.117251
1.880	6.420605	-4.268632	691.254955	8.078497	1.033905	-0.762307	-0.149569	1.168671
1.890	6.983493	-3.698319	690.258898	8.409001	0.674045	-0.798582	-0.097651	1.218239
1.900	7.410025	-3.091639	688.723402	8.698963	0.418739	-0.811588	-0.060799	1.263056
1.910	7.659643	-2.510275	686.715586	8.935591	0.282305	-0.800888	-0.041109	1.301207
1.920	7.719598	-2.007095	684.446177	9.115340	0.266631	-0.769816	-0.038956	1.331783
1.930	7.602322	-1.618697	682.218414	9.242322	0.362722	-0.724540	-0.053168	1.354745
1.940	7.338531	-1.362056	680.359835	9.325742	0.553979	-0.672575	-0.081424	1.370707
1.950	6.969210	-1.235555	679.156585	9.377150	0.820157	-0.621219	-0.120761	1.380705
1.960	6.538047	-1.223511	678.805623	9.408011	1.141257	-0.576262	-0.168127	1.385965
1.970	6.084936	-1.302397	679.393249	9.427898	1.500777	-0.541176	-0.220900	1.387694
1.980	5.641389	-1.446687	680.900764	9.443620	1.887615	-0.516872	-0.277223	1.386930
1.990	5.228991	-1.632612	683.230286	9.459390	2.295932	-0.502062	-0.336041	1.384510
2.000	4.861216	-1.839204	686.237106	9.477694	2.722954	-0.494110	-0.396795	1.381111
2.010	4.546975	-2.047196	689.753730	9.500126	3.165838	-0.490087	-0.458981	1.377321
2.020	4.292848	-2.237265	693.597559	9.527591	3.619354	-0.487663	-0.521823	1.373648
2.030	4.101743	-2.389255	697.565604	9.559957	4.075590	-0.485514	-0.584259	1.370474
2.040	3.968712	-2.483589	701.428757	9.595849	4.525516	-0.483227	-0.645185	1.368043
2.050	3.877470	-2.504973	704.939089	9.633244	4.961053	-0.480894	-0.703756	1.366536
2.060	3.801648	-2.447257	707.856013	9.670945	5.376215	-0.478725	-0.759507	1.366231
2.070	3.712224	-2.317363	709.985280	9.710248	5.766791	-0.476896	-0.812241	1.367669
2.080	3.588515	-2.136150	711.215598	9.755805	6.129173	-0.475631	-0.861788	1.371708
2.090	3.427261	-1.934857	711.536331	9.814979	6.459419	-0.475359	-0.907813	1.379407
2.100	3.244638	-1.747394	711.027457	9.895839	6.753422	-0.476749	-0.949812	1.391766
2.110	3.069476	-1.600494	709.825486	10.004684	7.008368	-0.480545	-0.987337	1.409457
2.120	2.930260	-1.505023	708.079659	10.144213	7.224865	-0.487215	-1.020346	1.432637
2.130	2.841477	-1.451799	705.916114	10.313062	7.408637	-0.496531	-1.049507	1.460947
2.140	2.795273	-1.413948	703.423121	10.506732	7.570777	-0.507274	-1.076276	1.493658
2.150	2.761897	-1.355447	700.660598	10.719354	7.726253	-0.517268	-1.102710	1.529893
2.160	2.698397	-1.243103	697.686413	10.945552	7.891189	-0.523867	-1.131051	1.568835
2.170	2.561378	-1.057970	694.585627	11.181881	8.079986	-0.524734	-1.163281	1.609864
2.180	2.318601	-0.802581	691.490151	11.427517	8.303177	-0.518590	-1.200766	1.652593
2.190	1.956066	-0.501645	688.583263	11.684019	8.566313	-0.505598	-1.244049	1.696820
2.200	1.480521	-0.195706	686.089354	11.954238	8.869606	-0.487254	-1.292777	1.742373
2.210	0.918995	0.070677	684.250565	12.240791	9.207955	-0.465910	-1.345699	1.788934
2.220	0.316005	0.262691	683.291844	12.544837	9.571315	-0.444194	-1.400765	1.835941
2.230	-0.272865	0.366464	683.379018	12.865675	9.945821	-0.424541	-1.455389	1.882656
2.240	-0.792187	0.393825	684.579714	13.201181	10.315995	-0.408908	-1.506909	1.928363
2.250	-1.201013	0.379049	686.839336	13.548689	10.667711	-0.398614	-1.553160	1.972614
2.260	-1.485084	0.368930	689.980439	13.905872	10.990844	-0.394208	-1.592921	2.015401
2.270	-1.660919	0.409659	693.725729	14.271351	11.280465	-0.395333	-1.626070	2.057204
2.280	-1.768897	0.534606	697.737548	14.644752	11.536174	-0.400714	-1.653369	2.098891
2.290	-1.857663	0.756417	701.663658	15.026055	11.760077	-0.408364	-1.676028	2.141490
2.300	-1.966116	1.065328	705.179791	15.414326	11.954349	-0.416053	-1.695220	2.185872
2.310	-2.109736	1.433683	708.021846	15.806409	12.119228	-0.421882	-1.711702	2.232475
2.320	-2.275629	1.824762	710.004246	16.196279	12.252012	-0.424791	-1.725625	2.281152
2.330	-2.427163	2.202845	711.025734	16.575463	12.347414	-0.424779	-1.736564	2.331204
2.340	-2.515957	2.541381	711.067455	16.934366	12.399204	-0.422759	-1.743745	2.381541
2.350	-2.497009	2.827171	710.187638	17.264026	12.402540	-0.420124	-1.746375	2.430910
2.360	-2.342339	3.060100	708.512816	17.557752	12.356059	-0.418247	-1.743943	2.478113
2.370	-2.049431	3.249647	706.221976	17.812263	12.262959	-0.418163	-1.736417	2.522190
