Time[s]	Fx[N]	Fy[N]	Fz[N]	Mx[Nm]	My[Nm]	Mz[Nm]	COPx[cm]	COPy[cm]
0.010	2.359588	-6.588483	619.339296	-4.083294	-4.261575	0.910226	0.688084	-0.659298
0.020	2.374794	-6.580857	619.178563	-4.053524	-4.226848	0.923855	0.682654	-0.654661
0.030	2.384639	-6.584578	619.006730	-4.025932	-4.191662	0.934298	0.677159	-0.650386
0.040	2.385911	-6.604893	618.813011	-4.002404	-4.155970	0.939406	0.671603	-0.646787
0.050	2.377207	-6.638832	618.593433	-3.984132	-4.120256	0.938555	0.666069	-0.644063
0.060	2.358180	-6.676406	618.356832	-3.971540	-4.085301	0.932774	0.660670	-0.642273
0.070	2.328418	-6.704779	618.127789	-3.964564	-4.051583	0.924308	0.655460	-0.641383
0.080	2.286732	-6.713459	617.942483	-3.963162	-4.018614	0.915754	0.650322	-0.641348
0.090	2.231309	-6.698298	617.837441	-3.967679	-3.984729	0.909140	0.644948	-0.642188
0.100	2.160579	-6.662638	617.835941	-3.978701	-3.947629	0.905334	0.638945	-0.643974
0.110	2.074544	-6.615335	617.938764	-3.996420	-3.905485	0.904035	0.632018	-0.646734
0.120	1.976260	-6.567029	618.123895	-4.020038	-3.858034	0.904242	0.624152	-0.650361
0.130	1.872969	-6.526709	618.354829	-4.047691	-3.807202	0.904886	0.615699	-0.654590
0.140	1.776086	-6.499850	618.592479	-4.077015	-3.757070	0.905320	0.607358	-0.659079
0.150	1.699498	-6.488052	618.804407	-4.105984	-3.713210	0.905473	0.600062	-0.663535
0.160	1.656345	-6.489498	618.968096	-4.133533	-3.681435	0.905728	0.594770	-0.667810
0.170	1.655192	-6.499888	619.069844	-4.159599	-3.666230	0.906658	0.592216	-0.671911
0.180	1.696859	-6.514003	619.103407	-4.184608	-3.669389	0.908767	0.592694	-0.675914
0.190	1.773311	-6.527729	619.070701	-4.208724	-3.689441	0.912293	0.595964	-0.679845
0.200	1.869468	-6.539566	618.983319	-4.231312	-3.722116	0.917089	0.601327	-0.683591
0.210	1.967644	-6.550556	618.862110	-4.250875	-3.761579	0.922609	0.607822	-0.686886
0.220	2.052987	-6.562645	618.733447	-4.265567	-3.801886	0.928009	0.614463	-0.689403
0.230	2.117678	-6.576666	618.623211	-4.274149	-3.838178	0.932334	0.620439	-0.690913
0.240	2.162089	-6.591275	618.551070	-4.277011	-3.867337	0.934738	0.625225	-0.691456
0.250	2.192444	-6.603180	618.527396	-4.276668	-3.888093	0.934688	0.628605	-0.691427
0.260	2.216227	-6.608136	618.553165	-4.277249	-3.900718	0.932098	0.630620	-0.691493
0.270	2.237855	-6.602151	618.621170	-4.283047	-3.906626	0.927349	0.631505	-0.692354
0.280	2.256926	-6.582742	618.716944	-4.296770	-3.908062	0.921211	0.631640	-0.694465
0.290	2.269719	-6.550180	618.819618	-4.318450	-3.907895	0.914639	0.631508	-0.697853
0.300	2.272644	-6.508258	618.904472	-4.345567	-3.909284	0.908527	0.631646	-0.702139
0.310	2.265283	-6.463802	618.948401	-4.374208	-3.915082	0.903468	0.632538	-0.706716
0.320	2.251106	-6.424645	618.937250	-4.400572	-3.927062	0.899679	0.634485	-0.710988
0.330	2.235478	-6.396892	618.871545	-4.422084	-3.945330	0.897137	0.637504	-0.714540
0.340	2.222299	-6.383016	618.766841	-4.437823	-3.968258	0.895801	0.641317	-0.717204
0.350	2.211413	-6.381725	618.647720	-4.448363	-3.993024	0.895686	0.645444	-0.719046
0.360	2.198353	-6.389308	618.538195	-4.455359	-4.016497	0.896721	0.649353	-0.720305
0.370	2.176443	-6.401317	618.453152	-4.461102	-4.036073	0.898554	0.652608	-0.721332
0.380	2.139944	-6.413670	618.394795	-4.468088	-4.050116	0.900548	0.654940	-0.722530
0.390	2.086531	-6.423039	618.355631	-4.478587	-4.057933	0.902033	0.656246	-0.724274
0.400	2.018125	-6.427011	618.326116	-4.494312	-4.059474	0.902590	0.656526	-0.726851
0.410	1.940253	-6.424495	618.302357	-4.516342	-4.055126	0.902127	0.655848	-0.730442
0.420	1.860597	-6.416327	618.289207	-4.545238	-4.045796	0.900717	0.654353	-0.735131
0.430	1.787306	-6.405494	618.296886	-4.581197	-4.033125	0.898382	0.652296	-0.740938
0.440	1.727388	-6.396358	618.333217	-4.624132	-4.019426	0.895055	0.650042	-0.747838
0.450	1.685401	-6.392978	618.396398	-4.673738	-4.007217	0.890723	0.648001	-0.755783
0.460	1.662698	-6.397374	618.472813	-4.729554	-3.998577	0.885561	0.646524	-0.764715
0.470	1.657396	-6.408726	618.541106	-4.790945	-3.994696	0.879922	0.645826	-0.774556
0.480	1.665074	-6.424022	618.580469	-4.856930	-3.995804	0.874211	0.645964	-0.785174
0.490	1.679932	-6.439976	618.579608	-4.926005	-4.001423	0.868761	0.646873	-0.796341
0.500	1.696060	-6.455321	618.542509	-4.996190	-4.010807	0.863792	0.648429	-0.807736
0.510	1.708593	-6.472160	618.488058	-5.065472	-4.023397	0.859448	0.650521	-0.819009
0.520	1.714679	-6.495352	618.443199	-5.132507	-4.039072	0.855892	0.653103	-0.829908
0.530	1.714057	-6.530077	618.432818	-5.197144	-4.058073	0.853400	0.656187	-0.840373
0.540	1.708971	-6.578871	618.471271	-5.260345	-4.080646	0.852376	0.659796	-0.850540
0.550	1.703274	-6.639721	618.559096	-5.323466	-4.106594	0.853201	0.663897	-0.860624
0.560	1.700890	-6.706126	618.685062	-5.387307	-4.135014	0.855939	0.668355	-0.870767
0.570	1.704218	-6.769034	618.831080	-5.451471	-4.164419	0.860069	0.672949	-0.880930
0.580	1.713289	-6.819910	618.977482	-5.514281	-4.193324	0.864450	0.677460	-0.890869
0.590	1.726158	-6.853689	619.107656	-5.573271	-4.221103	0.867650	0.681804	-0.900210
0.600	1.740214	-6.870325	619.211521	-5.626133	-4.248769	0.868501	0.686158	-0.908596
0.610	1.753534	-6.874167	619.286852	-5.671880	-4.279204	0.866585	0.690989	-0.915873
0.620	1.765582	-6.871561	619.337613	-5.711764	-4.316591	0.862399	0.696969	-0.922238
0.630	1.777144	-6.868107	619.370019	-5.749241	-4.365168	0.857103	0.704776	-0.928240
0.640	1.789898	-6.867097	619.388493	-5.788701	-4.427796	0.852010	0.714866	-0.934583
0.650	1.805953	-6.869734	619.393628	-5.833491	-4.504952	0.848073	0.727316	-0.941807
0.660	1.827404	-6.876456	619.382729	-5.884414	-4.594606	0.845600	0.741804	-0.950045
0.670	1.855821	-6.888054	619.352121	-5.939639	-4.692959	0.844290	0.757721	-0.959008
0.680	1.891663	-6.905752	619.299843	-5.996011	-4.795621	0.843523	0.774362	-0.968192
0.690	1.933849	-6.930364	619.227356	-6.050801	-4.898695	0.842721	0.791098	-0.977153
0.700	1.979877	-6.961301	619.139588	-6.102707	-4.999484	0.841593	0.807489	-0.985675
0.710	2.026677	-6.996111	619.043792	-6.151561	-5.096783	0.840170	0.823331	-0.993720
0.720	2.071811	-7.030852	618.948468	-6.197228	-5.190836	0.838649	0.838654	-1.001251
0.730	2.114153	-7.061107	618.862673	-6.238746	-5.282987	0.837212	0.853661	-1.008099
0.740	2.153625	-7.083220	618.794846	-6.274428	-5.375094	0.835992	0.868639	-1.013976
0.750	2.190337	-7.095180	618.750610	-6.302687	-5.468889	0.835188	0.883860	-1.018615
0.760	2.223936	-7.096684	618.730790	-6.322882	-5.565528	0.835164	0.899507	-1.021912
0.770	2.253642	-7.088244	618.731811	-6.335631	-5.665460	0.836411	0.915657	-1.023970
0.780	2.278786	-7.069904	618.749313	-6.342558	-5.768517	0.839354	0.932287	-1.025061
0.790	2.299353	-7.040538	618.783075	-6.345718	-5.874018	0.844120	0.949286	-1.025516
0.800	2.316147	-6.998337	618.839427	-6.347001	-5.980830	0.850421	0.966459	-1.025630
0.810	2.330539	-6.942269	618.927974	-6.347739	-6.087483	0.857644	0.983553	-1.025602
0.820	2.344128	-6.873634	619.052839	-6.348689	-6.192431	0.865107	1.000307	-1.025549
0.830	2.358579	-6.796880	619.202964	-6.350328	-6.294446	0.872295	1.016540	-1.025565
0.840	2.375565	-6.719344	619.348302	-6.353232	-6.393032	0.878941	1.032219	-1.025793
0.850	2.396575	-6.650087	619.446401	-6.358235	-6.488680	0.884996	1.047497	-1.026438
0.860	2.422616	-6.598097	619.457613	-6.366305	-6.582754	0.890610	1.062664	-1.027723
0.870	2.454077	-6.570105	619.361315	-6.378345	-6.676974	0.896170	1.078042	-1.029826
0.880	2.490832	-6.568587	619.165110	-6.395080	-6.772727	0.902241	1.093848	-1.032855
0.890	2.532357	-6.590895	618.903489	-6.417013	-6.870625	0.909281	1.110129	-1.036836
0.900	2.577777	-6.630097	618.627458	-6.444276	-6.970556	0.917264	1.126778	-1.041705
0.910	2.625915	-6.677177	618.389554	-6.476400	-7.072125	0.925526	1.143636	-1.047301
0.920	2.675354	-6.723551	618.229822	-6.512180	-7.175135	0.933085	1.160593	-1.053359
0.930	2.724518	-6.762964	618.167656	-6.549819	-7.279801	0.939305	1.177642	-1.059554
0.940	2.771871	-6.792460	618.201307	-6.587361	-7.386685	0.944450	1.194867	-1.065569
0.950	2.816450	-6.812612	618.313110	-6.623280	-7.496563	0.949725	1.212422	-1.071185
0.960	2.858725	-6.827219	618.476807	-6.657037	-7.610447	0.956757	1.230514	-1.076360
0.970	2.901546	-6.842369	618.663989	-6.689464	-7.729731	0.966800	1.249423	-1.081276
0.980	2.950663	-6.864701	618.848184	-6.722782	-7.856152	0.980068	1.269480	-1.086338
0.990	3.014176	-6.899084	619.006327	-6.760169	-7.991301	0.995508	1.290989	-1.092100
1.000	3.100415	-6.946505	619.118559	-6.804894	-8.135772	1.011144	1.314090	-1.099126
1.010	3.214429	-7.003217	619.168326	-6.859255	-8.288381	1.024836	1.338631	-1.107818
1.020	3.354327	-7.061772	619.144767	-6.923734	-8.445932	1.035083	1.364129	-1.118274
1.030	3.509303	-7.113618	619.047473	-6.996741	-8.603659	1.041501	1.389822	-1.130243
1.040	3.660810	-7.152144	618.891085	-7.075134	-8.756115	1.044813	1.414807	-1.143195
1.050	3.787137	-7.174797	618.705894	-7.155328	-8.898220	1.046448	1.438199	-1.156499
1.060	3.869950	-7.183439	618.531680	-7.234585	-9.026183	1.047990	1.459292	-1.169639
1.070	3.900199	-7.182955	618.405573	-7.311907	-9.138115	1.050687	1.477690	-1.182381
1.080	3.880944	-7.178870	618.349080	-7.388144	-9.234213	1.055112	1.493366	-1.194818
1.090	3.826169	-7.175070	618.361383	-7.465269	-9.316547	1.061067	1.506651	-1.207266
1.100	3.756465	-7.172608	618.422931	-7.545212	-9.388571	1.067739	1.518147	-1.220073
1.110	3.693451	-7.170144	618.506988	-7.628839	-9.454510	1.074066	1.528602	-1.233428
1.120	3.654730	-7.165730	618.592258	-7.715538	-9.518654	1.079126	1.538761	-1.247274
1.130	3.650548	-7.158855	618.669939	-7.803510	-9.584590	1.082415	1.549225	-1.261337
1.140	3.682632	-7.151399	618.742443	-7.890527	-9.654412	1.083932	1.560328	-1.275252
1.150	3.745135	-7.146802	618.815453	-7.974780	-9.728083	1.084056	1.572049	-1.288717
1.160	3.827130	-7.147998	618.888225	-8.055471	-9.803304	1.083262	1.584019	-1.301604
1.170	3.915789	-7.155588	618.948084	-8.132914	-9.876163	1.081803	1.595637	-1.313990
1.180	3.999402	-7.167649	618.973017	-8.208096	-9.942491	1.079596	1.606288	-1.326083
1.190	4.069630	-7.181384	618.941675	-8.281951	-9.999344	1.076411	1.615555	-1.338083
1.200	4.122631	-7.195478	618.845545	-8.354772	-10.045876	1.072247	1.623325	-1.350058
1.210	4.158906	-7.211422	618.696564	-8.426160	-10.083194	1.067574	1.629748	-1.361921
1.220	4.181984	-7.232818	618.525640	-8.495541	-10.113407	1.063185	1.635083	-1.373515
1.230	4.196379	-7.263156	618.372347	-8.562905	-10.138493	1.059705	1.639545	-1.384749
1.240	4.205401	-7.303622	618.271260	-8.629234	-10.159600	1.057113	1.643227	-1.395704
1.250	4.209486	-7.352325	618.242489	-8.696287	-10.177089	1.054679	1.646132	-1.406614
1.260	4.205850	-7.405221	618.290690	-8.765768	-10.191114	1.051345	1.648272	-1.417742
1.270	4.190086	-7.457838	618.410427	-8.838312	-10.202294	1.046253	1.649761	-1.429198
1.280	4.159414	-7.506571	618.591878	-8.912855	-10.212079	1.039035	1.650859	-1.440830
1.290	4.115960	-7.548951	618.822613	-8.986785	-10.222705	1.029789	1.651960	-1.452239
1.300	4.068016	-7.583370	619.085703	-9.056847	-10.236798	1.018893	1.653535	-1.462939
1.310	4.028326	-7.609138	619.357258	-9.120326	-10.256799	1.006863	1.656039	-1.472547
1.320	4.010166	-7.627143	619.606189	-9.175896	-10.284400	0.994316	1.659828	-1.480924
1.330	4.023045	-7.640508	619.797620	-9.223789	-10.320148	0.981961	1.665083	-1.488194
1.340	4.069718	-7.654376	619.899883	-9.265402	-10.363302	0.970526	1.671770	-1.494661
1.350	4.145278	-7.674542	619.893069	-9.302739	-10.411985	0.960589	1.679642	-1.500701
1.360	4.238122	-7.705413	619.775560	-9.337992	-10.463603	0.952409	1.688289	-1.506673
1.370	4.332241	-7.748156	619.565516	-9.373262	-10.515443	0.945828	1.697229	-1.512877
1.380	4.410373	-7.799884	619.296741	-9.410228	-10.565277	0.940337	1.706012	-1.519502
1.390	4.457570	-7.854373	619.010856	-9.449700	-10.611750	0.935313	1.714308	-1.526581
1.400	4.464456	-7.904289	618.748704	-9.491272	-10.654399	0.930306	1.721927	-1.533946
1.410	4.429341	-7.944144	618.543255	-9.533332	-10.693392	0.925252	1.728803	-1.541255
1.420	4.358652	-7.972575	618.414869	-9.573535	-10.729149	0.920503	1.734944	-1.548076
1.430	4.265610	-7.992680	618.368986	-9.609596	-10.762009	0.916676	1.740386	-1.554023
1.440	4.167428	-8.010144	618.396201	-9.640079	-10.792034	0.914341	1.745165	-1.558884
1.450	4.081507	-8.030140	618.474856	-9.664795	-10.818980	0.913728	1.749300	-1.562682
1.460	4.021417	-8.054770	618.576129	-9.684571	-10.842431	0.914634	1.752805	-1.565623
1.470	3.993717	-8.082337	618.670942	-9.700548	-10.861966	0.916610	1.755694	-1.567966
1.480	3.996635	-8.108617	618.736923	-9.713505	-10.877264	0.919284	1.757979	-1.569893
1.490	4.021122	-8.129186	618.763050	-9.723673	-10.888082	0.922572	1.759653	-1.571470
1.500	4.054093	-8.141516	618.750407	-9.731037	-10.894203	0.926641	1.760678	-1.572692
1.510	4.082926	-8.145978	618.709482	-9.735695	-10.895458	0.931683	1.760997	-1.573549
1.520	4.099711	-8.145607	618.655812	-9.737906	-10.891828	0.937677	1.760563	-1.574043
1.530	4.103642	-8.144879	618.605782	-9.737809	-10.883454	0.944287	1.759352	-1.574154
1.540	4.100571	-8.147936	618.573502	-9.735095	-10.870436	0.950969	1.757339	-1.573798
1.550	4.099945	-8.156840	618.568905	-9.728935	-10.852558	0.957159	1.754462	-1.572813
1.560	4.110436	-8.170576	618.596503	-9.718261	-10.829183	0.962425	1.750605	-1.571018
1.570	4.136113	-8.185228	618.654330	-9.702233	-10.799482	0.966513	1.745641	-1.568280
1.580	4.174584	-8.195145	618.733510	-9.680625	-10.762845	0.969373	1.739496	-1.564587
1.590	4.217576	-8.194534	618.819988	-9.653992	-10.719157	0.971229	1.732193	-1.560065
1.600	4.253430	-8.178972	618.899385	-9.623554	-10.668693	0.972663	1.723817	-1.554946
1.610	4.270500	-8.146593	618.963339	-9.590800	-10.611663	0.974544	1.714425	-1.549494
1.620	4.260393	-8.098829	619.013625	-9.556989	-10.547810	0.977721	1.703971	-1.543906
1.630	4.220254	-8.040457	619.061006	-9.522835	-10.476432	0.982580	1.692310	-1.538271
1.640	4.153679	-7.978657	619.118756	-9.488576	-10.396860	0.988774	1.679300	-1.532594
1.650	4.070165	-7.921086	619.193589	-9.454310	-10.309049	0.995341	1.664915	-1.526875
1.660	3.983023	-7.873538	619.278174	-9.420254	-10.213885	1.001193	1.649321	-1.521167
1.670	3.905858	-7.838277	619.349644	-9.386629	-10.113041	1.005720	1.632848	-1.515562
1.680	3.848361	-7.813905	619.376638	-9.353130	-10.008549	1.009124	1.615907	-1.510088
1.690	3.812902	-7.796744	619.333189	-9.318288	-9.902334	1.012285	1.598870	-1.504568
1.700	3.793402	-7.782799	619.213112	-9.279242	-9.795875	1.016234	1.581988	-1.498554
1.710	3.777018	-7.769061	619.037288	-9.232344	-9.689951	1.021541	1.565326	-1.491404
1.720	3.747990	-7.753546	618.849653	-9.174519	-9.584415	1.027951	1.548747	-1.482512
1.730	3.692422	-7.734572	618.703579	-9.104776	-9.478077	1.034469	1.531925	-1.471589
1.740	3.602644	-7.710381	618.644652	-9.025033	-9.368953	1.039840	1.514432	-1.458840
1.750	3.479917	-7.679670	618.696745	-8.939730	-9.255044	1.043130	1.495893	-1.444929
1.760	3.334604	-7.642575	618.856302	-8.854318	-9.135482	1.044062	1.476188	-1.430755
1.770	3.183729	-7.601198	619.095813	-8.773323	-9.011529	1.042970	1.455595	-1.417119
1.780	3.046594	-7.559158	619.373105	-8.698892	-8.886834	1.040497	1.434811	-1.404467
1.790	2.939847	-7.520365	619.641299	-8.630446	-8.766645	1.037293	1.414794	-1.392813
1.800	2.873481	-7.487640	619.856737	-8.565399	-8.656222	1.033848	1.396488	-1.381835
1.810	2.848722	-7.461732	619.985490	-8.500447	-8.559088	1.030478	1.380530	-1.371072
1.820	2.857930	-7.440909	620.009158	-8.432868	-8.475872	1.027372	1.367056	-1.360120
1.830	2.886249	-7.421237	619.928485	-8.361460	-8.404205	1.024576	1.355673	-1.348778
1.840	2.914770	-7.397738	619.762884	-8.286843	-8.339655	1.021919	1.345620	-1.337099
1.850	2.924827	-7.366340	619.546076	-8.211061	-8.277250	1.018945	1.336019	-1.325335
1.860	2.902702	-7.325774	619.319527	-8.136744	-8.213032	1.014983	1.326138	-1.313820
1.870	2.843511	-7.278258	619.124797	-8.066308	-8.145198	1.009401	1.315599	-1.302857
1.880	2.752890	-7.228419	618.995331	-8.001516	-8.074577	1.001924	1.304465	-1.292662
1.890	2.645560	-7.181019	618.948881	-7.943426	-8.004271	0.992832	1.293204	-1.283374
1.900	2.540998	-7.138739	618.982596	-7.892556	-7.938516	0.982928	1.282510	-1.275085
1.910	2.457746	-7.101240	619.072380	-7.849001	-7.881095	0.973325	1.273049	-1.267865
1.920	2.408484	-7.066036	619.177254	-7.812367	-7.833979	0.965079	1.265224	-1.261734
1.930	2.397368	-7.030668	619.248719	-7.781554	-7.796784	0.958786	1.259071	-1.256612
1.940	2.419868	-6.994799	619.243981	-7.754621	-7.767187	0.954285	1.254302	-1.252272
1.950	2.464442	-6.960830	619.139579	-7.728976	-7.741956	0.950700	1.250438	-1.248341
1.960	2.515407	-6.932534	618.940395	-7.701952	-7.717998	0.946883	1.246970	-1.244377
1.970	2.556584	-6.912630	618.680205	-7.671551	-7.693070	0.942050	1.243465	-1.239986
1.980	2.575134	-6.901033	618.413326	-7.636973	-7.666099	0.936225	1.239640	-1.234930
1.990	2.564505	-6.895002	618.199958	-7.598644	-7.637230	0.930184	1.235398	-1.229156
2.000	2.525511	-6.890894	618.089355	-7.557729	-7.607585	0.924962	1.230823	-1.222757
2.010	2.465273	-6.886159	618.105467	-7.515361	-7.578639	0.921237	1.226108	-1.215870
2.020	2.394610	-6.880239	618.239605	-7.471963	-7.551322	0.918939	1.221423	-1.208587
2.030	2.324914	-6.874087	618.453192	-7.427087	-7.525232	0.917266	1.216783	-1.200913
2.040	2.265368	-6.868896	618.690270	-7.379896	-7.498536	0.915102	1.212002	-1.192826
2.050	2.221185	-6.864871	618.895356	-7.329979	-7.468764	0.911631	1.206789	-1.184365
2.060	2.193253	-6.860591	619.029848	-7.277907	-7.434129	0.906804	1.200932	-1.175696
2.070	2.179222	-6.853193	619.080600	-7.225164	-7.394568	0.901409	1.194444	-1.167080
2.080	2.175382	-6.839426	619.057946	-7.173535	-7.351867	0.896681	1.187589	-1.158783
2.090	2.178220	-6.817349	618.985696	-7.124353	-7.308819	0.893726	1.180773	-1.150972
2.100	2.184898	-6.787944	618.889303	-7.077949	-7.267877	0.893094	1.174342	-1.143654
2.110	2.192901	-6.755598	618.788054	-7.033446	-7.229982	0.894710	1.168410	-1.136649
2.120	2.199746	-6.726838	618.693661	-6.988856	-7.194193	0.898086	1.162804	-1.129615
2.130	2.203325	-6.707872	618.613391	-6.941544	-7.158293	0.902643	1.157151	-1.122113
2.140	2.202536	-6.702304	618.553479	-6.889123	-7.119998	0.907938	1.151072	-1.113747
2.150	2.197407	-6.710153	618.519674	-6.830558	-7.078028	0.913727	1.144350	-1.104340
2.160	2.188432	-6.728247	618.515085	-6.767005	-7.032473	0.919866	1.136993	-1.094073
2.170	2.175722	-6.751417	618.537848	-6.701871	-6.984372	0.926135	1.129175	-1.083502
2.180	2.158867	-6.773937	618.580722	-6.639920	-6.934951	0.932120	1.121107	-1.073412
2.190	2.137822	-6.791012	618.633004	-6.585737	-6.884997	0.937266	1.112937	-1.064563
2.200	2.114376	-6.800098	618.684045	-6.542222	-6.834664	0.941119	1.104710	-1.057442
2.210	2.093096	-6.801663	618.727031	-6.509776	-6.783710	0.943641	1.096398	-1.052124
2.220	2.080645	-6.799025	618.760986	-6.486420	-6.731929	0.945393	1.087969	-1.048292
2.230	2.083227	-6.797132	618.789140	-6.468616	-6.679516	0.947474	1.079449	-1.045367
2.240	2.103338	-6.800614	618.813849	-6.452314	-6.627166	0.951181	1.070947	-1.042691
2.250	2.137697	-6.811750	618.831248	-6.433824	-6.575903	0.957517	1.062633	-1.039673
2.260	2.177768	-6.829169	618.829922	-6.410385	-6.526792	0.966714	1.054699	-1.035888
2.270	2.212885	-6.847996	618.796047	-6.380434	-6.480712	0.978003	1.047310	-1.031105
2.280	2.234544	-6.861766	618.723431	-6.343634	-6.438189	0.989741	1.040560	-1.025278
2.290	2.239756	-6.865487	618.623172	-6.300701	-6.399320	0.999878	1.034446	-1.018504
2.300	2.231845	-6.858297	618.526259	-6.253122	-6.363809	1.006623	1.028866	-1.010971
2.310	2.218417	-6.844089	618.475234	-6.202856	-6.331179	1.009065	1.023675	-1.002927
2.320	2.207621	-6.829737	618.507153	-6.152018	-6.301104	1.007526	1.018760	-0.994656
2.330	2.204506	-6.822034	618.635608	-6.102488	-6.273674	1.003439	1.014115	-0.986443
2.340	2.209033	-6.824862	618.841172	-6.055488	-6.249367	0.998763	1.009850	-0.978521
2.350	2.216358	-6.837602	619.076001	-6.011375	-6.228665	0.995150	1.006123	-0.971024
2.360	2.219039	-6.855069	619.281044	-5.969845	-6.211604	0.993274	1.003035	-0.963996
