Time[s]	Fx[N]	Fy[N]	Fz[N]	Mx[Nm]	My[Nm]	Mz[Nm]	COPx[cm]	COPy[cm]
0.010	8.845879	-1.867241	699.328003	-9.063243	2.509259	-0.498336	-0.358810	-1.295993
0.020	8.734908	-2.278972	693.867345	-9.861374	2.633003	-0.380997	-0.379468	-1.421219
0.030	8.589046	-2.747990	688.622577	-10.644010	2.799967	-0.264784	-0.406604	-1.545696
0.040	8.387044	-3.309907	683.797520	-11.395741	3.045267	-0.151257	-0.445346	-1.666537
0.050	8.122362	-3.965389	679.595039	-12.102047	3.392907	-0.042734	-0.499254	-1.780773
0.060	7.800688	-4.683015	676.199587	-12.752013	3.854773	0.057865	-0.570064	-1.885836
0.070	7.430415	-5.414109	673.758878	-13.341317	4.432705	0.147508	-0.657907	-1.980132
0.080	7.011076	-6.110765	672.374882	-13.873403	5.121801	0.223688	-0.761748	-2.063343
0.090	6.527150	-6.738072	672.108891	-14.357549	5.912878	0.284919	-0.879750	-2.136194
0.100	5.951929	-7.276473	672.995929	-14.804282	6.792977	0.330800	-1.009364	-2.199758
0.110	5.260098	-7.716580	675.057837	-15.220103	7.744092	0.361540	-1.147175	-2.254637
0.120	4.442862	-8.052244	678.304801	-15.603983	8.741258	0.377131	-1.288692	-2.300438
0.130	3.518749	-8.276872	682.719790	-15.947359	9.751564	0.376669	-1.428341	-2.335857
0.140	2.535760	-8.384642	688.226747	-16.237798	10.735540	0.358362	-1.559884	-2.359367
0.150	1.563889	-8.374996	694.650733	-16.464692	11.651599	0.320484	-1.677332	-2.370212
0.160	0.679771	-8.257087	701.685354	-16.624190	12.462877	0.262947	-1.776135	-2.369180
0.170	-0.052513	-8.050836	708.886661	-16.720766	13.144330	0.188702	-1.854222	-2.358736
0.180	-0.598246	-7.783019	715.708523	-16.764611	13.687260	0.104142	-1.912407	-2.342380
0.190	-0.959252	-7.479698	721.579997	-16.766304	14.099193	0.018092	-1.953934	-2.323554
0.200	-1.166825	-7.158879	726.005197	-16.731800	14.399010	-0.060235	-1.983321	-2.304639
0.210	-1.262654	-6.827463	728.652282	-16.660573	14.609379	-0.123421	-2.004986	-2.286492
0.220	-1.277085	-6.484013	729.400392	-16.547959	14.749676	-0.167200	-2.022165	-2.268707
0.230	-1.215962	-6.125308	728.331521	-16.390363	14.832016	-0.190575	-2.036437	-2.250399
0.240	-1.062029	-5.752670	725.677885	-16.190364	14.861322	-0.194994	-2.047923	-2.231068
0.250	-0.788573	-5.374590	721.751599	-15.958950	14.838503	-0.183245	-2.055902	-2.211142
0.260	-0.377176	-5.004784	716.884794	-15.713778	14.764753	-0.158626	-2.059571	-2.191953
0.270	0.168832	-4.657664	711.395900	-15.474592	14.645030	-0.124554	-2.058633	-2.175243
0.280	0.819831	-4.344602	705.580234	-15.258403	14.489683	-0.084433	-2.053584	-2.162533
0.290	1.524202	-4.073418	699.711512	-15.076934	14.314309	-0.041541	-2.045744	-2.154736
0.300	2.218133	-3.850774	694.041218	-14.937172	14.138569	0.001190	-2.037137	-2.152202
0.310	2.836595	-3.684899	688.791683	-14.843722	13.984685	0.041418	-2.030321	-2.155038
0.320	3.322494	-3.585946	684.148105	-14.800686	13.875787	0.077510	-2.028185	-2.163375
0.330	3.633501	-3.563313	680.257876	-14.811461	13.833890	0.108435	-2.033624	-2.177330
0.340	3.747771	-3.621516	677.240701	-14.876675	13.877263	0.133447	-2.049089	-2.196660
0.350	3.669059	-3.756835	675.203383	-14.991990	14.017508	0.151674	-2.076042	-2.220367
0.360	3.429036	-3.955986	674.246009	-15.147639	14.257301	0.161872	-2.114555	-2.246604
0.370	3.082465	-4.196918	674.447956	-15.330406	14.590105	0.162592	-2.163266	-2.273030
0.380	2.692271	-4.451269	675.833308	-15.527067	15.002648	0.152720	-2.219874	-2.297470
0.390	2.306904	-4.688138	678.329736	-15.727539	15.479760	0.132068	-2.282041	-2.318568
0.400	1.938707	-4.878823	681.743428	-15.926240	16.009680	0.101630	-2.348344	-2.336105
0.410	1.554636	-5.001913	685.769840	-16.121233	16.587260	0.063318	-2.418779	-2.350823
0.420	1.087134	-5.047486	690.046201	-16.311740	17.213080	0.019314	-2.494482	-2.363862
0.430	0.464513	-5.018827	694.233064	-16.495367	17.888308	-0.028683	-2.576701	-2.376056
0.440	-0.349358	-4.930624	698.096874	-16.666535	18.607166	-0.080013	-2.665413	-2.387424
0.450	-1.322455	-4.804148	701.561176	-16.817134	19.350242	-0.135153	-2.758169	-2.397102
0.460	-2.345265	-4.661424	704.703389	-16.939253	20.081880	-0.195150	-2.849693	-2.403742
0.470	-3.252891	-4.520735	707.693469	-17.028638	20.753484	-0.260484	-2.932553	-2.406217
0.480	-3.873471	-4.394722	710.692893	-17.086986	21.312318	-0.329801	-2.998808	-2.404271
0.490	-4.085025	-4.290758	713.749822	-17.121789	21.713156	-0.399244	-3.042124	-2.398850
0.500	-3.857321	-4.212298	716.732100	-17.143717	21.928840	-0.462882	-3.059559	-2.391928
0.510	-3.260778	-4.160009	719.329045	-17.162773	21.956061	-0.514213	-3.052297	-2.385942
0.520	-2.438695	-4.132195	721.126866	-17.184965	21.814379	-0.548079	-3.025040	-2.383071
0.530	-1.555345	-4.124730	721.731769	-17.210900	21.539151	-0.562163	-2.984371	-2.384667
0.540	-0.742323	-4.131091	720.894304	-17.236709	21.171338	-0.557429	-2.936816	-2.391018
0.550	-0.064200	-4.143113	718.588517	-17.256688	20.748131	-0.537453	-2.887345	-2.401470
0.560	0.486002	-4.152562	715.018903	-17.266393	20.297392	-0.507066	-2.838721	-2.414816
0.570	0.964335	-4.152921	710.557202	-17.264867	19.836991	-0.470998	-2.791751	-2.429765
0.580	1.438958	-4.140571	705.637248	-17.255126	19.378169	-0.433072	-2.746194	-2.445325
0.590	1.954341	-4.115037	700.649601	-17.242767	18.930781	-0.396092	-2.701890	-2.460969
0.600	2.509715	-4.078485	695.874382	-17.233357	18.507770	-0.362204	-2.659642	-2.476504
0.610	3.058503	-4.034801	691.471816	-17.229838	18.126716	-0.333372	-2.621468	-2.491763
0.620	3.527351	-3.988647	687.523059	-17.231192	17.807720	-0.311636	-2.590127	-2.506271
0.630	3.845782	-3.944903	684.091738	-17.233124	17.568744	-0.299032	-2.568185	-2.519125
0.640	3.973356	-3.908734	681.271172	-17.230611	17.420821	-0.297159	-2.557105	-2.529185
0.650	3.912961	-3.885834	679.195691	-17.221231	17.365519	-0.306557	-2.556777	-2.535533
0.660	3.705972	-3.881937	678.016508	-17.207724	17.395672	-0.326152	-2.565671	-2.537951
0.670	3.413843	-3.901033	677.859074	-17.198579	17.498664	-0.353047	-2.581460	-2.537191
0.680	3.096140	-3.943009	678.782211	-17.206295	17.660406	-0.382902	-2.601778	-2.534877
0.690	2.794499	-4.002333	680.752816	-17.243959	17.868203	-0.410859	-2.624771	-2.533072
0.700	2.526989	-4.069123	683.640687	-17.321465	18.111800	-0.432736	-2.649316	-2.533709
0.710	2.291822	-4.132531	687.231673	-17.442726	18.382973	-0.446045	-2.674931	-2.538114
0.720	2.076217	-4.184832	691.254802	-17.604828	18.674485	-0.450437	-2.701534	-2.546793
0.730	1.865802	-4.224112	695.418419	-17.799228	18.978944	-0.447437	-2.729140	-2.559499
0.740	1.651415	-4.254195	699.449410	-18.014193	19.287661	-0.439656	-2.757549	-2.575482
0.750	1.432426	-4.281779	703.128010	-18.237241	19.589519	-0.429834	-2.786053	-2.593730
0.760	1.217512	-4.311942	706.309871	-18.456624	19.870135	-0.420070	-2.813232	-2.613106
0.770	1.024293	-4.344028	708.928234	-18.661779	20.111983	-0.411399	-2.836956	-2.632393
0.780	0.878025	-4.370152	710.973130	-18.843472	20.296105	-0.403727	-2.854694	-2.650378
0.790	0.808115	-4.377672	712.452082	-18.994357	20.405484	-0.396001	-2.864120	-2.666054
0.800	0.841162	-4.355090	713.346256	-19.109992	20.429363	-0.386518	-2.863877	-2.678922
0.810	0.991248	-4.298821	713.582537	-19.189709	20.367166	-0.373299	-2.854213	-2.689207
0.820	1.250996	-4.217449	713.039134	-19.236641	20.230483	-0.354550	-2.837219	-2.697838
0.830	1.588375	-4.130875	711.588977	-19.256722	20.041991	-0.329135	-2.816512	-2.706158
0.840	1.952804	-4.064145	709.167643	-19.257014	19.831152	-0.296946	-2.796398	-2.715439
0.850	2.289995	-4.038493	705.839524	-19.244078	19.627776	-0.259000	-2.780770	-2.726410
0.860	2.560121	-4.063840	701.832954	-19.223014	19.455545	-0.217216	-2.772105	-2.738973
0.870	2.751265	-4.136291	697.524220	-19.197366	19.327685	-0.173996	-2.770898	-2.752215
0.880	2.881617	-4.241357	693.369641	-19.169669	19.246092	-0.131845	-2.775733	-2.764711
0.890	2.989050	-4.360661	689.806351	-19.142155	19.203803	-0.093204	-2.783941	-2.775004
0.900	3.112666	-4.478500	687.155370	-19.117182	19.189688	-0.060449	-2.792627	-2.782076
0.910	3.274269	-4.585391	685.559120	-19.097107	19.193814	-0.035828	-2.799731	-2.785625
0.920	3.467033	-4.677626	684.971670	-19.083628	19.211979	-0.021189	-2.804784	-2.786046
0.930	3.655103	-4.753900	685.200957	-19.077010	19.248125	-0.017584	-2.809121	-2.784148
0.940	3.783800	-4.811270	685.985383	-19.075791	19.313760	-0.024949	-2.815477	-2.780787
0.950	3.797078	-4.842885	687.077440	-19.077342	19.424415	-0.041977	-2.827107	-2.776593
0.960	3.656780	-4.838968	688.306404	-19.078997	19.594361	-0.066227	-2.846750	-2.771876
0.970	3.357051	-4.790845	689.600987	-19.078963	19.831662	-0.094487	-2.875817	-2.766667
0.980	2.927877	-4.696177	690.969238	-19.076388	20.135658	-0.123405	-2.914118	-2.760816
0.990	2.425310	-4.562830	692.450827	-19.070616	20.497688	-0.150256	-2.960165	-2.754075
1.000	1.912079	-4.409299	694.067490	-19.060330	20.904214	-0.173568	-3.011842	-2.746178
1.010	1.437585	-4.261042	695.794678	-19.043378	21.340402	-0.193342	-3.067055	-2.736925
1.020	1.026747	-4.143783	697.562661	-19.017635	21.792524	-0.210728	-3.124095	-2.726298
1.030	0.681663	-4.076068	699.277436	-18.982467	22.248728	-0.227219	-3.181674	-2.714583
1.040	0.391884	-4.063662	700.842808	-18.939852	22.699080	-0.243745	-3.238826	-2.702439
1.050	0.144086	-4.097706	702.170046	-18.894352	23.136125	-0.260116	-3.294946	-2.690851
1.060	-0.076105	-4.157293	703.174891	-18.851822	23.556553	-0.275132	-3.350028	-2.680958
1.070	-0.289686	-4.215729	703.772973	-18.817384	23.963108	-0.287215	-3.404949	-2.673786
1.080	-0.529644	-4.248679	703.887048	-18.793601	24.365050	-0.295140	-3.461500	-2.669974
1.090	-0.837607	-4.241607	703.471947	-18.779644	24.775761	-0.298461	-3.521926	-2.669565
1.100	-1.249319	-4.193755	702.549503	-18.771757	25.207689	-0.297575	-3.588030	-2.671948
1.110	-1.774873	-4.116905	701.234410	-18.764614	25.666455	-0.293608	-3.660182	-2.675940
1.120	-2.384741	-4.029199	699.732025	-18.752803	26.146641	-0.288309	-3.736665	-2.679998
1.130	-3.011236	-3.946706	698.301994	-18.731882	26.631078	-0.283942	-3.813691	-2.682490
1.140	-3.567386	-3.876712	697.199094	-18.698939	27.093883	-0.283089	-3.886104	-2.682008
1.150	-3.975776	-3.815962	696.613803	-18.652990	27.506087	-0.288285	-3.948542	-2.677666
1.160	-4.194340	-3.754480	696.634056	-18.595486	27.841926	-0.301471	-3.996636	-2.669333
1.170	-4.227866	-3.682526	697.238243	-18.530949	28.083846	-0.323361	-4.027869	-2.657764
1.180	-4.121509	-3.596656	698.315473	-18.467333	28.224886	-0.352904	-4.041853	-2.644554
1.190	-3.941272	-3.501865	699.700087	-18.415415	28.268155	-0.387108	-4.040039	-2.631901
1.200	-3.751200	-3.409502	701.206383	-18.386715	28.224148	-0.421423	-4.025084	-2.622155
1.210	-3.596232	-3.332894	702.655391	-18.390277	28.107243	-0.450695	-4.000146	-2.617254
1.220	-3.494886	-3.283222	703.893742	-18.429698	27.932472	-0.470437	-3.968280	-2.618250
1.230	-3.440755	-3.267299	704.809377	-18.502026	27.713040	-0.477945	-3.931991	-2.625111
1.240	-3.408805	-3.287711	705.346796	-18.599242	27.458467	-0.472781	-3.892903	-2.636893
1.250	-3.362486	-3.344722	705.518485	-18.711567	27.173092	-0.456463	-3.851507	-2.652172
1.260	-3.259923	-3.438473	705.404802	-18.830876	26.855030	-0.431591	-3.807038	-2.669513
1.270	-3.059893	-3.569888	705.135843	-18.952677	26.496135	-0.400890	-3.757593	-2.687805
1.280	-2.729056	-3.739551	704.855276	-19.076131	26.083692	-0.366576	-3.700574	-2.706390
1.290	-2.250553	-3.945168	704.674059	-19.202566	25.604101	-0.330140	-3.633467	-2.725028
1.300	-1.632128	-4.179165	704.627490	-19.333357	25.048010	-0.292414	-3.554787	-2.743770
1.310	-0.910838	-4.428044	704.650716	-19.467920	24.415577	-0.253737	-3.464919	-2.762776
1.320	-0.151645	-4.674284	704.584293	-19.602474	23.720141	-0.214193	-3.366544	-2.782133
1.330	0.561903	-4.900241	704.212676	-19.730005	22.988683	-0.173904	-3.264452	-2.801711
1.340	1.145082	-5.092446	703.327171	-19.841501	22.258309	-0.133307	-3.164716	-2.821091
1.350	1.534865	-5.244595	701.795255	-19.928122	21.569249	-0.093310	-3.073439	-2.839592
1.360	1.711720	-5.358406	699.613574	-19.983712	20.956252	-0.055290	-2.995404	-2.856393
1.370	1.710858	-5.442443	696.924762	-20.006960	20.441193	-0.020926	-2.933056	-2.870749
1.380	1.614901	-5.509331	693.990187	-20.002438	20.029481	0.008092	-2.886133	-2.882236
1.390	1.527102	-5.572033	691.128307	-19.979903	19.711569	0.030468	-2.852085	-2.890911
1.400	1.534190	-5.640295	688.641765	-19.951745	19.468839	0.045616	-2.827136	-2.897260
1.410	1.674346	-5.718461	686.757745	-19.929335	19.281347	0.053695	-2.807591	-2.901945
1.420	1.924148	-5.805288	685.596923	-19.919660	19.134342	0.055301	-2.790903	-2.905448
1.430	2.209441	-5.895401	685.174025	-19.923603	19.021265	0.051007	-2.776122	-2.907817
1.440	2.434364	-5.981358	685.423400	-19.936412	18.942691	0.041048	-2.763648	-2.908627
1.450	2.516014	-6.055272	686.237339	-19.949850	18.902341	0.025336	-2.754490	-2.907136
1.460	2.411731	-6.109525	687.503128	-19.954967	18.902328	0.003769	-2.749417	-2.902527
1.470	2.130449	-6.137004	689.126650	-19.944421	18.939757	-0.023348	-2.748371	-2.894159
1.480	1.726029	-6.131802	691.035953	-19.913743	19.006002	-0.054979	-2.750364	-2.881723
1.490	1.276656	-6.090860	693.166574	-19.861369	19.088787	-0.089277	-2.753853	-2.865310
1.500	0.858369	-6.015957	695.438671	-19.787728	19.175945	-0.123848	-2.757388	-2.845359
1.510	0.521907	-5.914676	697.740004	-19.693928	19.259006	-0.156327	-2.760198	-2.822531
1.520	0.280312	-5.799194	699.926207	-19.580620	19.334845	-0.185076	-2.762412	-2.797526
1.530	0.110843	-5.682810	701.841487	-19.447396	19.404651	-0.209624	-2.764820	-2.770910
1.540	-0.030359	-5.575393	703.352534	-19.292767	19.470818	-0.230564	-2.768287	-2.742973
1.550	-0.187220	-5.479566	704.380780	-19.114615	19.533388	-0.248885	-2.773129	-2.713676
1.560	-0.385025	-5.389356	704.917816	-18.910966	19.587781	-0.265121	-2.778733	-2.682719
1.570	-0.621449	-5.292069	705.016999	-18.680946	19.624867	-0.278817	-2.783602	-2.649716
1.580	-0.869913	-5.172839	704.766609	-18.425683	19.633275	-0.288613	-2.785784	-2.614438
1.590	-1.092252	-5.020114	704.258494	-18.148775	19.602873	-0.292886	-2.783477	-2.577005
1.600	-1.254297	-4.830020	703.566155	-17.855940	19.527901	-0.290640	-2.775560	-2.537919
1.610	-1.337902	-4.608086	702.739370	-17.553923	19.408525	-0.282232	-2.761838	-2.497928
1.620	-1.345538	-4.367790	701.813889	-17.249286	19.250333	-0.269617	-2.742940	-2.457815
1.630	-1.297030	-4.126607	700.828743	-16.947900	19.062094	-0.255940	-2.719936	-2.418266
1.640	-1.220808	-3.901104	699.842212	-16.655305	18.852531	-0.244590	-2.693826	-2.379866
1.650	-1.143326	-3.702948	698.939639	-16.377392	18.627056	-0.238098	-2.665045	-2.343177
1.660	-1.080000	-3.537270	698.229740	-16.120545	18.385337	-0.237363	-2.633136	-2.308774
1.670	-1.029770	-3.403716	697.829283	-15.890678	18.120440	-0.241513	-2.596687	-2.277158
1.680	-0.974177	-3.299227	697.838914	-15.691268	17.819901	-0.248430	-2.553584	-2.248552
1.690	-0.881044	-3.220757	698.315560	-15.521211	17.468535	-0.255657	-2.501524	-2.222664
1.700	-0.712255	-3.166327	699.248964	-15.373690	17.052171	-0.261280	-2.438641	-2.198600
1.710	-0.434221	-3.133821	700.550651	-15.236989	16.561174	-0.264398	-2.364022	-2.175002
1.720	-0.028384	-3.118203	702.061700	-15.097286	15.992663	-0.264964	-2.277957	-2.150421
1.730	0.501678	-3.108881	703.579898	-14.942467	15.350900	-0.263097	-2.181828	-2.123777
1.740	1.129100	-3.089190	704.898573	-14.765335	14.646063	-0.258334	-2.077755	-2.094675
1.750	1.808569	-3.039242	705.843467	-14.564722	13.892297	-0.249335	-1.968184	-2.063449
1.760	2.484800	-2.941854	706.295340	-14.343967	13.105996	-0.234320	-1.855597	-2.030874
1.770	3.101970	-2.789332	706.194515	-14.107520	12.304820	-0.212050	-1.742412	-1.997682
1.780	3.612779	-2.587738	705.533601	-13.857501	11.507121	-0.182840	-1.630981	-1.964116
1.790	3.987024	-2.355831	704.349125	-13.591910	10.730855	-0.149114	-1.523514	-1.929712
1.800	4.219178	-2.118330	702.718386	-13.305203	9.991363	-0.115169	-1.421816	-1.893390
1.810	4.332781	-1.896223	700.758487	-12.990638	9.298452	-0.086168	-1.326913	-1.853797
1.820	4.378168	-1.698518	698.619031	-12.643133	8.654287	-0.066701	-1.238771	-1.809732
1.830	4.421261	-1.519014	696.463632	-12.261288	8.053599	-0.059434	-1.156356	-1.760507
1.840	4.525029	-1.339066	694.444537	-11.847776	7.486538	-0.064333	-1.078061	-1.706080
1.850	4.729826	-1.134525	692.680656	-11.408137	6.943023	-0.078754	-1.002341	-1.646955
1.860	5.040804	-0.883464	691.247698	-10.948841	6.416626	-0.098363	-0.928267	-1.583924
1.870	5.428077	-0.571547	690.182308	-10.475871	5.906389	-0.118550	-0.855772	-1.517841
1.880	5.839401	-0.193741	689.494962	-9.994655	5.416073	-0.135769	-0.785513	-1.449562
1.890	6.219327	0.246582	689.182931	-9.511221	4.951601	-0.148260	-0.718474	-1.380072
1.900	6.526530	0.738921	689.236147	-9.033645	4.518065	-0.155936	-0.655518	-1.310675
1.910	6.743271	1.265778	689.634566	-8.572639	4.117500	-0.159789	-0.597055	-1.243070
1.920	6.875537	1.801899	690.342220	-8.140714	3.748010	-0.161313	-0.542921	-1.179229
1.930	6.946447	2.314352	691.305828	-7.750191	3.404269	-0.162233	-0.492440	-1.121094
1.940	6.986991	2.765164	692.461797	-7.410970	3.079044	-0.164385	-0.444652	-1.070235
1.950	7.027488	3.117068	693.748331	-7.129139	2.765143	-0.169463	-0.398580	-1.027626
1.960	7.091642	3.341274	695.115909	-6.907037	2.457028	-0.178570	-0.353470	-0.993653
1.970	7.194124	3.425098	696.532017	-6.744601	2.151381	-0.191785	-0.308870	-0.968312
1.980	7.341878	3.376964	697.980398	-6.641147	1.846352	-0.207990	-0.264528	-0.951480
1.990	7.538271	3.226701	699.456274	-6.596519	1.539876	-0.225070	-0.220153	-0.943092
2.000	7.787615	3.020150	700.957131	-6.610983	1.228057	-0.240351	-0.175197	-0.943137
2.010	8.096869	2.808803	702.467983	-6.683891	0.904730	-0.251085	-0.128793	-0.951487
2.020	8.472597	2.637010	703.943266	-6.811806	0.562755	-0.254843	-0.079943	-0.967664
2.030	8.914184	2.530764	705.292273	-6.987073	0.196686	-0.249810	-0.027887	-0.990663
2.040	9.407051	2.492140	706.376697	-7.197593	-0.194242	-0.235032	0.027498	-1.018945
2.050	9.920197	2.501610	707.025302	-7.427925	-0.604061	-0.210648	0.085437	-1.050588
2.060	10.410318	2.527297	707.064185	-7.661127	-1.019816	-0.178089	0.144232	-1.083512
2.070	10.831349	2.537359	706.354990	-7.880637	-1.423286	-0.140056	0.201497	-1.115677
2.080	11.145735	2.510599	704.829846	-8.071949	-1.794112	-0.100068	0.254545	-1.145234
2.090	11.333062	2.441463	702.511916	-8.224363	-2.113174	-0.061518	0.300803	-1.170708
2.100	11.392945	2.338178	699.514902	-8.332913	-2.365033	-0.026524	0.338096	-1.191242
2.110	11.341440	2.215838	696.023196	-8.399944	-2.538771	0.004906	0.364754	-1.206848
2.120	11.203002	2.088197	692.262714	-8.435357	-2.627493	0.034875	0.379551	-1.218520
2.130	11.002001	1.961891	688.475487	-8.454991	-2.627459	0.066590	0.381634	-1.228074
2.140	10.757788	1.834972	684.905948	-8.477504	-2.537852	0.102723	0.370540	-1.237762
2.150	10.484748	1.699375	681.796464	-8.520774	-2.361485	0.143875	0.346362	-1.249753
2.160	10.195062	1.545359	679.381504	-8.598985	-2.105770	0.187889	0.309954	-1.265708
2.170	9.900020	1.365771	677.869940	-8.721223	-1.782785	0.230338	0.262998	-1.286563
2.180	9.607191	1.158755	677.413736	-8.891734	-1.407556	0.265904	0.207784	-1.312600
2.190	9.314560	0.928548	678.072994	-9.111235	-0.994743	0.290016	0.146702	-1.343695
2.200	9.005917	0.684625	679.794178	-9.378261	-0.555123	0.300063	0.081660	-1.379574
2.210	8.651871	0.439631	682.415533	-9.689648	-0.093723	0.295815	0.013734	-1.419904
2.220	8.218055	0.206641	685.702454	-10.040003	0.389065	0.278990	-0.056740	-1.464192
2.230	7.678303	-0.003589	689.402216	-10.420788	0.893523	0.252260	-0.129608	-1.511569
2.240	7.028052	-0.184681	693.298609	-10.820051	1.415447	0.218120	-0.204161	-1.560662
2.250	6.292706	-0.335477	697.245936	-11.223409	1.942161	0.178143	-0.278547	-1.609677
2.260	5.527153	-0.459337	701.168865	-11.616168	2.451738	0.132941	-0.349664	-1.656686
2.270	4.805283	-0.561989	705.028190	-11.985797	2.916150	0.082805	-0.413622	-1.700045
2.280	4.201588	-0.648874	708.768092	-12.323848	3.307468	0.028640	-0.466650	-1.738770
2.290	3.770255	-0.723458	712.270576	-12.626728	3.604857	-0.027331	-0.506108	-1.772743
2.300	3.529490	-0.787617	715.340602	-12.895309	3.799698	-0.081466	-0.531173	-1.802681
