Time[s]	Fx[N]	Fy[N]	Fz[N]	Mx[Nm]	My[Nm]	Mz[Nm]	COPx[cm]	COPy[cm]
0.010	6.911365	-1.504055	659.444946	1.764273	-4.769316	-0.253477	0.723232	0.267539
0.020	7.161406	-1.592343	658.760714	1.829752	-4.956434	-0.229068	0.752388	0.277757
0.030	7.398180	-1.658585	658.120076	1.905877	-5.127830	-0.208867	0.779163	0.289594
0.040	7.608503	-1.684941	657.559323	2.001124	-5.269302	-0.195744	0.801342	0.304326
0.050	7.780517	-1.660627	657.104541	2.120822	-5.370034	-0.190476	0.817227	0.322753
0.060	7.905694	-1.583299	656.773504	2.266368	-5.423861	-0.191777	0.825834	0.345076
0.070	7.980806	-1.458316	656.579445	2.435472	-5.429633	-0.197057	0.826958	0.370933
0.080	8.008885	-1.296120	656.532343	2.623355	-5.390552	-0.203514	0.821064	0.399577
0.090	7.998253	-1.108779	656.635095	2.824244	-5.312509	-0.209078	0.809050	0.430109
0.100	7.959329	-0.907098	656.876124	3.032385	-5.201724	-0.212905	0.791888	0.461637
0.110	7.899840	-0.699473	657.223128	3.242232	-5.062330	-0.215370	0.770261	0.493323
0.120	7.820030	-0.492957	657.622314	3.448099	-4.894623	-0.217821	0.744291	0.524328
0.130	7.709939	-0.295880	658.004519	3.643842	-4.694543	-0.222336	0.713452	0.553772
0.140	7.550586	-0.120324	658.297435	3.823007	-4.454634	-0.231449	0.676690	0.580742
0.150	7.319726	0.017605	658.442449	3.979533	-4.166389	-0.247612	0.632764	0.604386
0.160	7.000995	0.100786	658.413391	4.108823	-3.823511	-0.272314	0.580716	0.624049
0.170	6.593315	0.116529	658.231459	4.208867	-3.425311	-0.305118	0.520381	0.639420
0.180	6.116426	0.062202	657.967910	4.281069	-2.979240	-0.343144	0.452794	0.650650
0.190	5.609140	-0.051305	657.727994	4.330445	-2.501617	-0.381394	0.380342	0.658394
0.200	5.119690	-0.199712	657.617476	4.365060	-2.015902	-0.413961	0.306546	0.663769
0.210	4.691146	-0.349455	657.703630	4.394822	-1.548560	-0.435753	0.235450	0.668207
0.220	4.347822	-0.465111	657.988341	4.429873	-1.123490	-0.444093	0.170746	0.673245
0.230	4.088811	-0.518421	658.406645	4.478796	-0.756782	-0.439576	0.114941	0.680248
0.240	3.891628	-0.496086	658.851236	4.546872	-0.453674	-0.425825	0.068858	0.690121
0.250	3.723857	-0.403341	659.210480	4.634862	-0.208678	-0.408269	0.031656	0.703093
0.260	3.556854	-0.261551	659.402504	4.738907	-0.008537	-0.392414	0.001295	0.718667
0.270	3.375293	-0.100502	659.393118	4.851839	0.163362	-0.382311	-0.024775	0.735804
0.280	3.179305	0.051515	659.195619	4.965511	0.322758	-0.379670	-0.048962	0.753268
0.290	2.979758	0.175836	658.858909	5.073274	0.481734	-0.383789	-0.073116	0.770009
0.300	2.789967	0.267045	658.452266	5.171796	0.647865	-0.392171	-0.098392	0.785447
0.310	2.617856	0.331725	658.051656	5.261690	0.824995	-0.401551	-0.125369	0.799586
0.320	2.461768	0.383935	657.727947	5.346842	1.014728	-0.408982	-0.154278	0.812926
0.330	2.311258	0.439534	657.535751	5.432685	1.217572	-0.412598	-0.185172	0.826219
0.340	2.152029	0.510987	657.503312	5.524110	1.433173	-0.411823	-0.217972	0.840165
0.350	1.972519	0.603701	657.626248	5.623761	1.659815	-0.407086	-0.252395	0.855161
0.360	1.769238	0.714644	657.868177	5.731310	1.893917	-0.399312	-0.287887	0.871194
0.370	1.548803	0.833660	658.169209	5.843817	2.130216	-0.389503	-0.323658	0.887890
0.380	1.326098	0.947083	658.460482	5.956854	2.362871	-0.378603	-0.358848	0.904664
0.390	1.119286	1.042328	658.680513	6.065749	2.587160	-0.367608	-0.392779	0.920894
0.400	0.943347	1.111718	658.787877	6.166408	2.801135	-0.357730	-0.425195	0.936023
0.410	0.804312	1.154180	658.766513	6.255504	3.006559	-0.350420	-0.456392	0.949578
0.420	0.696235	1.174348	658.624504	6.330274	3.208725	-0.347191	-0.487186	0.961136
0.430	0.601908	1.179703	658.390690	6.388401	3.415212	-0.349279	-0.518721	0.970305
0.440	0.496933	1.177182	658.112102	6.428300	3.633879	-0.357261	-0.552167	0.976779
0.450	0.356065	1.170774	657.850829	6.449735	3.870554	-0.370663	-0.588363	0.980425
0.460	0.160464	1.161028	657.676255	6.454301	4.126832	-0.387727	-0.627487	0.981380
0.470	-0.095928	1.146538	657.650550	6.445368	4.398481	-0.405503	-0.668817	0.980060
0.480	-0.403109	1.126706	657.810063	6.427427	4.675012	-0.420382	-0.710693	0.977095
0.490	-0.736442	1.104577	658.149229	6.405199	4.940801	-0.429012	-0.750711	0.973214
0.500	-1.062503	1.088300	658.614340	6.382900	5.177623	-0.429319	-0.786139	0.969141
0.510	-1.347099	1.090052	659.111527	6.363844	5.367959	-0.421292	-0.814423	0.965519
0.520	-1.562606	1.122281	659.527742	6.350261	5.498175	-0.407140	-0.833653	0.962850
0.530	-1.692683	1.192540	659.758263	6.343075	5.560913	-0.390685	-0.842871	0.961424
0.540	-1.733817	1.299290	659.732649	6.341568	5.556277	-0.376220	-0.842201	0.961233
0.550	-1.694027	1.430909	659.433151	6.343055	5.491664	-0.367276	-0.832786	0.961895
0.560	-1.589674	1.568588	658.902207	6.342810	5.380289	-0.365747	-0.816553	0.962633
0.570	-1.441764	1.691695	658.236872	6.334519	5.238638	-0.371615	-0.795859	0.962346
0.580	-1.272861	1.783041	657.569345	6.311379	5.083319	-0.383250	-0.773047	0.959804
0.590	-1.104664	1.831991	657.036714	6.267637	4.927847	-0.398058	-0.750011	0.953925
0.600	-0.955429	1.834803	656.748359	6.199951	4.779953	-0.413156	-0.727821	0.944038
0.610	-0.836770	1.793015	656.761236	6.107965	4.639987	-0.425861	-0.706495	0.930013
0.620	-0.750466	1.711268	657.068881	5.993900	4.500921	-0.433938	-0.685000	0.912218
0.630	-0.686639	1.595716	657.603602	5.861563	4.350106	-0.435752	-0.661509	0.891352
0.640	-0.624673	1.453444	658.249042	5.715415	4.172484	-0.430460	-0.633876	0.868275
0.650	-0.537523	1.292460	658.862237	5.560107	3.954451	-0.418252	-0.600194	0.843895
0.660	-0.398739	1.121443	659.304746	5.400350	3.687284	-0.400505	-0.559269	0.819098
0.670	-0.190064	0.948665	659.477992	5.240667	3.369101	-0.379651	-0.510874	0.794669
0.680	0.093307	0.780280	659.351851	5.084737	3.004830	-0.358703	-0.455725	0.771172
0.690	0.442006	0.618808	658.974713	4.934570	2.604352	-0.340562	-0.395213	0.748825
0.700	0.836432	0.462679	658.459359	4.789943	2.179477	-0.327388	-0.330996	0.727447
0.710	1.253277	0.307279	657.948209	4.648337	1.740797	-0.320302	-0.264580	0.706490
0.720	1.671557	0.147273	657.569390	4.505282	1.295553	-0.319552	-0.197022	0.685142
0.730	2.075790	-0.020781	657.399012	4.355049	0.847362	-0.324976	-0.128896	0.662467
0.740	2.455758	-0.196909	657.442915	4.191741	0.397870	-0.336473	-0.060518	0.637583
0.750	2.804147	-0.378174	657.643189	4.010667	-0.050608	-0.354195	0.007695	0.609854
0.760	3.114269	-0.560660	657.904901	3.809645	-0.492988	-0.378367	0.074933	0.579057
0.770	3.379663	-0.741511	658.131458	3.589790	-0.921066	-0.408836	0.139952	0.545452
0.780	3.595834	-0.919668	658.255305	3.355471	-1.325099	-0.444623	0.201305	0.509752
0.790	3.762725	-1.095170	658.254402	3.113412	-1.696498	-0.483673	0.257727	0.472980
0.800	3.886048	-1.268041	658.151967	2.871103	-2.030388	-0.522929	0.308498	0.436237
0.810	3.976521	-1.437969	658.003217	2.634963	-2.327174	-0.558733	0.353672	0.400448
0.820	4.047462	-1.605087	657.875679	2.408819	-2.592813	-0.587497	0.394119	0.366151
0.830	4.111962	-1.771036	657.829664	2.193250	-2.837876	-0.606501	0.431400	0.333407
0.840	4.180796	-1.939167	657.903895	1.986003	-3.075605	-0.614481	0.467485	0.301868
0.850	4.261627	-2.113321	658.108090	1.783195	-3.319389	-0.611760	0.504384	0.270958
0.860	4.359492	-2.295686	658.420918	1.580757	-3.580266	-0.599821	0.543766	0.240083
0.870	4.478078	-2.484929	658.791035	1.375686	-3.865053	-0.580586	0.586689	0.208820
0.880	4.621078	-2.675882	659.141732	1.166989	-4.175413	-0.555807	0.633462	0.177047
0.890	4.792870	-2.861177	659.382494	0.956185	-4.507829	-0.526887	0.683644	0.145012
0.900	4.997760	-3.033976	659.429228	0.747162	-4.854305	-0.495145	0.736137	0.113304
0.910	5.237545	-3.190192	659.229344	0.545110	-5.203590	-0.462232	0.789344	0.082689
0.920	5.508207	-3.329026	658.782979	0.354759	-5.542811	-0.430280	0.841371	0.053851
0.930	5.797605	-3.451890	658.151381	0.178709	-5.859300	-0.401600	0.890266	0.027153
0.940	6.086001	-3.560799	657.447731	0.016760	-6.142312	-0.378050	0.934266	0.002549
0.950	6.349794	-3.657327	656.811943	-0.133399	-6.384281	-0.360443	0.972011	-0.020310
0.960	6.567012	-3.742546	656.376588	-0.274649	-6.581413	-0.348315	1.002689	-0.041843
0.970	6.722196	-3.817540	656.234106	-0.408950	-6.733645	-0.340196	1.026104	-0.062318
0.980	6.808951	-3.883782	656.414674	-0.536691	-6.844229	-0.334276	1.042668	-0.081761
0.990	6.829893	-3.942944	656.880493	-0.657078	-6.919190	-0.329123	1.053341	-0.100030
1.000	6.794966	-3.996421	657.537514	-0.769188	-6.966814	-0.324120	1.059531	-0.116980
1.010	6.719418	-4.045197	658.260924	-0.872915	-6.997186	-0.319453	1.062981	-0.132609
1.020	6.622285	-4.090375	658.926871	-0.969134	-7.021725	-0.315671	1.065630	-0.147078
1.030	6.525320	-4.133899	659.441012	-1.058876	-7.052591	-0.313069	1.069480	-0.160572
1.040	6.451619	-4.178501	659.755598	-1.141985	-7.101873	-0.311191	1.076440	-0.173092
1.050	6.423240	-4.226217	659.870765	-1.216050	-7.180492	-0.308733	1.088166	-0.184286
1.060	6.457853	-4.275886	659.821459	-1.276235	-7.296915	-0.303962	1.105892	-0.193421
1.070	6.565407	-4.321155	659.656840	-1.316157	-7.455888	-0.295480	1.130268	-0.199521
1.080	6.746070	-4.350804	659.421639	-1.329581	-7.657542	-0.282997	1.161251	-0.201628
1.090	6.990265	-4.352093	659.146975	-1.312512	-7.897168	-0.267726	1.198089	-0.199123
1.100	7.280793	-4.315904	658.852615	-1.265014	-8.165802	-0.252193	1.239397	-0.192003
1.110	7.596497	-4.241109	658.556599	-1.192027	-8.451545	-0.239467	1.283344	-0.181006
1.120	7.916594	-4.135857	658.284797	-1.102621	-8.741486	-0.232093	1.327919	-0.167499
1.130	8.224659	-4.015113	658.073545	-1.007676	-9.023866	-0.231139	1.371255	-0.153125
1.140	8.511175	-3.895657	657.962389	-0.916625	-9.289996	-0.235758	1.411934	-0.139313
1.150	8.773967	-3.790823	657.979353	-0.834463	-9.535318	-0.243478	1.449182	-0.126822
1.160	9.016600	-3.707028	658.125418	-0.760290	-9.759252	-0.251155	1.482886	-0.115524
1.170	9.245581	-3.643001	658.365966	-0.688116	-9.963774	-0.256207	1.513410	-0.104519
1.180	9.467269	-3.591404	658.634183	-0.609592	-10.151098	-0.257584	1.541235	-0.092554
1.190	9.684973	-3.541870	658.846423	-0.517370	-10.321244	-0.256024	1.566563	-0.078527
1.200	9.896536	-3.484268	658.924771	-0.407532	-10.470395	-0.253474	1.589012	-0.061848
1.210	10.092975	-3.411169	658.819666	-0.280078	-10.590744	-0.252015	1.607533	-0.042512
1.220	10.258995	-3.318860	658.526122	-0.137468	-10.671859	-0.252864	1.620567	-0.020875
1.230	10.375789	-3.206781	658.089259	0.017745	-10.703057	-0.255919	1.626384	0.002696
1.240	10.425619	-3.075770	657.596816	0.184763	-10.675952	-0.259952	1.623480	0.028097
1.250	10.396815	-2.926065	657.158836	0.364889	-10.586448	-0.263270	1.610942	0.055525
1.260	10.287353	-2.756239	656.878640	0.560402	-10.435643	-0.264433	1.588671	0.085313
1.270	10.105505	-2.563851	656.823366	0.772800	-10.229302	-0.262713	1.557390	0.117657
1.280	9.866990	-2.347741	657.003797	1.001398	-9.975925	-0.258144	1.518397	0.152419
1.290	9.589459	-2.111004	657.370418	1.242946	-9.683946	-0.251281	1.473134	0.189079
1.300	9.286435	-1.863125	657.826946	1.492399	-9.359177	-0.242928	1.422742	0.226868
1.310	8.963291	-1.619741	658.257033	1.744352	-9.003648	-0.234067	1.367801	0.264996
1.320	8.616931	-1.399325	658.556718	1.994281	-8.616393	-0.226000	1.308375	0.302826
1.330	8.239124	-1.217577	658.663968	2.238842	-8.195780	-0.220512	1.244304	0.339907
1.340	7.821875	-1.081709	658.576926	2.475156	-7.742242	-0.219802	1.175602	0.375834
1.350	7.362668	-0.987254	658.354628	2.699810	-7.260161	-0.226053	1.102774	0.410085
1.360	6.867754	-0.919156	658.098451	2.908544	-6.758265	-0.240713	1.026938	0.441962
1.370	6.352341	-0.857080	657.919031	3.097038	-6.248557	-0.263811	0.949746	0.470732
1.380	5.837585	-0.782781	657.899624	3.262441	-5.744337	-0.293689	0.873133	0.495887
1.390	5.345437	-0.686175	658.069041	3.404807	-5.257959	-0.327344	0.798998	0.517394
1.400	4.893553	-0.567265	658.393645	3.527706	-4.798877	-0.361209	0.728877	0.535805
1.410	4.492568	-0.433405	658.790175	3.637791	-4.372357	-0.392012	0.663695	0.552193
1.420	4.146711	-0.293870	659.153521	3.743622	-3.979075	-0.417435	0.603664	0.567944
1.430	3.856673	-0.154664	659.388975	3.854353	-3.615607	-0.436435	0.548327	0.584534
1.440	3.622363	-0.015634	659.438363	3.978605	-3.275625	-0.449220	0.496730	0.603332
1.450	3.443547	0.129501	659.292825	4.123504	-2.951421	-0.456894	0.447665	0.625443
1.460	3.317988	0.290705	658.990088	4.293709	-2.635285	-0.460895	0.399897	0.651559
1.470	3.238267	0.477690	658.598860	4.490512	-2.320339	-0.462423	0.352315	0.681828
1.480	3.189257	0.695773	658.196444	4.711360	-2.000663	-0.462094	0.303961	0.715798
1.490	3.148058	0.942945	657.847084	4.950165	-1.670857	-0.459959	0.253989	0.752480
1.500	3.087282	1.209097	657.588178	5.198367	-1.325496	-0.455850	0.201569	0.790520
1.510	2.981173	1.477508	657.428879	5.446319	-0.959026	-0.449836	0.145875	0.828427
1.520	2.812625	1.728004	657.360651	5.684409	-0.566540	-0.442510	0.086184	0.864732
1.530	2.578387	1.940969	657.373101	5.903689	-0.145357	-0.434973	0.022112	0.898073
1.540	2.290083	2.101270	657.464982	6.096247	0.303198	-0.428533	-0.046116	0.927235
1.550	1.970204	2.201101	657.642750	6.255780	0.772665	-0.424244	-0.117490	0.951243
1.560	1.644305	2.241030	657.907031	6.378636	1.251738	-0.422470	-0.190261	0.969535
1.570	1.332577	2.229251	658.235988	6.464968	1.726176	-0.422715	-0.262243	0.982166
1.580	1.044475	2.179603	658.578228	6.519252	2.181846	-0.423860	-0.331296	0.989898
1.590	0.778663	2.109020	658.863329	6.549600	2.607757	-0.424684	-0.395796	0.994076
1.600	0.527694	2.034863	659.027400	6.565906	2.997887	-0.424325	-0.454896	0.996302
1.610	0.284422	1.972400	659.040917	6.577413	3.351221	-0.422431	-0.508500	0.998028
1.620	0.046540	1.932513	658.923282	6.590485	3.670261	-0.419036	-0.557009	1.000190
1.630	-0.182658	1.919777	658.735152	6.607192	3.958954	-0.414392	-0.600993	1.003012
1.640	-0.396621	1.931447	658.551822	6.625088	4.221044	-0.408895	-0.640958	1.006009
1.650	-0.588739	1.958176	658.431074	6.638180	4.459433	-0.403115	-0.677282	1.008181
1.660	-0.754362	1.986954	658.391151	6.638657	4.676474	-0.397857	-0.710288	1.008315
1.670	-0.891025	2.005559	658.408774	6.618629	4.874549	-0.394164	-0.740353	1.005246
1.680	-0.997625	2.006664	658.437113	6.571278	5.056153	-0.393184	-0.767902	0.998011
1.690	-1.073675	1.989474	658.434240	6.491334	5.223073	-0.395876	-0.793257	0.985874
1.700	-1.119108	1.957815	658.387472	6.375188	5.374916	-0.402603	-0.816376	0.968303
1.710	-1.134307	1.915509	658.320902	6.220961	5.507889	-0.412757	-0.836657	0.944974
1.720	-1.119911	1.861484	658.282234	6.028667	5.614866	-0.424594	-0.852957	0.915818
1.730	-1.076755	1.787395	658.316372	5.800389	5.687243	-0.435517	-0.863907	0.881095
1.740	-1.006787	1.679344	658.440339	5.540330	5.718044	-0.442836	-0.868422	0.841432
1.750	-0.915027	1.523222	658.632412	5.254549	5.704977	-0.444795	-0.866185	0.797797
1.760	-0.811239	1.311329	658.839317	4.950283	5.651994	-0.441367	-0.857871	0.751364
1.770	-0.709453	1.047032	658.995787	4.634866	5.568586	-0.434357	-0.845011	0.703323
1.780	-0.624679	0.744911	659.047177	4.314463	5.466984	-0.426696	-0.829529	0.654652
1.790	-0.567905	0.426007	658.967843	3.993100	5.358283	-0.421192	-0.813133	0.605963
1.800	-0.541404	0.110388	658.771049	3.672497	5.248761	-0.419316	-0.796750	0.557477
1.810	-0.536293	-0.189331	658.507471	3.352852	5.137643	-0.420571	-0.780195	0.509159
1.820	-0.533464	-0.470557	658.251095	3.034055	5.017068	-0.422729	-0.762181	0.460927
1.830	-0.507907	-0.738567	658.075610	2.716563	4.874332	-0.422833	-0.740695	0.412804
1.840	-0.435155	-1.001202	658.029488	2.401427	4.695626	-0.418538	-0.713589	0.364942
1.850	-0.297480	-1.263348	658.120002	2.089729	4.469889	-0.409190	-0.679191	0.317530
1.860	-0.087247	-1.523993	658.313210	1.782119	4.191381	-0.396156	-0.636685	0.270710
1.870	0.193895	-1.777030	658.549196	1.478916	3.860168	-0.382278	-0.586162	0.224572
1.880	0.539023	-2.014809	658.764351	1.180613	3.480717	-0.370748	-0.528371	0.179216
1.890	0.940347	-2.232224	658.910273	0.888349	3.059639	-0.363937	-0.464348	0.134821
1.900	1.391327	-2.429373	658.962714	0.603966	2.603993	-0.362676	-0.395165	0.091654
1.910	1.885652	-2.611969	658.919868	0.329622	2.121092	-0.366195	-0.321904	0.050025
1.920	2.414419	-2.789725	658.793720	0.067176	1.619784	-0.372632	-0.245871	0.010197
1.930	2.963795	-2.973423	658.600196	-0.182333	1.112126	-0.379834	-0.168862	-0.027685
1.940	3.514836	-3.171716	658.353423	-0.418943	0.613993	-0.386116	-0.093262	-0.063635
1.950	4.045537	-3.388729	658.066602	-0.643715	0.143741	-0.390734	-0.021843	-0.097819
1.960	4.533872	-3.623081	657.757666	-0.858351	-0.280833	-0.393934	0.042695	-0.130496
1.970	4.960387	-3.868424	657.454543	-1.064517	-0.645998	-0.396636	0.098257	-0.161915
1.980	5.309719	-4.115098	657.195203	-1.263121	-0.944699	-0.399934	0.143747	-0.192199
1.990	5.571364	-4.352347	657.020936	-1.453797	-1.177354	-0.404621	0.179196	-0.221271
2.000	5.740287	-4.570355	656.964752	-1.634775	-1.350748	-0.410910	0.205604	-0.248838
2.010	5.817707	-4.761458	657.039160	-1.803156	-1.475593	-0.418407	0.224582	-0.274437
2.020	5.811742	-4.920248	657.228909	-1.955390	-1.563651	-0.426249	0.237916	-0.297520
2.030	5.737322	-5.043056	657.493188	-2.087676	-1.625308	-0.433324	0.247198	-0.317521
2.040	5.615040	-5.127693	657.777391	-2.196071	-1.668144	-0.438467	0.253603	-0.333862
2.050	5.469080	-5.173988	658.029705	-2.276441	-1.696657	-0.440639	0.257839	-0.345948
2.060	5.324633	-5.184699	658.216086	-2.324583	-1.713008	-0.439046	0.260250	-0.353164
2.070	5.205187	-5.165703	658.328762	-2.336772	-1.718445	-0.433236	0.261031	-0.354955
2.080	5.129884	-5.124658	658.386085	-2.310702	-1.714858	-0.423188	0.260464	-0.350965
2.090	5.110967	-5.068372	658.423764	-2.246395	-1.705811	-0.409438	0.259075	-0.341178
2.100	5.151486	-5.000120	658.479508	-2.146534	-1.696505	-0.393185	0.257640	-0.325983
2.110	5.244026	-4.918309	658.575544	-2.015952	-1.692582	-0.376277	0.257006	-0.306108
2.120	5.371537	-4.817305	658.705750	-1.860637	-1.698220	-0.360951	0.257812	-0.282469
2.130	5.510866	-4.690299	658.834254	-1.686859	-1.714427	-0.349334	0.260221	-0.256037
2.140	5.638377	-4.533136	658.908472	-1.500759	-1.738368	-0.342800	0.263825	-0.227764
2.150	5.735839	-4.347514	658.882332	-1.308226	-1.764140	-0.341452	0.267747	-0.198552
2.160	5.794377	-4.142011	658.738874	-1.114717	-1.784605	-0.343938	0.270912	-0.169220
2.170	5.815131	-3.930287	658.500464	-0.924844	-1.793369	-0.347722	0.272341	-0.140447
2.180	5.806848	-3.727037	658.221491	-0.741768	-1.785992	-0.349771	0.271336	-0.112693
2.190	5.781885	-3.543266	657.968189	-0.566539	-1.760078	-0.347449	0.267502	-0.086104
2.200	5.752261	-3.382618	657.796154	-0.397549	-1.714585	-0.339309	0.260656	-0.060436
2.210	5.726535	-3.239875	657.735073	-0.230277	-1.649058	-0.325484	0.250718	-0.035011
2.220	5.707688	-3.101917	657.784918	-0.057685	-1.563273	-0.307544	0.237657	-0.008770
2.230	5.692301	-2.950905	657.922377	0.128484	-1.457335	-0.287887	0.221506	0.019529
2.240	5.671640	-2.768979	658.112511	0.335629	-1.331981	-0.268910	0.202394	0.050999
2.250	5.634707	-2.543389	658.319731	0.568139	-1.188861	-0.252239	0.180590	0.086301
2.260	5.572156	-2.270606	658.514146	0.826094	-1.030559	-0.238349	0.156498	0.125448
2.270	5.479230	-1.957972	658.672569	1.105513	-0.860189	-0.226712	0.130594	0.167840
2.280	5.356348	-1.621945	658.776377	1.400083	-0.680447	-0.216385	0.103289	0.212528
2.290	5.207263	-1.283141	658.809894	1.703511	-0.492354	-0.206711	0.074734	0.258574
2.300	5.036042	-0.959812	658.762100	2.011304	-0.294252	-0.197754	0.044667	0.305316
2.310	4.844526	-0.662399	658.631705	2.321198	-0.081738	-0.190297	0.012410	0.352427
2.320	4.631387	-0.391523	658.432747	2.632391	0.151094	-0.185496	-0.022948	0.399797
2.330	4.392993	-0.140239	658.196935	2.944392	0.409429	-0.184404	-0.062205	0.447342
2.340	4.125711	0.100773	657.970149	3.256139	0.695390	-0.187610	-0.105687	0.494876
2.350	3.829022	0.337799	657.803182	3.565538	1.006502	-0.195093	-0.153010	0.542037
2.360	3.508596	0.570927	657.739749	3.869268	1.335481	-0.206271	-0.203041	0.588267
2.370	3.178236	0.794075	657.806317	4.162806	1.671317	-0.220143	-0.254074	0.632832
2.380	2.859639	0.997765	658.007246	4.440787	2.001111	-0.235469	-0.304117	0.674884
2.390	2.579440	1.173433	658.325485	4.697651	2.312028	-0.250965	-0.351198	0.713576
