Time[s]	Fx[N]	Fy[N]	Fz[N]	Mx[Nm]	My[Nm]	Mz[Nm]	COPx[cm]	COPy[cm]
0.010	9.154825	-0.184184	592.102087	-14.841321	-11.653793	-0.067139	1.968207	-2.506548
0.020	6.683603	-0.131118	594.016424	-14.601075	-10.016564	-0.174596	1.686244	-2.458026
0.030	4.598952	-0.012006	597.370380	-14.390827	-8.511330	-0.273552	1.424799	-2.409029
0.040	3.160338	0.208392	603.176174	-14.230609	-7.238103	-0.359505	1.199998	-2.359279
0.050	2.424505	0.515806	611.738337	-14.125852	-6.244479	-0.433757	1.020776	-2.309133
0.060	2.248287	0.848343	622.619412	-14.068727	-5.523175	-0.501968	0.887087	-2.259603
0.070	2.367233	1.117510	634.817893	-14.043887	-5.026895	-0.570337	0.791864	-2.212270
0.080	2.512830	1.239162	647.062967	-14.035142	-4.692854	-0.641599	0.725255	-2.169053
0.090	2.515740	1.161681	658.109893	-14.029966	-4.466244	-0.712909	0.678647	-2.131858
0.100	2.353533	0.881167	666.949038	-14.020568	-4.313974	-0.776573	0.646822	-2.102195
0.110	2.130947	0.439833	672.897001	-14.002044	-4.225562	-0.823068	0.627966	-2.080860
0.120	2.011430	-0.089484	675.590841	-13.969331	-4.204072	-0.844846	0.622281	-2.067721
0.130	2.136188	-0.625361	674.935156	-13.914888	-4.253591	-0.839221	0.630222	-2.061663
0.140	2.565894	-1.098262	671.049985	-13.828414	-4.369822	-0.809251	0.651192	-2.060713
0.150	3.264653	-1.463481	664.243600	-13.698728	-4.537562	-0.762538	0.683117	-2.062305
0.160	4.124825	-1.704448	655.005380	-13.516773	-4.734856	-0.708699	0.722873	-2.063613
0.170	5.014821	-1.827778	643.996170	-13.278326	-4.940465	-0.656670	0.767157	-2.061864
0.180	5.826001	-1.853551	632.013499	-12.985498	-5.140219	-0.612771	0.813308	-2.054624
0.190	6.499759	-1.804902	619.922365	-12.646935	-5.328959	-0.579942	0.859617	-2.040084
0.200	7.027692	-1.700229	608.559846	-12.277068	-5.507304	-0.557999	0.904973	-2.017397
0.210	7.430367	-1.549782	598.635343	-11.894685	-5.675024	-0.544467	0.947993	-1.986967
0.220	7.728419	-1.356556	590.653178	-11.520751	-5.824389	-0.535586	0.986093	-1.950510
0.230	7.920943	-1.120135	584.878688	-11.175320	-5.936770	-0.527269	1.015043	-1.910707
0.240	7.980894	-0.841749	581.354630	-10.873811	-5.984223	-0.516008	1.029359	-1.870426
0.250	7.868419	-0.528853	579.957025	-10.623526	-5.935497	-0.499787	1.023437	-1.831778
0.260	7.554524	-0.197648	580.466378	-10.421484	-5.763939	-0.478861	0.992984	-1.795364
0.270	7.042670	0.127758	582.627279	-10.254373	-5.453906	-0.456118	0.936088	-1.760023
0.280	6.376318	0.419885	586.177423	-10.100960	-5.002860	-0.436639	0.853472	-1.723192
0.290	5.626116	0.654934	590.842547	-9.936868	-4.418128	-0.426360	0.747767	-1.681813
0.300	4.859528	0.819875	596.310703	-9.741142	-3.709726	-0.430069	0.622113	-1.633568
0.310	4.104936	0.916898	602.211382	-9.503256	-2.882634	-0.449329	0.478675	-1.578060
0.320	3.327304	0.963445	608.125848	-9.228430	-1.932650	-0.481110	0.317804	-1.517520
0.330	2.430146	0.987490	613.641207	-8.938917	-0.848732	-0.517817	0.138311	-1.456701
0.340	1.288732	1.019302	618.436899	-8.669924	0.378110	-0.548991	-0.061140	-1.401909
0.350	-0.194328	1.082045	622.371447	-8.460892	1.742416	-0.564274	-0.279964	-1.359460
0.360	-2.031527	1.183853	625.531095	-8.344924	3.213287	-0.556663	-0.513689	-1.334054
0.370	-4.115115	1.313469	628.213409	-8.339987	4.729552	-0.524858	-0.752858	-1.327572
0.380	-6.221763	1.440559	630.842014	-8.444684	6.203876	-0.473854	-0.983428	-1.338637
0.390	-8.060675	1.521003	633.833457	-8.639433	7.535663	-0.413579	-1.188903	-1.363045
0.400	-9.351753	1.506803	637.454794	-8.892094	8.629572	-0.356137	-1.353754	-1.394937
0.410	-9.907647	1.359208	641.716062	-9.165872	9.414309	-0.312545	-1.467052	-1.428338
0.420	-9.690015	1.061994	646.333765	-9.427069	9.855887	-0.289924	-1.524891	-1.458545
0.430	-8.818302	0.630266	650.780812	-9.650629	9.961245	-0.289858	-1.530660	-1.482931
0.440	-7.527113	0.110451	654.410443	-9.822398	9.771421	-0.308337	-1.493164	-1.500954
0.450	-6.088649	-0.429839	656.616316	-9.938140	9.347137	-0.337303	-1.423531	-1.513538
0.460	-4.730285	-0.918976	656.978423	-10.000306	8.752019	-0.367262	-1.332162	-1.522167
0.470	-3.577447	-1.299331	655.350720	-10.014002	8.039108	-0.390083	-1.226688	-1.528037
0.480	-2.639412	-1.539893	651.868811	-9.983645	7.244529	-0.401005	-1.111348	-1.531542
0.490	-1.837196	-1.639933	646.884387	-9.911379	6.389159	-0.399287	-0.987682	-1.532172
0.500	-1.057119	-1.623902	640.855937	-9.797569	5.486070	-0.387464	-0.856054	-1.528825
0.510	-0.207062	-1.530764	634.235699	-9.642791	4.549667	-0.369698	-0.717346	-1.520380
0.520	0.744434	-1.402100	627.389708	-9.450110	3.602436	-0.349999	-0.574194	-1.506258
0.530	1.756829	-1.272454	620.572827	-9.226423	2.676681	-0.331000	-0.431324	-1.486759
0.540	2.734207	-1.163603	613.958680	-8.982356	1.810827	-0.313643	-0.294943	-1.463023
0.550	3.561547	-1.082922	607.703744	-8.731087	1.041847	-0.297660	-0.171440	-1.436734
0.560	4.147297	-1.025269	602.013098	-8.486836	0.396471	-0.282376	-0.065858	-1.409743
0.570	4.457747	-0.977659	597.176189	-8.263471	-0.115833	-0.267380	0.019397	-1.383758
0.580	4.531658	-0.925714	593.553553	-8.073141	-0.505686	-0.252836	0.085196	-1.360137
0.590	4.469918	-0.860367	591.515046	-7.924718	-0.801250	-0.239564	0.135457	-1.339732
0.600	4.403258	-0.782894	591.349007	-7.822130	-1.040819	-0.229129	0.176008	-1.322760
0.610	4.448659	-0.706576	593.173047	-7.763111	-1.262687	-0.223993	0.212870	-1.308743
0.620	4.669376	-0.654149	596.877558	-7.739076	-1.495452	-0.227453	0.250546	-1.296594
0.630	5.052732	-0.651411	602.122746	-7.736621	-1.751933	-0.242927	0.290960	-1.284891
0.640	5.514040	-0.718503	608.392507	-7.740438	-2.028767	-0.272506	0.333463	-1.272277
0.650	5.925878	-0.861567	615.089820	-7.736688	-2.311710	-0.315298	0.375833	-1.257814
0.660	6.162755	-1.068035	621.645542	-7.715694	-2.584500	-0.366554	0.415751	-1.241173
0.670	6.145695	-1.307986	627.610005	-7.673207	-2.837908	-0.418229	0.452177	-1.222607
0.680	5.871565	-1.541537	632.705200	-7.609956	-3.075923	-0.460933	0.486154	-1.202765
0.690	5.417529	-1.729398	636.829915	-7.529507	-3.317400	-0.486522	0.520924	-1.182342
0.700	4.919553	-1.842471	640.024670	-7.434879	-3.593115	-0.490384	0.561403	-1.161655
0.710	4.532706	-1.867353	642.413077	-7.324988	-3.939477	-0.472575	0.613231	-1.140230
0.720	4.387494	-1.806689	644.139633	-7.192291	-4.390977	-0.437438	0.681681	-1.116573
0.730	4.557914	-1.675113	645.320697	-7.022716	-4.973541	-0.391987	0.770708	-1.088252
0.740	5.051950	-1.492343	646.017211	-6.798125	-5.700400	-0.343835	0.882391	-1.052313
0.750	5.825057	-1.275468	646.229122	-6.500657	-6.570910	-0.299503	1.016808	-1.005937
0.760	6.806859	-1.032721	645.906479	-6.117646	-7.571680	-0.263434	1.172256	-0.947141
0.770	7.926725	-0.760814	644.971125	-5.645602	-8.678954	-0.237616	1.345634	-0.875326
0.780	9.127778	-0.446838	643.343015	-5.092062	-9.861528	-0.221568	1.532857	-0.791500
0.790	10.368089	-0.074247	640.964848	-4.474851	-11.083945	-0.212691	1.729259	-0.698143
0.800	11.615394	0.368831	637.819219	-3.819245	-12.309839	-0.207123	1.929989	-0.598797
0.810	12.842800	0.881573	633.934778	-3.154070	-13.505000	-0.201059	2.130345	-0.497539
0.820	14.028276	1.445704	629.381028	-2.507784	-14.639414	-0.192127	2.326002	-0.398452
0.830	15.155264	2.026493	624.254695	-1.905232	-15.687661	-0.180170	2.513023	-0.305201
0.840	16.210354	2.580261	618.663670	-1.365413	-16.627668	-0.167067	2.687675	-0.220704
0.850	17.177240	3.066432	612.715440	-0.900519	-17.438591	-0.155710	2.846116	-0.146972
0.860	18.030435	3.459733	606.514092	-0.516452	-18.099114	-0.148694	2.984121	-0.085151
0.870	18.733547	3.757539	600.165389	-0.214763	-18.587239	-0.147333	3.097019	-0.035784
0.880	19.244402	3.979220	593.786206	0.004452	-18.881875	-0.151314	3.179911	0.000750
0.890	19.525281	4.157698	587.513347	0.139626	-18.965441	-0.158930	3.228087	0.023766
0.900	19.553067	4.326528	581.506211	0.185790	-18.825897	-0.167625	3.237437	0.031950
0.910	19.323010	4.507371	575.938789	0.134428	-18.456570	-0.174522	3.204606	0.023341
0.920	18.841926	4.702265	570.981450	-0.024699	-17.853122	-0.176858	3.126743	-0.004326
0.930	18.112250	4.892772	566.782429	-0.300156	-17.008834	-0.172372	3.000946	-0.052958
0.940	17.115748	5.044800	563.467646	-0.694509	-15.911233	-0.159836	2.823806	-0.123256
0.950	15.810075	5.115420	561.174935	-1.199941	-14.543573	-0.139840	2.591629	-0.213827
0.960	14.147442	5.058110	560.118742	-1.795034	-12.892778	-0.115709	2.301794	-0.320474
0.970	12.111586	4.825769	560.653433	-2.444507	-10.961807	-0.094110	1.955184	-0.436010
0.980	9.754818	4.374251	563.288713	-3.103311	-8.781195	-0.084623	1.558915	-0.550927
0.990	7.212622	3.670020	568.623321	-3.724892	-6.414121	-0.097916	1.128009	-0.655072
1.000	4.683672	2.702605	577.197937	-4.271263	-3.952043	-0.142876	0.684695	-0.740000
1.010	2.381425	1.497954	589.306059	-4.721401	-1.502144	-0.223765	0.254901	-0.801180
1.020	0.477385	0.126097	604.823806	-5.074981	0.828907	-0.338394	-0.137049	-0.839084
1.030	-0.941311	-1.302263	623.117313	-5.350116	2.949471	-0.477842	-0.473341	-0.858605
1.040	-1.885088	-2.651330	643.061643	-5.575797	4.791789	-0.627768	-0.745152	-0.867070
1.050	-2.443422	-3.784625	663.169180	-5.781308	6.313968	-0.771096	-0.952090	-0.871770
1.060	-2.744052	-4.592318	681.793976	-5.985810	7.496507	-0.891618	-1.099527	-0.877950
1.070	-2.906465	-5.015055	697.363483	-6.191306	8.336192	-0.977648	-1.195387	-0.887816
1.080	-3.005521	-5.058273	708.591155	-6.381245	8.840026	-1.024677	-1.247550	-0.900554
1.090	-3.053687	-4.792192	714.634585	-6.525235	9.020756	-1.036031	-1.262289	-0.913087
1.100	-3.001897	-4.335507	715.177284	-6.588284	8.894484	-1.021248	-1.243675	-0.921210
1.110	-2.754967	-3.825474	710.426392	-6.541483	8.480401	-0.992728	-1.193706	-0.920783
1.120	-2.197855	-3.382128	701.033260	-6.370605	7.802596	-0.961870	-1.113014	-0.908745
1.130	-1.229740	-3.077342	687.957165	-6.079987	6.893552	-0.936005	-1.002032	-0.883774
1.140	0.199315	-2.918636	672.302661	-5.690877	5.798150	-0.917072	-0.862431	-0.846475
1.150	2.058354	-2.853047	655.166149	-5.235435	4.576344	-0.902316	-0.698501	-0.799100
1.160	4.223316	-2.789665	637.523502	-4.749025	3.302607	-0.886577	-0.518037	-0.744918
1.170	6.490399	-2.633110	620.176672	-4.263636	2.061092	-0.865182	-0.332340	-0.687487
1.180	8.614490	-2.316576	603.757890	-3.804397	0.936956	-0.836206	-0.155187	-0.630120
1.190	10.362325	-1.823594	588.772921	-3.389561	0.005872	-0.801227	-0.000997	-0.575699
1.200	11.563528	-1.192224	575.655384	-3.032721	-0.675301	-0.764446	0.117310	-0.526829
1.210	12.142849	-0.501993	564.805115	-2.745156	-1.073995	-0.730730	0.190153	-0.486036
1.220	12.123806	0.150321	556.594451	-2.536542	-1.182091	-0.703612	0.212379	-0.455725
1.230	11.604394	0.677079	551.342392	-2.413735	-1.011096	-0.684059	0.183388	-0.437792
1.240	10.714978	1.020038	549.270728	-2.378715	-0.584287	-0.670379	0.106375	-0.433068
1.250	9.573980	1.159388	550.462827	-2.427226	0.071338	-0.659107	-0.012960	-0.440943
1.260	8.257073	1.110839	554.842471	-2.548999	0.930594	-0.646470	-0.167722	-0.459410
1.270	6.790245	0.913913	562.178023	-2.729496	1.971558	-0.629883	-0.350700	-0.485522
1.280	5.167516	0.616817	572.103369	-2.952457	3.173153	-0.608976	-0.554647	-0.516071
1.290	3.383104	0.263301	584.140863	-3.202320	4.510641	-0.585738	-0.772184	-0.548210
1.300	1.461049	-0.115028	597.716622	-3.465707	5.951657	-0.563759	-0.995732	-0.579824
1.310	-0.532508	-0.500212	612.169330	-3.731588	7.454936	-0.546918	-1.217790	-0.609568
1.320	-2.498633	-0.884752	626.761817	-3.990351	8.972257	-0.538070	-1.431526	-0.636661
1.330	-4.328524	-1.266444	640.707034	-4.232491	10.452317	-0.538204	-1.631372	-0.660597
1.340	-5.926011	-1.643770	653.216744	-4.447694	11.844460	-0.546248	-1.813251	-0.680891
1.350	-7.218450	-2.013149	663.572263	-4.624712	13.100824	-0.559472	-1.974288	-0.696942
1.360	-8.153276	-2.367597	671.204205	-4.752041	14.177025	-0.574324	-2.112178	-0.707987
1.370	-8.686381	-2.695777	675.759554	-4.819191	15.032659	-0.587388	-2.224557	-0.713152
1.380	-8.773531	-2.981097	677.135899	-4.818278	15.633232	-0.596125	-2.308729	-0.711567
1.390	-8.374615	-3.201608	675.473560	-4.745527	15.954343	-0.599107	-2.361949	-0.702548
1.400	-7.472726	-3.331660	671.110440	-4.602146	15.987542	-0.595746	-2.382252	-0.685751
1.410	-6.099710	-3.345555	664.515552	-4.394123	15.745809	-0.585838	-2.369517	-0.661252
1.420	-4.353301	-3.222599	656.221766	-4.130927	15.265961	-0.569377	-2.326342	-0.629502
1.430	-2.393147	-2.952300	646.774760	-3.823793	14.606117	-0.546877	-2.258300	-0.591209
1.440	-0.413533	-2.538207	636.704569	-3.484442	13.838317	-0.519974	-2.173428	-0.547262
1.450	1.396844	-1.999134	626.514340	-3.124698	13.038480	-0.491761	-2.081114	-0.498743
1.460	2.891260	-1.367477	616.675202	-2.756672	12.276717	-0.466458	-1.990791	-0.447022
1.470	3.984207	-0.685359	607.618872	-2.392783	11.610385	-0.448537	-1.910801	-0.393797
1.480	4.650462	0.000348	599.725978	-2.045138	11.080755	-0.441634	-1.847636	-0.341012
1.490	4.910543	0.643507	593.312485	-1.724429	10.712861	-0.447564	-1.805602	-0.290644
1.500	4.812556	1.204473	588.617579	-1.438851	10.517358	-0.465644	-1.786790	-0.244446
1.510	4.417665	1.655296	585.795558	-1.193439	10.493090	-0.492525	-1.791255	-0.203730
1.520	3.791251	1.982704	584.912452	-0.989855	10.629474	-0.522773	-1.817276	-0.169231
1.530	2.998109	2.187503	585.946066	-0.826637	10.908506	-0.550106	-1.861691	-0.141077
1.540	2.099322	2.280521	588.787003	-0.699963	11.306634	-0.568847	-1.920327	-0.118882
1.550	1.149776	2.276956	593.239603	-0.604939	11.796710	-0.574996	-1.988524	-0.101972
1.560	0.196669	2.191508	599.025308	-0.537040	12.349814	-0.566693	-2.061651	-0.089652
1.570	-0.720375	2.036109	605.793708	-0.493068	12.936551	-0.544177	-2.135471	-0.081392
1.580	-1.567596	1.820652	613.144777	-0.471093	13.527614	-0.509527	-2.206268	-0.076832
1.590	-2.314501	1.555648	620.660639	-0.469556	14.093807	-0.466246	-2.270775	-0.075654
1.600	-2.931330	1.254883	627.941106	-0.486247	14.605907	-0.418642	-2.326000	-0.077435
1.610	-3.387717	0.936259	634.636465	-0.517998	15.034682	-0.371019	-2.369023	-0.081621
1.620	-3.653661	0.619860	640.472658	-0.561370	15.351279	-0.326919	-2.396867	-0.087649
1.630	-3.702977	0.323626	645.265974	-0.613887	15.528126	-0.288715	-2.406469	-0.095137
1.640	-3.517720	0.058268	648.925554	-0.674933	15.540371	-0.257686	-2.394785	-0.104008
1.650	-3.090866	-0.176213	651.442473	-0.745646	15.367690	-0.234386	-2.359025	-0.114461
1.660	-2.425349	-0.390398	652.865222	-0.827928	14.996225	-0.218967	-2.296986	-0.126815
1.670	-1.530275	-0.600787	653.264077	-0.923217	14.420590	-0.211139	-2.207467	-0.141324
1.680	-0.418180	-0.821461	652.690355	-1.031641	13.646256	-0.209731	-2.090770	-0.158060
1.690	0.891601	-1.054800	651.140102	-1.151627	12.692568	-0.212185	-1.949284	-0.176863
1.700	2.360820	-1.285026	648.535247	-1.279753	11.595975	-0.214482	-1.788025	-0.197330
1.710	3.915353	-1.477909	644.736481	-1.410777	10.411778	-0.211878	-1.614889	-0.218815
1.720	5.434569	-1.588194	639.596064	-1.538020	9.211929	-0.200271	-1.440273	-0.240467
1.730	6.759942	-1.573726	633.043307	-1.654431	8.077228	-0.177559	-1.275936	-0.261346
1.740	7.727904	-1.412368	625.176572	-1.754407	7.084580	-0.144260	-1.133213	-0.280626
1.750	8.217805	-1.115525	616.325498	-1.836000	6.292796	-0.103041	-1.021018	-0.297895
1.760	8.194884	-0.732151	607.054168	-1.902578	5.731818	-0.057410	-0.944202	-0.313412
1.770	7.727832	-0.340228	598.097176	-1.962695	5.399334	-0.010313	-0.902752	-0.328157
1.780	6.971357	-0.027846	590.244930	-2.027447	5.265863	0.036509	-0.892149	-0.343492
1.790	6.119680	0.129712	584.211135	-2.105956	5.286163	0.082045	-0.904838	-0.360479
1.800	5.348821	0.089237	580.518268	-2.201080	5.412733	0.124801	-0.932397	-0.379158
1.810	4.768854	-0.150432	579.426919	-2.307746	5.606991	0.161803	-0.967679	-0.398281
1.820	4.401500	-0.549759	580.917943	-2.415037	5.845284	0.188632	-1.006215	-0.415728
1.830	4.187193	-1.039783	584.720464	-2.511186	6.119332	0.200677	-1.046540	-0.429468
1.840	4.014600	-1.539598	590.370340	-2.589083	6.432701	0.195051	-1.089604	-0.438552
1.850	3.759287	-1.975331	597.284026	-2.649695	6.795596	0.172219	-1.137750	-0.443624
1.860	3.318742	-2.296037	604.837658	-2.701905	7.219553	0.136453	-1.193635	-0.446716
1.870	2.636256	-2.483106	612.444620	-2.758936	7.712480	0.094816	-1.259294	-0.450479
1.880	1.712170	-2.551694	619.623465	-2.832944	8.273944	0.055024	-1.335318	-0.457204
1.890	0.604412	-2.544490	626.044314	-2.929895	8.890927	0.023006	-1.420175	-0.468001
1.900	-0.579583	-2.519317	631.542037	-3.046499	9.535185	0.001051	-1.509826	-0.482391
1.910	-1.698614	-2.532945	636.092064	-3.170141	10.163795	-0.012849	-1.597850	-0.498378
1.920	-2.600604	-2.624571	639.756643	-3.281773	10.723996	-0.024277	-1.676262	-0.512972
1.930	-3.150939	-2.803283	642.619053	-3.360922	11.161926	-0.040540	-1.736943	-0.523004
1.940	-3.261973	-3.043646	644.726319	-3.391385	11.433154	-0.068237	-1.773335	-0.526019
1.950	-2.916523	-3.291663	646.057450	-3.365916	11.511883	-0.111014	-1.781867	-0.520993
1.960	-2.176609	-3.480189	646.526282	-3.288306	11.395787	-0.168221	-1.762618	-0.508611
1.970	-1.170799	-3.549424	646.017095	-3.171974	11.104851	-0.234944	-1.718972	-0.491005
1.980	-0.060430	-3.465906	644.439563	-3.035528	10.674678	-0.303425	-1.656428	-0.471034
1.990	1.005523	-3.233730	641.782082	-2.896990	10.146838	-0.365391	-1.581041	-0.451398
2.000	1.930273	-2.894304	638.143607	-2.768941	9.559796	-0.414414	-1.498063	-0.433906
2.010	2.687941	-2.514648	633.733845	-2.656295	8.943280	-0.447464	-1.411204	-0.419150
2.020	3.314858	-2.167845	628.844720	-2.557066	8.317124	-0.465196	-1.322604	-0.406629
2.030	3.879815	-1.911937	623.805411	-2.465084	7.693717	-0.471161	-1.233352	-0.395169
2.040	4.448058	-1.774350	618.935249	-2.373066	7.082045	-0.470474	-1.144230	-0.383411
2.050	5.053908	-1.746931	614.504916	-2.274844	6.491378	-0.468494	-1.056359	-0.370191
2.060	5.690090	-1.792420	610.711067	-2.166461	5.933548	-0.469717	-0.971580	-0.354744
2.070	6.313194	-1.858922	607.665697	-2.046462	5.423677	-0.476924	-0.892543	-0.336774
2.080	6.858794	-1.896672	605.399779	-1.915901	4.979649	-0.490606	-0.822539	-0.316469
2.090	7.258850	-1.871779	603.879830	-1.778378	4.620511	-0.508818	-0.765137	-0.294492
2.100	7.456834	-1.773592	603.034888	-1.640048	4.363845	-0.527669	-0.723647	-0.271966
2.110	7.419313	-1.614740	602.789112	-1.509104	4.222391	-0.542491	-0.700476	-0.250354
2.120	7.143823	-1.424966	603.092325	-1.394118	4.200530	-0.549412	-0.696499	-0.231162
2.130	6.662001	-1.241300	603.939703	-1.301273	4.291544	-0.546796	-0.710591	-0.215464
2.140	6.036230	-1.097624	605.374178	-1.231447	4.476492	-0.535962	-0.739459	-0.203419
2.150	5.349576	-1.016170	607.470330	-1.178645	4.725198	-0.520938	-0.777848	-0.194025
2.160	4.691525	-1.002548	610.303872	-1.130823	4.999221	-0.507383	-0.819136	-0.185289
2.170	4.144002	-1.044911	613.914049	-1.073002	5.256192	-0.501037	-0.856177	-0.174780
2.180	3.771189	-1.117188	618.266580	-0.991545	5.454792	-0.506081	-0.882272	-0.160375
2.190	3.613729	-1.185607	623.223951	-0.877932	5.559864	-0.523751	-0.892113	-0.140869
2.200	3.685459	-1.216987	628.530128	-0.730602	5.547079	-0.551592	-0.882548	-0.116240
2.210	3.971358	-1.186656	633.817979	-0.554271	5.406236	-0.583774	-0.852963	-0.087450
2.220	4.427908	-1.083753	638.645692	-0.357240	5.142103	-0.612689	-0.805157	-0.055937
2.230	4.988909	-0.912402	642.560300	-0.147996	4.772140	-0.631465	-0.742676	-0.023032
2.240	5.578353	-0.688897	645.174620	0.067411	4.321507	-0.636420	-0.669820	0.010449
2.250	6.128145	-0.436455	646.235884	0.286337	3.816803	-0.628298	-0.590621	0.044308
2.260	6.595047	-0.179394	645.665589	0.508907	3.280460	-0.611637	-0.508074	0.078819
2.270	6.970604	0.062006	643.560262	0.736592	2.727531	-0.592648	-0.423819	0.114456
2.280	7.280044	0.275220	640.156126	0.970826	2.165682	-0.576703	-0.338305	0.151655
2.290	7.570093	0.457072	635.771046	1.212032	1.598076	-0.566628	-0.251360	0.190640
2.300	7.889599	0.612825	630.741840	1.458950	1.027815	-0.562294	-0.162953	0.231307
2.310	8.269641	0.753206	625.374325	1.708081	0.462082	-0.561330	-0.073889	0.273129
2.320	8.710139	0.890626	619.917823	1.953295	-0.085656	-0.560335	0.013817	0.315089
2.330	9.177809	1.035671	614.566369	2.185969	-0.596168	-0.556081	0.097006	0.355693
