Time[s]	Fx[N]	Fy[N]	Fz[N]	Mx[Nm]	My[Nm]	Mz[Nm]	COPx[cm]	COPy[cm]
0.010	-1.384083	-7.196108	599.971196	-5.234293	-4.272931	-3.119538	0.712189	-0.872424
0.020	-1.440196	-7.239469	599.701410	-5.298082	-4.288196	-3.118606	0.715055	-0.883453
0.030	-1.482219	-7.278921	599.514718	-5.370409	-4.304719	-3.117927	0.718034	-0.895793
0.040	-1.501246	-7.312874	599.463303	-5.457109	-4.323197	-3.117589	0.721178	-0.910332
0.050	-1.495964	-7.342980	599.550295	-5.559163	-4.343487	-3.117543	0.724457	-0.927222
0.060	-1.472721	-7.374112	599.732444	-5.672907	-4.364769	-3.117649	0.727786	-0.945906
0.070	-1.443264	-7.413076	599.938091	-5.791909	-4.385820	-3.117819	0.731045	-0.965418
0.080	-1.421231	-7.466429	600.091365	-5.909455	-4.405174	-3.118173	0.734084	-0.984759
0.090	-1.418549	-7.538169	600.134988	-6.020573	-4.421223	-3.119110	0.736705	-1.003203
0.100	-1.442620	-7.628252	600.046529	-6.123021	-4.432281	-3.121209	0.738656	-1.020424
0.110	-1.494948	-7.732654	599.843781	-6.217242	-4.436656	-3.124990	0.739635	-1.036477
0.120	-1.571498	-7.844899	599.576540	-6.305617	-4.432642	-3.130593	0.739295	-1.051678
0.130	-1.664548	-7.958252	599.307219	-6.391427	-4.418502	-3.137542	0.737268	-1.066469
0.140	-1.765289	-8.067591	599.088679	-6.477899	-4.392608	-3.144714	0.733215	-1.081292
0.150	-1.866291	-8.170519	598.949218	-6.567599	-4.353839	-3.150615	0.726913	-1.096520
0.160	-1.963090	-8.267648	598.890078	-6.662250	-4.302146	-3.153881	0.718353	-1.112433
0.170	-2.054472	-8.361971	598.893869	-6.762770	-4.239033	-3.153778	0.707810	-1.129210
0.180	-2.141413	-8.457158	598.937684	-6.869270	-4.167619	-3.150461	0.695835	-1.146909
0.190	-2.225163	-8.555161	599.004431	-6.980904	-4.092117	-3.144873	0.683153	-1.165418
0.200	-2.305467	-8.654280	599.088605	-7.095763	-4.016862	-3.138382	0.670495	-1.184426
0.210	-2.380007	-8.748929	599.195593	-7.211024	-3.945238	-3.132369	0.658422	-1.203451
0.220	-2.445415	-8.831489	599.335787	-7.323397	-3.878973	-3.127973	0.647212	-1.221919
0.230	-2.499189	-8.895258	599.516576	-7.429754	-3.818067	-3.126005	0.636858	-1.239291
0.240	-2.541278	-8.936954	599.736094	-7.527751	-3.761366	-3.126942	0.627170	-1.255177
0.250	-2.574400	-8.957768	599.981284	-7.616216	-3.707509	-3.130912	0.617937	-1.269409
0.260	-2.603105	-8.962907	600.230268	-7.695133	-3.655826	-3.137629	0.609071	-1.282030
0.270	-2.632356	-8.960135	600.457601	-7.765272	-3.606794	-3.146316	0.600674	-1.293226
0.280	-2.666497	-8.957835	600.640597	-7.827705	-3.561849	-3.155702	0.593008	-1.303226
0.290	-2.708910	-8.963089	600.764622	-7.883531	-3.522627	-3.164233	0.586357	-1.312250
0.300	-2.762095	-8.980183	600.825464	-7.933887	-3.489977	-3.170485	0.580864	-1.320498
0.310	-2.827682	-9.009864	600.828409	-7.980087	-3.463260	-3.173691	0.576414	-1.328181
0.320	-2.906077	-9.049461	600.785260	-8.023689	-3.440306	-3.174086	0.572635	-1.335534
0.330	-2.995770	-9.093750	600.710749	-8.066431	-3.418100	-3.172844	0.569009	-1.342814
0.340	-3.092626	-9.136249	600.619442	-8.110043	-3.393867	-3.171569	0.565061	-1.350280
0.350	-3.189667	-9.170709	600.524072	-8.155938	-3.366038	-3.171575	0.560517	-1.358137
0.360	-3.277886	-9.192557	600.435371	-8.204864	-3.334692	-3.173373	0.555379	-1.366486
0.370	-3.348300	-9.200009	600.361918	-8.256692	-3.301359	-3.176609	0.549895	-1.375286
0.380	-3.394789	-9.194554	600.308400	-8.310491	-3.268445	-3.180396	0.544461	-1.384370
0.390	-3.416653	-9.180706	600.272640	-8.364855	-3.238574	-3.183764	0.539517	-1.393509
0.400	-3.419775	-9.165042	600.244047	-8.418303	-3.214075	-3.186041	0.535461	-1.402480
0.410	-3.415679	-9.154605	600.206425	-8.469534	-3.196612	-3.187073	0.532585	-1.411103
0.420	-3.418365	-9.155060	600.145467	-8.517478	-3.186921	-3.187294	0.531025	-1.419236
0.430	-3.439557	-9.169275	600.057402	-8.561188	-3.184677	-3.187644	0.530729	-1.426728
0.440	-3.483944	-9.196830	599.953461	-8.599648	-3.188559	-3.189328	0.531468	-1.433386
0.450	-3.546646	-9.234326	599.857016	-8.631639	-3.196566	-3.193452	0.532888	-1.438949
0.460	-3.614541	-9.276039	599.794792	-8.655868	-3.206543	-3.200567	0.534607	-1.443138
0.470	-3.671170	-9.314701	599.786836	-8.671477	-3.216723	-3.210264	0.536311	-1.445760
0.480	-3.702887	-9.342582	599.839560	-8.678710	-3.226120	-3.221000	0.537830	-1.446839
0.490	-3.703304	-9.352940	599.943440	-8.679219	-3.234695	-3.230361	0.539167	-1.446673
0.500	-3.674212	-9.341480	600.075016	-8.675673	-3.243394	-3.235792	0.540498	-1.445765
0.510	-3.623217	-9.307253	600.202659	-8.670849	-3.254100	-3.235551	0.542167	-1.444654
0.520	-3.559814	-9.252708	600.295494	-8.666720	-3.269422	-3.229514	0.544635	-1.443742
0.530	-3.491947	-9.183079	600.333475	-8.664008	-3.292115	-3.219410	0.548381	-1.443199
0.540	-3.424286	-9.105467	600.315135	-8.662275	-3.324167	-3.208344	0.553737	-1.442955
0.550	-3.358351	-9.027793	600.259365	-8.660248	-3.365957	-3.199716	0.560750	-1.442751
0.560	-3.293741	-8.957605	600.199622	-8.656100	-3.416013	-3.195982	0.569146	-1.442204
0.570	-3.229582	-8.900743	600.172253	-8.647676	-3.471517	-3.197780	0.578420	-1.440866
0.580	-3.165469	-8.860125	600.203471	-8.632826	-3.529201	-3.203813	0.588001	-1.438317
0.590	-3.101732	-8.835126	600.300037	-8.609901	-3.586201	-3.211555	0.597401	-1.434266
0.600	-3.039267	-8.821901	600.446670	-8.578290	-3.640609	-3.218410	0.606317	-1.428651
0.610	-2.979268	-8.814543	600.610235	-8.538758	-3.691699	-3.222723	0.614658	-1.421680
0.620	-2.922830	-8.806563	600.748427	-8.493446	-3.739797	-3.224179	0.622523	-1.413811
0.630	-2.870342	-8.792166	600.820151	-8.445494	-3.785863	-3.223550	0.630116	-1.405661
0.640	-2.820972	-8.767169	600.795396	-8.398400	-3.830931	-3.222066	0.637643	-1.397880
0.650	-2.772715	-8.729633	600.662815	-8.355195	-3.875616	-3.220828	0.645223	-1.390996
0.660	-2.723204	-8.680149	600.433067	-8.317623	-3.919850	-3.220467	0.652837	-1.385271
0.670	-2.670896	-8.621499	600.136474	-8.285559	-3.962890	-3.221116	0.660332	-1.380613
0.680	-2.615960	-8.557568	599.815481	-8.257008	-4.003530	-3.222560	0.667460	-1.376591
0.690	-2.560387	-8.491878	599.514574	-8.228846	-4.040417	-3.224432	0.673948	-1.372585
0.700	-2.507337	-8.426569	599.270755	-8.198064	-4.072373	-3.226370	0.679555	-1.368007
0.710	-2.460119	-8.362459	599.106770	-8.162867	-4.098680	-3.228118	0.684132	-1.362506
0.720	-2.421273	-8.300052	599.028328	-8.123071	-4.119299	-3.229580	0.687663	-1.356041
0.730	-2.392106	-8.240554	599.025892	-8.079713	-4.134895	-3.230838	0.690270	-1.348809
0.740	-2.372833	-8.185800	599.080643	-8.034293	-4.146589	-3.232140	0.692159	-1.341104
0.750	-2.363195	-8.136854	599.172634	-7.988184	-4.155460	-3.233848	0.693533	-1.333202
0.760	-2.363158	-8.092265	599.287932	-7.942437	-4.162043	-3.236332	0.694498	-1.325312
0.770	-2.373192	-8.047632	599.421677	-7.897811	-4.166161	-3.239801	0.695030	-1.317572
0.780	-2.393850	-7.997468	599.575437	-7.854839	-4.167220	-3.244153	0.695029	-1.310067
0.790	-2.424818	-7.938767	599.749866	-7.813857	-4.164869	-3.248965	0.694434	-1.302853
0.800	-2.464071	-7.874268	599.936573	-7.775045	-4.159626	-3.253649	0.693344	-1.295978
0.810	-2.507807	-7.813202	600.114733	-7.738427	-4.153110	-3.257673	0.692053	-1.289491
0.820	-2.551474	-7.768490	600.256112	-7.703750	-4.147686	-3.260717	0.690986	-1.283410
0.830	-2.591491	-7.751332	600.336890	-7.670214	-4.145662	-3.262717	0.690556	-1.277652
0.840	-2.626647	-7.765679	600.349045	-7.636210	-4.148424	-3.263853	0.691002	-1.271962
0.850	-2.658099	-7.805357	600.303545	-7.599342	-4.155929	-3.264506	0.692305	-1.265917
0.860	-2.687760	-7.855506	600.223440	-7.556963	-4.166850	-3.265151	0.694216	-1.259025
0.870	-2.716264	-7.897889	600.132040	-7.507122	-4.179320	-3.266141	0.696400	-1.250912
0.880	-2.742177	-7.917565	600.043422	-7.449538	-4.191871	-3.267485	0.698595	-1.241500
0.890	-2.763238	-7.907813	599.959473	-7.386068	-4.204049	-3.268788	0.700722	-1.231094
0.900	-2.778730	-7.871351	599.873432	-7.320354	-4.216416	-3.269441	0.702884	-1.220317
0.910	-2.791120	-7.817959	599.777050	-7.256779	-4.229974	-3.268969	0.705258	-1.209913
0.920	-2.805614	-7.760093	599.667670	-7.199174	-4.245425	-3.267292	0.707963	-1.200527
0.930	-2.827741	-7.708443	599.552357	-7.149798	-4.262656	-3.264743	0.710973	-1.192523
0.940	-2.860359	-7.668913	599.447822	-7.108849	-4.280684	-3.261871	0.714105	-1.185899
0.950	-2.901771	-7.641757	599.376390	-7.074488	-4.298015	-3.259180	0.717081	-1.180308
0.960	-2.946038	-7.622766	599.359529	-7.043338	-4.313209	-3.256908	0.719636	-1.175144
0.970	-2.985434	-7.605741	599.411135	-7.011324	-4.325419	-3.254857	0.721611	-1.169702
0.980	-3.013868	-7.585217	599.532655	-6.974744	-4.334675	-3.252358	0.723009	-1.163364
0.990	-3.029536	-7.558533	599.711534	-6.931275	-4.341724	-3.248462	0.723969	-1.155768
1.000	-3.035362	-7.526543	599.923699	-6.880614	-4.347498	-3.242346	0.724675	-1.146915
1.010	-3.037034	-7.492597	600.139603	-6.824570	-4.352523	-3.233755	0.725252	-1.137164
1.020	-3.039801	-7.460176	600.331925	-6.766602	-4.356696	-3.223253	0.725715	-1.127143
1.030	-3.045924	-7.430534	600.482030	-6.710851	-4.359589	-3.212121	0.726015	-1.117577
1.040	-3.054044	-7.401951	600.582555	-6.660847	-4.361027	-3.201956	0.726133	-1.109064
1.050	-3.060498	-7.371058	600.635050	-6.618254	-4.361473	-3.194134	0.726144	-1.101876
1.060	-3.061576	-7.335126	600.643955	-6.582227	-4.361914	-3.189360	0.726206	-1.095862
1.070	-3.055645	-7.293668	600.610396	-6.549797	-4.363362	-3.187457	0.726488	-1.090523
1.080	-3.044327	-7.248544	600.529892	-6.517165	-4.366378	-3.187450	0.727088	-1.085236
1.090	-3.032344	-7.202873	600.395982	-6.481296	-4.370954	-3.187904	0.728012	-1.079504
1.100	-3.026160	-7.159529	600.208206	-6.441079	-4.376790	-3.187438	0.729212	-1.073141
1.110	-3.032070	-7.119929	599.979895	-6.397601	-4.383703	-3.185199	0.730642	-1.066303
1.120	-3.054430	-7.083567	599.740602	-6.353521	-4.391814	-3.181104	0.732286	-1.059378
1.130	-3.094455	-7.048343	599.530126	-6.311797	-4.401372	-3.175692	0.734137	-1.052791
1.140	-3.149579	-7.011444	599.385416	-6.274248	-4.412382	-3.169710	0.736151	-1.046780
1.150	-3.213323	-6.970492	599.326203	-6.240597	-4.424387	-3.163698	0.738227	-1.041269
1.160	-3.275754	-6.924630	599.346957	-6.208555	-4.436618	-3.157821	0.740242	-1.035887
1.170	-3.324828	-6.875126	599.419700	-6.175101	-4.448455	-3.152024	0.742127	-1.030180
1.180	-3.348832	-6.825081	599.506040	-6.138346	-4.459964	-3.146344	0.743940	-1.023901
1.190	-3.339486	-6.778262	599.572016	-6.098933	-4.472164	-3.141183	0.745893	-1.017214
1.200	-3.294507	-6.737568	599.599124	-6.060112	-4.486774	-3.137320	0.748296	-1.010694
1.210	-3.218293	-6.703966	599.588506	-6.026434	-4.505458	-3.135608	0.751425	-1.005095
1.220	-3.120313	-6.676393	599.558864	-6.001772	-4.529018	-3.136478	0.755392	-1.001031
1.230	-3.012062	-6.652568	599.540029	-5.987741	-4.557026	-3.139505	0.760087	-0.998722
1.240	-2.904074	-6.630159	599.564088	-5.983285	-4.588108	-3.143344	0.765241	-0.997939
1.250	-2.804123	-6.607680	599.655954	-5.985462	-4.620583	-3.146155	0.770539	-0.998149
1.260	-2.716817	-6.584794	599.825458	-5.990873	-4.653017	-3.146370	0.775729	-0.998769
1.270	-2.643995	-6.562061	600.062804	-5.997000	-4.684458	-3.143407	0.780661	-0.999395
1.280	-2.585249	-6.540400	600.338768	-6.002948	-4.714418	-3.137903	0.785293	-0.999927
1.290	-2.538313	-6.520624	600.610197	-6.009501	-4.742699	-3.131331	0.789647	-1.000566
1.300	-2.499488	-6.503392	600.830046	-6.018669	-4.769162	-3.125251	0.793762	-1.001726
1.310	-2.464341	-6.489599	600.959374	-6.032994	-4.793587	-3.120631	0.797656	-1.003894
1.320	-2.428740	-6.480772	600.977495	-6.054773	-4.815772	-3.117608	0.801323	-1.007487
1.330	-2.390198	-6.478864	600.886755	-6.085386	-4.835843	-3.115730	0.804784	-1.012734
1.340	-2.349182	-6.485284	600.710199	-6.124898	-4.854437	-3.114449	0.808116	-1.019609
1.350	-2.309651	-6.499700	600.483164	-6.172006	-4.872476	-3.113506	0.811426	-1.027840
1.360	-2.278077	-6.519461	600.242702	-6.224378	-4.890583	-3.112979	0.814768	-1.036977
1.370	-2.260956	-6.540094	600.019581	-6.279310	-4.908597	-3.113063	0.818073	-1.046518
1.380	-2.261833	-6.556560	599.835308	-6.334571	-4.925586	-3.113830	0.821156	-1.056052
1.390	-2.279359	-6.564568	599.703386	-6.389123	-4.940362	-3.115168	0.823801	-1.065380
1.400	-2.307441	-6.561622	599.632504	-6.443391	-4.952123	-3.116886	0.825860	-1.074557
1.410	-2.337462	-6.547921	599.629682	-6.498888	-4.960844	-3.118819	0.827318	-1.083817
1.420	-2.361471	-6.526961	599.701497	-6.557333	-4.967250	-3.120822	0.828287	-1.093433
1.430	-2.374825	-6.505163	599.851711	-6.619685	-4.972502	-3.122652	0.828955	-1.103554
1.440	-2.377108	-6.489940	600.075600	-6.685586	-4.977794	-3.123854	0.829528	-1.114124
1.450	-2.371038	-6.486535	600.354176	-6.753549	-4.984040	-3.123754	0.830183	-1.124927
1.460	-2.360068	-6.495097	600.652487	-6.821734	-4.991749	-3.121620	0.831054	-1.135721
1.470	-2.346026	-6.509814	600.924318	-6.888817	-5.001077	-3.116941	0.832231	-1.146370
1.480	-2.328183	-6.521088	601.122812	-6.954443	-5.011972	-3.109733	0.833768	-1.156909
1.490	-2.304154	-6.519961	601.213983	-7.019119	-5.024330	-3.100736	0.835697	-1.167491
1.500	-2.271673	-6.502558	601.188035	-7.083774	-5.038064	-3.091365	0.838018	-1.178296
1.510	-2.229847	-6.472245	601.062807	-7.149318	-5.053145	-3.083347	0.840702	-1.189446
1.520	-2.179309	-6.438378	600.876540	-7.216382	-5.069649	-3.078167	0.843709	-1.200976
1.530	-2.121766	-6.412206	600.672897	-7.285252	-5.087825	-3.076544	0.847021	-1.212848
1.540	-2.059707	-6.401794	600.485779	-7.355958	-5.108155	-3.078172	0.850670	-1.225001
1.550	-1.996521	-6.408417	600.331061	-7.428450	-5.131307	-3.081851	0.854746	-1.237392
1.560	-1.936606	-6.426256	600.207348	-7.502793	-5.157913	-3.085967	0.859355	-1.250034
1.570	-1.884927	-6.445496	600.102443	-7.579249	-5.188111	-3.089092	0.864537	-1.262993
1.580	-1.845980	-6.457055	600.000445	-7.658164	-5.221006	-3.090440	0.870167	-1.276360
1.590	-1.822626	-6.456352	599.886646	-7.739763	-5.254408	-3.090023	0.875900	-1.290204
1.600	-1.815364	-6.444339	599.750791	-7.824036	-5.285159	-3.088524	0.881226	-1.304548
1.610	-1.822150	-6.425891	599.590146	-7.910784	-5.309993	-3.086977	0.885604	-1.319365
1.620	-1.838615	-6.407054	599.412186	-7.999785	-5.326451	-3.086409	0.888612	-1.334605
1.630	-1.858626	-6.392801	599.235233	-8.091040	-5.333356	-3.087506	0.890027	-1.350228
1.640	-1.875475	-6.386099	599.085935	-8.185008	-5.330753	-3.090438	0.889814	-1.366249
1.650	-1.883901	-6.388189	598.993839	-8.282657	-5.319566	-3.094936	0.888084	-1.382762
1.660	-1.882363	-6.399402	598.984164	-8.385173	-5.301271	-3.100592	0.885044	-1.399899
1.670	-1.874228	-6.419616	599.070482	-8.493377	-5.277606	-3.107196	0.880966	-1.417759
1.680	-1.866638	-6.447856	599.249471	-8.607137	-5.250231	-3.114841	0.876134	-1.436320
1.690	-1.867062	-6.481446	599.499570	-8.725117	-5.220300	-3.123692	0.870776	-1.455400
1.700	-1.879096	-6.515701	599.784136	-8.845073	-5.188048	-3.133593	0.864986	-1.474709
1.710	-1.899884	-6.544743	600.058790	-8.964745	-5.152561	-3.143816	0.858676	-1.493978
1.720	-1.921031	-6.563059	600.282174	-9.083073	-5.111936	-3.153192	0.851589	-1.513134
1.730	-1.933010	-6.567013	600.428418	-9.201198	-5.063846	-3.160547	0.843372	-1.532439
1.740	-1.930967	-6.555839	600.497597	-9.322621	-5.006352	-3.165176	0.833701	-1.552483
1.750	-1.918800	-6.532039	600.518852	-9.452276	-4.938550	-3.167098	0.822381	-1.574018
1.760	-1.909116	-6.501063	600.542245	-9.594934	-4.860774	-3.167015	0.809398	-1.597712
1.770	-1.918576	-6.470176	600.620545	-9.753789	-4.774263	-3.166054	0.794888	-1.623952
1.780	-1.960612	-6.446751	600.788072	-9.929825	-4.680577	-3.165378	0.779073	-1.652800
1.790	-2.039164	-6.436837	601.045944	-10.121934	-4.581186	-3.165839	0.762202	-1.684053
1.800	-2.146917	-6.444743	601.360223	-10.327369	-4.477476	-3.167808	0.744558	-1.717335
1.810	-2.268860	-6.473541	601.673033	-10.542211	-4.371055	-3.171238	0.726483	-1.752149
1.820	-2.388887	-6.525576	601.920057	-10.761850	-4.263912	-3.175885	0.708385	-1.787920
1.830	-2.495861	-6.602162	602.045485	-10.981610	-4.158094	-3.181532	0.690661	-1.824050
1.840	-2.586643	-6.702543	602.009535	-11.197519	-4.054905	-3.188097	0.673562	-1.860024
1.850	-2.665778	-6.823061	601.790438	-11.407027	-3.954092	-3.195545	0.657055	-1.895515
1.860	-2.742937	-6.957492	601.385667	-11.609389	-3.853551	-3.203724	0.640779	-1.930440
1.870	-2.829390	-7.098672	600.814411	-11.805539	-3.749891	-3.212284	0.624135	-1.964923
1.880	-2.934289	-7.240554	600.118914	-11.997479	-3.639700	-3.220795	0.606497	-1.999184
1.890	-3.061372	-7.379451	599.361253	-12.187427	-3.520958	-3.228934	0.587452	-2.033402
1.900	-3.206974	-7.513820	598.614641	-12.377084	-3.393920	-3.236570	0.566962	-2.067621
1.910	-3.360288	-7.642993	597.951316	-12.567327	-3.261039	-3.243697	0.545369	-2.101731
1.920	-3.506125	-7.765870	597.430355	-12.758387	-3.125980	-3.250350	0.523238	-2.135544
1.930	-3.629254	-7.880574	597.088457	-12.950301	-2.992300	-3.256629	0.501149	-2.168908
1.940	-3.718516	-7.985242	596.935749	-13.143270	-2.862454	-3.262811	0.479525	-2.201790
1.950	-3.769038	-8.079287	596.957406	-13.337675	-2.737557	-3.269468	0.458585	-2.234276
1.960	-3.782118	-8.164104	597.120192	-13.533812	-2.617837	-3.277455	0.438410	-2.266514
1.970	-3.763712	-8.242817	597.381463	-13.731584	-2.503357	-3.287698	0.419055	-2.298629
1.980	-3.723025	-8.319527	597.697948	-13.930422	-2.394506	-3.300805	0.400621	-2.330679
1.990	-3.671870	-8.398621	598.032880	-14.129519	-2.291918	-3.316670	0.383243	-2.362666
2.000	-3.624176	-8.484222	598.361431	-14.328359	-2.195867	-3.334294	0.366980	-2.394599
2.010	-3.594532	-8.579456	598.674050	-14.527298	-2.105628	-3.351975	0.351715	-2.426579
2.020	-3.595288	-8.685451	598.976363	-14.727824	-2.019414	-3.367834	0.337144	-2.458832
2.030	-3.632953	-8.800433	599.284475	-14.932225	-1.935135	-3.380448	0.322908	-2.491676
2.040	-3.705388	-8.919509	599.616664	-15.142677	-1.851558	-3.389309	0.308790	-2.525393
2.050	-3.801204	-9.035504	599.984462	-15.360085	-1.769134	-3.394918	0.294863	-2.560080
2.060	-3.902037	-9.140817	600.386232	-15.583156	-1.689993	-3.398485	0.281484	-2.595522
2.070	-3.987224	-9.229626	600.804995	-15.808154	-1.617142	-3.401407	0.269163	-2.631162
2.080	-4.039366	-9.299497	601.211027	-16.029628	-1.553325	-3.404761	0.258366	-2.666223
2.090	-4.048861	-9.351742	601.568693	-16.242058	-1.500088	-3.409025	0.249363	-2.699951
2.100	-4.016008	-9.390645	601.845033	-16.441925	-1.457403	-3.414123	0.242156	-2.731920
2.110	-3.950323	-9.422148	602.016645	-16.629305	-1.423844	-3.419678	0.236512	-2.762267
2.120	-3.867707	-9.452662	602.073066	-16.808019	-1.397036	-3.425312	0.232038	-2.791691
2.130	-3.786504	-9.488276	602.017614	-16.984003	-1.374159	-3.430798	0.228259	-2.821180
2.140	-3.723514	-9.534199	601.867031	-17.162572	-1.352438	-3.436017	0.224707	-2.851555
2.150	-3.690766	-9.594066	601.649549	-17.346019	-1.329642	-3.440825	0.220999	-2.883077
2.160	-3.693607	-9.668952	601.400225	-17.532666	-1.304561	-3.444956	0.216921	-2.915307
2.170	-3.730235	-9.756476	601.153905	-17.717606	-1.277351	-3.448073	0.212483	-2.947266
2.180	-3.792419	-9.850748	600.938011	-17.894552	-1.249557	-3.449892	0.207934	-2.977770
2.190	-3.867114	-9.943632	600.767730	-18.057920	-1.223670	-3.450243	0.203684	-3.005807
2.200	-3.939041	-10.026964	600.644865	-18.204418	-1.202188	-3.448987	0.200150	-3.030812
2.210	-3.994399	-10.094816	600.560251	-18.333727	-1.186518	-3.445932	0.197568	-3.052771
2.220	-4.025107	-10.144952	600.498964	-18.448243	-1.176219	-3.440868	0.195874	-3.072152
2.230	-4.031862	-10.179071	600.447009	-18.552058	-1.168992	-3.433768	0.194687	-3.089708
2.240	-4.024055	-10.201765	600.397150	-18.649570	-1.161439	-3.424986	0.193445	-3.106206
2.250	-4.015975	-10.218538	600.351496	-18.744160	-1.150301	-3.415291	0.191605	-3.122198
2.260	-4.020807	-10.233560	600.319767	-18.837323	-1.133688	-3.405712	0.188847	-3.137882
2.270	-4.045279	-10.247974	600.313829	-18.928503	-1.111807	-3.397221	0.185204	-3.153101
2.280	-4.087409	-10.259336	600.340549	-19.015657	-1.086941	-3.390399	0.181054	-3.167478
2.290	-4.138103	-10.262403	600.396343	-19.096307	-1.062747	-3.385179	0.177008	-3.180617
2.300	-4.185305	-10.251089	600.467049	-19.168645	-1.043130	-3.380815	0.173720	-3.192289
2.310	-4.218476	-10.220960	600.534455	-19.232263	-1.031024	-3.376125	0.171684	-3.202525
