Time[s]	Fx[N]	Fy[N]	Fz[N]	Mx[Nm]	My[Nm]	Mz[Nm]	COPx[cm]	COPy[cm]
0.010	7.089992	-3.292809	623.714452	-0.208767	-13.151439	-0.669900	2.108567	-0.033472
0.020	7.193189	-3.332840	623.795672	-0.180311	-13.045023	-0.642799	2.091233	-0.028905
0.030	7.260551	-3.363321	623.929206	-0.158433	-12.943922	-0.621251	2.074582	-0.025393
0.040	7.268455	-3.377268	624.137046	-0.148500	-12.851900	-0.609106	2.059147	-0.023793
0.050	7.212373	-3.373222	624.399580	-0.153411	-12.770249	-0.607430	2.045205	-0.024569
0.060	7.106808	-3.355398	624.663614	-0.172311	-12.698012	-0.614351	2.032776	-0.027585
0.070	6.978510	-3.331821	624.865961	-0.200161	-12.632879	-0.625889	2.021694	-0.032033
0.080	6.856199	-3.311318	624.959664	-0.228825	-12.572228	-0.637391	2.011686	-0.036614
0.090	6.761079	-3.300549	624.930445	-0.249562	-12.513917	-0.645046	2.002450	-0.039934
0.100	6.701528	-3.302102	624.797683	-0.256006	-12.456630	-0.646914	1.993706	-0.040974
0.110	6.673223	-3.314252	624.602365	-0.246338	-12.399738	-0.643221	1.985221	-0.039439
0.120	6.663669	-3.332447	624.390000	-0.223728	-12.342832	-0.635910	1.976782	-0.035831
0.130	6.658582	-3.351838	624.197026	-0.194881	-12.285254	-0.627802	1.968169	-0.031221
0.140	6.647142	-3.369567	624.045116	-0.167491	-12.225975	-0.621704	1.959149	-0.026839
0.150	6.624198	-3.385496	623.942219	-0.147731	-12.163892	-0.619750	1.949522	-0.023677
0.160	6.589461	-3.401090	623.886384	-0.138676	-12.098358	-0.622988	1.939193	-0.022228
0.170	6.545198	-3.417429	623.869622	-0.139901	-12.029587	-0.631160	1.928221	-0.022425
0.180	6.494191	-3.433850	623.881507	-0.148104	-11.958710	-0.642692	1.916824	-0.023739
0.190	6.438826	-3.447951	623.912821	-0.158417	-11.887436	-0.655039	1.905304	-0.025391
0.200	6.381155	-3.456560	623.958387	-0.165983	-11.817472	-0.665437	1.893952	-0.026602
0.210	6.323194	-3.456880	624.017626	-0.167374	-11.749970	-0.671831	1.882955	-0.026822
0.220	6.266950	-3.447407	624.092389	-0.161392	-11.685234	-0.673562	1.872356	-0.025860
0.230	6.214264	-3.428580	624.183295	-0.149023	-11.622777	-0.671479	1.862078	-0.023875
0.240	6.166816	-3.403035	624.286543	-0.132590	-11.561631	-0.667414	1.851975	-0.021239
0.250	6.126384	-3.375122	624.392641	-0.114497	-11.500773	-0.663254	1.841914	-0.018337
0.260	6.095160	-3.349448	624.487272	-0.096131	-11.439585	-0.660033	1.831836	-0.015394
0.270	6.075766	-3.328911	624.553763	-0.077379	-11.378237	-0.657474	1.821819	-0.012389
0.280	6.070666	-3.313296	624.576579	-0.056989	-11.317861	-0.654221	1.812085	-0.009124
0.290	6.081056	-3.299362	624.545268	-0.033552	-11.260457	-0.648619	1.802985	-0.005372
0.300	6.105611	-3.282563	624.458085	-0.006535	-11.208547	-0.639604	1.794924	-0.001046
0.310	6.139608	-3.259513	624.324499	0.023313	-11.164666	-0.627267	1.788279	0.003734
0.320	6.175048	-3.229912	624.166013	0.054420	-11.130707	-0.612827	1.783293	0.008719
0.330	6.202298	-3.196973	624.014636	0.085359	-11.107243	-0.598133	1.779965	0.013679
0.340	6.213029	-3.166230	623.907850	0.115676	-11.093176	-0.584993	1.778015	0.018541
0.350	6.203357	-3.143258	623.879600	0.146180	-11.086001	-0.574679	1.776946	0.023431
0.360	6.175695	-3.131147	623.949219	0.178658	-11.082627	-0.567736	1.776207	0.028633
0.370	6.138237	-3.128802	624.112414	0.215211	-11.080350	-0.564103	1.775377	0.034483
0.380	6.102078	-3.131040	624.338439	0.257416	-11.077495	-0.563406	1.774277	0.041230
0.390	6.077280	-3.130803	624.575582	0.305589	-11.073565	-0.565271	1.772974	0.048927
0.400	6.069817	-3.122547	624.764135	0.358439	-11.069046	-0.569502	1.771716	0.057372
0.410	6.080718	-3.105053	624.853416	0.413218	-11.065206	-0.576068	1.770848	0.066130
0.420	6.107226	-3.082103	624.817678	0.466270	-11.063992	-0.584933	1.770755	0.074625
0.430	6.144673	-3.060696	624.665277	0.513812	-11.067841	-0.595869	1.771804	0.082254
0.440	6.187951	-3.047716	624.436871	0.552861	-11.079113	-0.608427	1.774257	0.088538
0.450	6.232334	-3.046711	624.192497	0.582202	-11.099157	-0.622049	1.778162	0.093273
0.460	6.273861	-3.056322	623.992325	0.603126	-11.127469	-0.636190	1.783270	0.096656
0.470	6.309354	-3.071155	623.878496	0.619524	-11.161564	-0.650293	1.789060	0.099302
0.480	6.336218	-3.084571	623.864335	0.637088	-11.197881	-0.663714	1.794922	0.102120
0.490	6.352466	-3.091841	623.933956	0.661749	-11.233395	-0.675764	1.800414	0.106061
0.500	6.357377	-3.092017	624.051389	0.697895	-11.267056	-0.685958	1.805469	0.111833
0.510	6.352465	-3.087733	624.175063	0.747029	-11.300264	-0.694323	1.810432	0.119683
0.520	6.341912	-3.083336	624.272074	0.807387	-11.336147	-0.701527	1.815898	0.129333
0.530	6.331935	-3.082456	624.327746	0.874707	-11.378075	-0.708664	1.822452	0.140104
0.540	6.329210	-3.086290	624.348402	0.943813	-11.428218	-0.716804	1.830423	0.151168
0.550	6.338988	-3.093340	624.357537	1.010303	-11.486727	-0.726513	1.839768	0.161815
0.560	6.363574	-3.100431	624.387116	1.071640	-11.551755	-0.737552	1.850095	0.171631
0.570	6.401708	-3.104208	624.466367	1.127304	-11.620118	-0.748854	1.860808	0.180523
0.580	6.449197	-3.102349	624.610208	1.178157	-11.688378	-0.758846	1.871308	0.188623
0.590	6.500766	-3.094153	624.809579	1.225452	-11.754013	-0.766019	1.881215	0.196132
0.600	6.552387	-3.080499	625.027048	1.270086	-11.816295	-0.769542	1.890525	0.203205
0.610	6.602799	-3.063319	625.201892	1.312381	-11.876516	-0.769619	1.899629	0.209913
0.620	6.653264	-3.044777	625.266241	1.352283	-11.937455	-0.767416	1.909179	0.216273
0.630	6.705667	-3.026385	625.167814	1.389590	-12.002264	-0.764559	1.919847	0.222275
0.640	6.760208	-3.008340	624.889675	1.423961	-12.073164	-0.762457	1.932047	0.227874
0.650	6.814147	-2.989295	624.458499	1.454849	-12.150341	-0.761727	1.945740	0.232978
0.660	6.862322	-2.966718	623.939494	1.481657	-12.231389	-0.761957	1.960349	0.237468
0.670	6.898929	-2.937878	623.422308	1.504252	-12.311596	-0.761847	1.974840	0.241289
0.680	6.919467	-2.901251	623.003293	1.523556	-12.385122	-0.759627	1.987971	0.244550
0.690	6.922117	-2.857819	622.767127	1.541743	-12.446758	-0.753628	1.998622	0.247563
0.700	6.908507	-2.811564	622.769442	1.561743	-12.493565	-0.742812	2.006130	0.250774
0.710	6.883958	-2.768690	623.022910	1.586197	-12.525711	-0.727129	2.010474	0.254597
0.720	6.857138	-2.735708	623.490571	1.616382	-12.546288	-0.707568	2.012266	0.259247
0.730	6.838870	-2.717134	624.090153	1.651671	-12.560441	-0.685928	2.012600	0.264653
0.740	6.840047	-2.713701	624.710560	1.689887	-12.574258	-0.664392	2.012813	0.270507
0.750	6.868987	-2.721809	625.236853	1.728416	-12.593665	-0.645044	2.014223	0.276442
0.760	6.928932	-2.734516	625.576091	1.765498	-12.623360	-0.629410	2.017878	0.282219
0.770	7.016594	-2.743867	625.676379	1.800869	-12.665864	-0.618126	2.024347	0.287827
0.780	7.122401	-2.743763	625.534980	1.835304	-12.720889	-0.610839	2.033601	0.293397
0.790	7.232464	-2.732119	625.195217	1.869330	-12.785269	-0.606379	2.045004	0.298999
0.800	7.331572	-2.711270	624.734163	1.902009	-12.853553	-0.603156	2.057444	0.304451
0.810	7.406304	-2.686426	624.243957	1.930622	-12.919151	-0.599655	2.069568	0.309274
0.820	7.447587	-2.662970	623.810631	1.951471	-12.975708	-0.594883	2.080072	0.312831
0.830	7.452325	-2.643905	623.495927	1.961383	-13.018295	-0.588658	2.087952	0.314578
0.840	7.423752	-2.628672	623.327684	1.959134	-13.044127	-0.581628	2.092660	0.314302
0.850	7.370328	-2.613799	623.301189	1.946147	-13.052854	-0.575019	2.094149	0.312232
0.860	7.303462	-2.594871	623.388733	1.926133	-13.046641	-0.570178	2.092858	0.308978
0.870	7.234954	-2.568667	623.551453	1.903857	-13.030102	-0.568093	2.089659	0.305325
0.880	7.175101	-2.534485	623.748615	1.883662	-13.009836	-0.569068	2.085750	0.301991
0.890	7.131848	-2.494531	623.943158	1.868479	-12.993278	-0.572639	2.082446	0.299463
0.900	7.110696	-2.453718	624.105206	1.859639	-12.986966	-0.577744	2.080894	0.297969
0.910	7.114900	-2.418999	624.215568	1.857239	-12.994826	-0.583030	2.081785	0.297532
0.920	7.145536	-2.398029	624.269504	1.860606	-13.017228	-0.587193	2.085194	0.298045
0.930	7.201242	-2.397156	624.278664	1.868555	-13.051196	-0.589227	2.090604	0.299314
0.940	7.277655	-2.419143	624.268063	1.879417	-13.091641	-0.588541	2.097119	0.301059
0.950	7.366917	-2.461498	624.267087	1.891042	-13.133105	-0.584953	2.103764	0.302922
0.960	7.457825	-2.516301	624.297943	1.900956	-13.171388	-0.578644	2.109792	0.304495
0.970	7.537198	-2.572039	624.367364	1.906721	-13.204497	-0.570125	2.114860	0.305385
0.980	7.592600	-2.617070	624.465199	1.906362	-13.232583	-0.560218	2.119027	0.305279
0.990	7.615874	-2.643404	624.569414	1.898683	-13.257008	-0.550020	2.122584	0.303999
1.000	7.606226	-2.649213	624.654977	1.883473	-13.279058	-0.540819	2.125823	0.301522
1.010	7.571389	-2.639103	624.703677	1.861570	-13.299008	-0.533883	2.128851	0.297992
1.020	7.525912	-2.622058	624.711505	1.834707	-13.315937	-0.530122	2.131534	0.293689
1.030	7.486687	-2.607795	624.690468	1.805041	-13.328236	-0.529695	2.133574	0.288950
1.040	7.467155	-2.602909	624.663730	1.774553	-13.334466	-0.531818	2.134663	0.284081
1.050	7.472575	-2.608479	624.655706	1.744638	-13.334072	-0.534952	2.134627	0.279296
1.060	7.498574	-2.620333	624.680976	1.716062	-13.327637	-0.537375	2.133511	0.274710
1.070	7.533544	-2.631834	624.736982	1.689194	-13.316565	-0.537925	2.131547	0.270385
1.080	7.563420	-2.637612	624.804299	1.664257	-13.302453	-0.536542	2.129059	0.266364
1.090	7.576411	-2.636101	624.854341	1.641435	-13.286494	-0.534330	2.126335	0.262691
1.100	7.565924	-2.629687	624.860394	1.620761	-13.269196	-0.533099	2.123546	0.259380
1.110	7.531244	-2.622907	624.806938	1.601896	-13.250386	-0.534568	2.120717	0.256383
1.120	7.476608	-2.620295	624.694008	1.584030	-13.229405	-0.539612	2.117742	0.253569
1.130	7.409490	-2.625093	624.535573	1.566055	-13.205379	-0.547856	2.114432	0.250755
1.140	7.338633	-2.638937	624.353352	1.546953	-13.177554	-0.557820	2.110592	0.247769
1.150	7.272113	-2.661803	624.169573	1.526156	-13.145597	-0.567532	2.106094	0.244510
1.160	7.215762	-2.691802	624.002079	1.503653	-13.109732	-0.575350	2.100912	0.240969
1.170	7.172341	-2.725119	623.862812	1.479836	-13.070627	-0.580573	2.095112	0.237205
1.180	7.141667	-2.756499	623.758530	1.455225	-13.029104	-0.583599	2.088806	0.233299
1.190	7.121530	-2.780405	623.692290	1.430245	-12.985909	-0.585602	2.082102	0.229319
1.200	7.108961	-2.792514	623.664894	1.405100	-12.941691	-0.587917	2.075103	0.225297
1.210	7.101240	-2.791041	623.676184	1.379714	-12.897137	-0.591398	2.067922	0.221223
1.220	7.096194	-2.777359	623.725868	1.353649	-12.853043	-0.595998	2.060688	0.217026
1.230	7.091817	-2.755734	623.812591	1.326121	-12.810159	-0.600802	2.053527	0.212583
1.240	7.085708	-2.732266	623.930493	1.296270	-12.768872	-0.604520	2.046521	0.207759
1.250	7.074918	-2.713391	624.065309	1.263674	-12.728949	-0.606226	2.039682	0.202491
1.260	7.056425	-2.704402	624.194297	1.228831	-12.689545	-0.605928	2.032948	0.196867
1.270	7.028043	-2.708385	624.292396	1.193244	-12.649465	-0.604650	2.026208	0.191135
1.280	6.989370	-2.725831	624.342421	1.158969	-12.607507	-0.603970	2.019326	0.185630
1.290	6.942247	-2.755012	624.343817	1.127900	-12.562648	-0.605266	2.012136	0.180654
1.300	6.890294	-2.792957	624.314721	1.101189	-12.514037	-0.609093	2.004444	0.176384
1.310	6.837605	-2.836526	624.285227	1.079016	-12.460935	-0.615046	1.996032	0.172840
1.320	6.787362	-2.883015	624.283898	1.060608	-12.402861	-0.622151	1.986734	0.169892
1.330	6.741120	-2.930102	624.323107	1.044366	-12.339988	-0.629474	1.976539	0.167280
1.340	6.698931	-2.975449	624.390812	1.028095	-12.273516	-0.636506	1.965679	0.164656
1.350	6.659952	-3.016527	624.454646	1.009427	-12.205658	-0.643133	1.954611	0.161649
1.360	6.623074	-3.050930	624.478103	0.986465	-12.139096	-0.649373	1.943879	0.157966
1.370	6.587275	-3.077004	624.440741	0.958447	-12.076196	-0.655184	1.933922	0.153489
1.380	6.551620	-3.094431	624.350829	0.926035	-12.018341	-0.660437	1.924934	0.148320
1.390	6.515086	-3.104517	624.242943	0.890956	-11.965577	-0.664998	1.916814	0.142726
1.400	6.476538	-3.110095	624.162238	0.855125	-11.916672	-0.668819	1.909227	0.137004
1.410	6.435148	-3.114849	624.144344	0.819846	-11.869621	-0.672028	1.901743	0.131355
1.420	6.391147	-3.122055	624.200208	0.785671	-11.822541	-0.674992	1.894030	0.125868
1.430	6.346392	-3.133187	624.310258	0.752896	-11.774587	-0.678323	1.886015	0.120597
1.440	6.304145	-3.147238	624.427751	0.722159	-11.726483	-0.682786	1.877957	0.115651
1.450	6.268019	-3.161357	624.490368	0.694481	-11.680366	-0.689099	1.870384	0.111208
1.460	6.240753	-3.172565	624.439285	0.670677	-11.639018	-0.697659	1.863915	0.107405
1.470	6.223492	-3.179500	624.242131	0.650566	-11.604781	-0.708297	1.859019	0.104217
1.480	6.215646	-3.183142	623.911662	0.632595	-11.578572	-0.720186	1.855803	0.101392
1.490	6.214969	-3.186273	623.510497	0.614117	-11.559366	-0.731993	1.853917	0.098493
1.500	6.217690	-3.192188	623.136727	0.592188	-11.544368	-0.742236	1.852622	0.095033
1.510	6.219051	-3.203383	622.893827	0.564617	-11.529891	-0.749717	1.851020	0.090644
1.520	6.214595	-3.220595	622.856455	0.530970	-11.512671	-0.753836	1.848367	0.085248
1.530	6.201941	-3.242344	623.046297	0.493138	-11.491159	-0.754658	1.844351	0.079150
1.540	6.182250	-3.265181	623.426849	0.455056	-11.466333	-0.752735	1.839243	0.072993
1.550	6.160552	-3.284786	623.916483	0.421472	-11.441661	-0.748804	1.833845	0.067553
1.560	6.144649	-3.297624	624.412005	0.396227	-11.422195	-0.743512	1.829272	0.063456
1.570	6.142906	-3.302420	624.813656	0.380882	-11.413122	-0.737266	1.826644	0.060959
1.580	6.161764	-3.300634	625.045694	0.374349	-11.418309	-0.730233	1.826796	0.059891
1.590	6.203752	-3.295593	625.070218	0.373660	-11.439334	-0.722509	1.830088	0.059779
1.600	6.266415	-3.290790	624.893518	0.375321	-11.475249	-0.714370	1.836353	0.060062
1.610	6.342386	-3.288339	624.564359	0.376499	-11.522970	-0.706422	1.844961	0.060282
1.620	6.420862	-3.288248	624.163631	0.375566	-11.577969	-0.699481	1.854957	0.060171
1.630	6.490437	-3.288413	623.785966	0.372054	-11.635016	-0.694225	1.865226	0.059645
1.640	6.542483	-3.285034	623.516785	0.366347	-11.688887	-0.690847	1.874671	0.058755
1.650	6.573675	-3.273358	623.411560	0.359384	-11.735045	-0.688961	1.882391	0.057648
1.660	6.586518	-3.248882	623.484433	0.352401	-11.770237	-0.687841	1.887816	0.056521
1.670	6.587763	-3.208964	623.709598	0.346602	-11.792949	-0.686823	1.890776	0.055571
1.680	6.585650	-3.154422	624.033340	0.342795	-11.803721	-0.685569	1.891521	0.054932
1.690	6.587276	-3.090322	624.390790	0.341173	-11.805238	-0.684057	1.890681	0.054641
1.700	6.596920	-3.025110	624.720827	0.341418	-11.802046	-0.682317	1.889171	0.054651
1.710	6.615497	-2.967870	624.975189	0.343056	-11.799727	-0.680150	1.888031	0.054891
1.720	6.640987	-2.924718	625.122147	0.345822	-11.803633	-0.677056	1.888212	0.055321
1.730	6.669600	-2.896254	625.147699	0.349781	-11.817583	-0.672441	1.890367	0.055952
1.740	6.697314	-2.877757	625.056326	0.355163	-11.842927	-0.665962	1.894698	0.056821
1.750	6.721276	-2.862226	624.870714	0.362105	-11.878220	-0.657792	1.900908	0.057949
1.760	6.740642	-2.844602	624.628878	0.370507	-11.919522	-0.648638	1.908257	0.059316
1.770	6.756689	-2.824666	624.378084	0.379983	-11.961350	-0.639569	1.915722	0.060858
1.780	6.772238	-2.806947	624.166264	0.389712	-11.998213	-0.631776	1.922278	0.062437
1.790	6.790484	-2.797711	624.032267	0.398164	-12.026392	-0.626380	1.927207	0.063805
1.800	6.813551	-2.800846	623.996973	0.402991	-12.045201	-0.624316	1.930330	0.064582
1.810	6.841489	-2.814916	624.058028	0.401340	-12.057084	-0.626203	1.932045	0.064311
1.820	6.872366	-2.833006	624.190891	0.390551	-12.066440	-0.632152	1.933133	0.062569
1.830	6.903250	-2.845559	624.356800	0.368934	-12.077691	-0.641571	1.934421	0.059090
1.840	6.931203	-2.845065	624.515067	0.336332	-12.093453	-0.653125	1.936455	0.053855
1.850	6.953650	-2.830336	624.634739	0.294275	-12.113581	-0.664957	1.939306	0.047111
1.860	6.968471	-2.807923	624.700912	0.245581	-12.135481	-0.675146	1.942607	0.039312
1.870	6.974440	-2.789525	624.713695	0.193471	-12.155472	-0.682263	1.945767	0.030970
1.880	6.972039	-2.786717	624.681902	0.140526	-12.170527	-0.685785	1.948276	0.022496
1.890	6.964047	-2.805956	624.616286	0.087996	-12.179602	-0.686212	1.949933	0.014088
1.900	6.955254	-2.846398	624.526397	0.035817	-12.183998	-0.684867	1.950918	0.005735
1.910	6.951133	-2.901015	624.421680	-0.016750	-12.186697	-0.683462	1.951677	-0.002683
1.920	6.955923	-2.959743	624.314163	-0.070348	-12.191108	-0.683557	1.952720	-0.011268
1.930	6.970869	-3.012938	624.219368	-0.125130	-12.199936	-0.686110	1.954431	-0.020046
1.940	6.993434	-3.053948	624.153891	-0.180864	-12.214660	-0.691266	1.956995	-0.028977
1.950	7.017993	-3.080409	624.130504	-0.237219	-12.235631	-0.698454	1.960428	-0.038008
1.960	7.038023	-3.094300	624.153198	-0.293817	-12.262494	-0.706700	1.964661	-0.047074
1.970	7.049065	-3.100878	624.214763	-0.349938	-12.294589	-0.714938	1.969609	-0.056060
1.980	7.051147	-3.106696	624.298320	-0.404232	-12.331184	-0.722155	1.975207	-0.064750
1.990	7.049393	-3.117257	624.382349	-0.454887	-12.371641	-0.727363	1.981421	-0.072854
2.000	7.052346	-3.135228	624.447125	-0.500367	-12.415634	-0.729553	1.988260	-0.080130
2.010	7.068754	-3.159966	624.480289	-0.540319	-12.463306	-0.727824	1.995789	-0.086523
2.020	7.104418	-3.188368	624.480039	-0.576071	-12.515110	-0.721659	2.004085	-0.092248
2.030	7.160532	-3.216470	624.454941	-0.610423	-12.571238	-0.711202	2.013154	-0.097753
2.040	7.233810	-3.241015	624.419887	-0.646821	-12.630956	-0.697427	2.022831	-0.103587
2.050	7.317659	-3.260497	624.389249	-0.688247	-12.692370	-0.682083	2.032766	-0.110227
2.060	7.403545	-3.275483	624.370599	-0.736216	-12.752863	-0.667344	2.042515	-0.117913
2.070	7.482316	-3.288258	624.363003	-0.790182	-12.809957	-0.655180	2.051684	-0.126558
2.080	7.545649	-3.301888	624.361057	-0.847566	-12.861950	-0.646715	2.060018	-0.135749
2.090	7.587503	-3.318846	624.361286	-0.904427	-12.907888	-0.641888	2.067375	-0.144856
2.100	7.605139	-3.339639	624.365770	-0.956648	-12.946901	-0.639576	2.073608	-0.153219
2.110	7.599259	-3.362099	624.380660	-1.001256	-12.977467	-0.638089	2.078454	-0.160360
2.120	7.573296	-3.381944	624.411415	-1.037403	-12.997183	-0.635785	2.081509	-0.166141
2.130	7.532339	-3.394520	624.458262	-1.066546	-13.003221	-0.631598	2.082320	-0.170795
2.140	7.482144	-3.396860	624.514403	-1.091707	-12.993265	-0.625356	2.080539	-0.174809
2.150	7.428360	-3.389003	624.567802	-1.116134	-12.966478	-0.617836	2.076072	-0.178705
2.160	7.375740	-3.373855	624.605797	-1.141966	-12.924054	-0.610514	2.069154	-0.182830
2.170	7.327246	-3.355744	624.620218	-1.169476	-12.869070	-0.605045	2.060303	-0.187230
2.180	7.283230	-3.338552	624.610314	-1.197107	-12.805667	-0.602592	2.050185	-0.191657
2.190	7.240974	-3.324567	624.582480	-1.222153	-12.737879	-0.603250	2.039423	-0.195675
2.200	7.194895	-3.314550	624.547947	-1.241777	-12.668537	-0.605831	2.028433	-0.198828
2.210	7.137620	-3.308562	624.519887	-1.254021	-12.598609	-0.608190	2.017327	-0.200798
2.220	7.061990	-3.306631	624.510147	-1.258439	-12.527190	-0.608038	2.005923	-0.201508
2.230	6.963508	-3.308605	624.525251	-1.256132	-12.452121	-0.603918	1.993854	-0.201134
2.240	6.842338	-3.313234	624.562458	-1.249324	-12.371008	-0.595855	1.980748	-0.200032
2.250	6.703983	-3.317151	624.607531	-1.240745	-12.282272	-0.585370	1.966398	-0.198644
2.260	6.558211	-3.314714	624.635225	-1.232970	-12.185900	-0.574850	1.950883	-0.197390
2.270	6.416524	-3.299270	624.612806	-1.227730	-12.083677	-0.566601	1.934587	-0.196558
2.280	6.289129	-3.265520	624.507310	-1.225356	-11.978908	-0.562004	1.918137	-0.196212
2.290	6.182681	-3.211840	624.297014	-1.224661	-11.875790	-0.561100	1.902266	-0.196166
2.300	6.099601	-3.141306	623.984614	-1.223460	-11.778614	-0.562686	1.887645	-0.196072
2.310	6.038780	-3.060950	623.605768	-1.219563	-11.690924	-0.564828	1.874730	-0.195566
2.320	5.996787	-2.979800	623.226380	-1.211720	-11.614666	-0.565536	1.863635	-0.194427
2.330	5.968695	-2.906623	622.926610	-1.200111	-11.549558	-0.563353	1.854080	-0.192657
2.340	5.948359	-2.848079	622.776266	-1.186202	-11.493046	-0.557756	1.845453	-0.190470
2.350	5.928690	-2.807640	622.811202	-1.172175	-11.441137	-0.549318	1.837015	-0.188207
