Time[s]	Fx[N]	Fy[N]	Fz[N]	Mx[Nm]	My[Nm]	Mz[Nm]	COPx[cm]	COPy[cm]
0.010	6.042563	-0.869613	573.905427	-9.960094	7.055304	-0.496314	-1.229350	-1.735494
0.020	6.204294	-0.869916	573.309734	-9.964048	7.053121	-0.461814	-1.230246	-1.737987
0.030	6.351248	-0.858911	572.756274	-9.970192	7.051542	-0.433530	-1.231159	-1.740739
0.040	6.468967	-0.830356	572.281137	-9.979579	7.053061	-0.415723	-1.232447	-1.743824
0.050	6.545083	-0.785347	571.912814	-9.991635	7.062207	-0.409348	-1.234840	-1.747056
0.060	6.570871	-0.731856	571.671003	-10.004192	7.084593	-0.412053	-1.239278	-1.749991
0.070	6.542943	-0.681473	571.566251	-10.013902	7.125281	-0.419415	-1.246624	-1.752011
0.080	6.464446	-0.644859	571.598635	-10.016931	7.187454	-0.426810	-1.257430	-1.752441
0.090	6.345047	-0.627734	571.754734	-10.009833	7.272085	-0.431103	-1.271889	-1.750722
0.100	6.199437	-0.628830	572.004769	-9.990340	7.378534	-0.431423	-1.289943	-1.746548
0.110	6.044698	-0.640377	572.303421	-9.957689	7.505382	-0.428850	-1.311434	-1.739932
0.120	5.897248	-0.650636	572.596709	-9.912320	7.650927	-0.425384	-1.336181	-1.731117
0.130	5.769931	-0.647122	572.833316	-9.855090	7.813360	-0.422922	-1.363985	-1.720411
0.140	5.669303	-0.619116	572.974970	-9.786383	7.991244	-0.422787	-1.394693	-1.707995
0.150	5.592672	-0.558854	573.000932	-9.705492	8.184874	-0.425926	-1.428422	-1.693800
0.160	5.524833	-0.461727	572.906504	-9.610489	8.398451	-0.433396	-1.465937	-1.677497
0.170	5.435684	-0.326142	572.699750	-9.498704	8.642184	-0.446661	-1.509025	-1.658584
0.180	5.281227	-0.153426	572.400720	-9.367793	8.932832	-0.467414	-1.560591	-1.636579
0.190	5.010545	0.052054	572.044231	-9.217229	9.291418	-0.496925	-1.624248	-1.611279
0.200	4.579545	0.282293	571.683403	-9.049939	9.737756	-0.535170	-1.703348	-1.583033
0.210	3.968836	0.524593	571.388497	-8.873533	10.282922	-0.580078	-1.799638	-1.552977
0.220	3.199474	0.760738	571.235742	-8.700391	10.922078	-0.627250	-1.912009	-1.523082
0.230	2.338838	0.967850	571.285072	-8.546080	11.630564	-0.670429	-2.035860	-1.495940
0.240	1.491050	1.122136	571.553259	-8.426167	12.365503	-0.702842	-2.163491	-1.474257
0.250	0.772012	1.205150	571.995301	-8.352331	13.073357	-0.719178	-2.285571	-1.460210
0.260	0.276081	1.210172	572.506460	-8.329203	13.701669	-0.717561	-2.393278	-1.454866
0.270	0.046427	1.145450	572.948792	-8.353196	14.211360	-0.700646	-2.480389	-1.457931
0.280	0.061098	1.032370	573.194143	-8.413863	14.585473	-0.675188	-2.544596	-1.467891
0.290	0.240998	0.899255	573.167092	-8.497141	14.831486	-0.650097	-2.587637	-1.482489
0.300	0.476793	0.773438	572.870466	-8.589174	14.976837	-0.633673	-2.614350	-1.499322
0.310	0.663914	0.674522	572.383306	-8.679461	15.059824	-0.631162	-2.631073	-1.516372
0.320	0.732267	0.610666	571.833403	-8.762649	15.119392	-0.643524	-2.644020	-1.532378
0.330	0.660685	0.578391	571.357538	-8.838779	15.187033	-0.667728	-2.658061	-1.546979
0.340	0.473348	0.565392	571.065454	-8.912160	15.282473	-0.698172	-2.676133	-1.560620
0.350	0.222471	0.555237	571.017399	-8.989239	15.413160	-0.728518	-2.699245	-1.574250
0.360	-0.034376	0.532522	571.216382	-9.076184	15.576441	-0.753265	-2.726890	-1.588922
0.370	-0.253934	0.487042	571.612207	-9.177046	15.763046	-0.768690	-2.757647	-1.605467
0.380	-0.418335	0.415828	572.115158	-9.293179	15.960818	-0.773088	-2.789791	-1.624355
0.390	-0.535996	0.322536	572.617854	-9.423995	16.158088	-0.766517	-2.821793	-1.645774
0.400	-0.634218	0.214636	573.021396	-9.568441	16.346191	-0.750323	-2.852632	-1.669823
0.410	-0.747443	0.099692	573.258870	-9.726311	16.520545	-0.726725	-2.881865	-1.696670
0.420	-0.905014	-0.017738	573.309004	-9.898653	16.679842	-0.698582	-2.909398	-1.726582
0.430	-1.120976	-0.137371	573.196132	-10.087018	16.823571	-0.669270	-2.935046	-1.759785
0.440	-1.387476	-0.262332	572.977556	-10.291968	16.948867	-0.642455	-2.958033	-1.796225
0.450	-1.673306	-0.396777	572.723342	-10.511584	17.048183	-0.621613	-2.976687	-1.835369
0.460	-1.928827	-0.543265	572.495219	-10.740777	17.109018	-0.609323	-2.988500	-1.876134
0.470	-2.096977	-0.700962	572.331016	-10.971762	17.116178	-0.606553	-2.990608	-1.917031
0.480	-2.127823	-0.865215	572.239113	-11.195541	17.055962	-0.612202	-2.980566	-1.956445
0.490	-1.992652	-1.028523	572.203689	-11.403907	16.920781	-0.623147	-2.957125	-1.992980
0.500	-1.693424	-1.182695	572.197051	-11.591316	16.712446	-0.634857	-2.920750	-2.025756
0.510	-1.264301	-1.321584	572.192941	-11.756036	16.442894	-0.642481	-2.873662	-2.054558
0.520	-0.764138	-1.443259	572.176147	-11.900133	16.132002	-0.642106	-2.819412	-2.079802
0.530	-0.261963	-1.550309	572.147345	-12.028356	15.803087	-0.631827	-2.762066	-2.102318
0.540	0.180007	-1.647739	572.124023	-12.146432	15.477305	-0.612264	-2.705236	-2.123042
0.550	0.520649	-1.739434	572.137358	-12.259538	15.168608	-0.586247	-2.651218	-2.142761
0.560	0.747738	-1.825324	572.223720	-12.371395	14.880852	-0.557744	-2.600530	-2.161986
0.570	0.877819	-1.901109	572.410909	-12.484023	14.607946	-0.530455	-2.552003	-2.180955
0.580	0.949011	-1.960891	572.703122	-12.597904	14.336891	-0.506755	-2.503372	-2.199727
0.590	1.009448	-2.001363	573.071732	-12.712282	14.052561	-0.487374	-2.452147	-2.218271
0.600	1.104919	-2.025402	573.458049	-12.825489	13.742575	-0.471765	-2.396440	-2.236517
0.610	1.269018	-2.043201	573.789165	-12.935332	13.400737	-0.458791	-2.335481	-2.254370
0.620	1.517792	-2.070082	574.001506	-13.039556	13.028192	-0.447345	-2.269714	-2.271694
0.630	1.849333	-2.121362	574.062374	-13.136256	12.632371	-0.436684	-2.200522	-2.288298
0.640	2.247563	-2.205885	573.979936	-13.223958	12.224485	-0.426517	-2.129776	-2.303906
0.650	2.688513	-2.320761	573.797414	-13.301203	11.816613	-0.417008	-2.059370	-2.318101
0.660	3.146689	-2.449890	573.575036	-13.365775	11.419215	-0.408793	-1.990884	-2.330257
0.670	3.599294	-2.567547	573.368396	-13.414106	11.039453	-0.402955	-1.925368	-2.339527
0.680	4.027544	-2.645945	573.211327	-13.441373	10.680376	-0.400782	-1.863253	-2.344924
0.690	4.416099	-2.663736	573.107863	-13.442469	10.340961	-0.403255	-1.804366	-2.345539
0.700	4.752390	-2.612039	573.034904	-13.413541	10.017052	-0.410447	-1.748070	-2.340790
0.710	5.026971	-2.495920	572.954910	-13.353524	9.703205	-0.421177	-1.693537	-2.330641
0.720	5.234896	-2.331314	572.834719	-13.265116	9.395162	-0.433167	-1.640117	-2.315697
0.730	5.377397	-2.139120	572.663210	-13.154743	9.092256	-0.443700	-1.587714	-2.297117
0.740	5.463056	-1.939004	572.460033	-13.031398	8.798707	-0.450549	-1.536999	-2.276386
0.750	5.507728	-1.745286	572.271277	-12.904634	8.523008	-0.452775	-1.489330	-2.254985
0.760	5.532732	-1.566179	572.153676	-12.782317	8.275319	-0.451069	-1.446345	-2.234071
0.770	5.561370	-1.405848	572.153562	-12.668821	8.063667	-0.447460	-1.409354	-2.214234
0.780	5.614573	-1.267190	572.288528	-12.564260	7.890422	-0.444522	-1.378749	-2.195442
0.790	5.706897	-1.153068	572.538626	-12.465100	7.750525	-0.444439	-1.353712	-2.177163
0.800	5.843825	-1.065121	572.850544	-12.365987	7.632349	-0.448313	-1.332346	-2.158676
0.810	6.020833	-1.001281	573.153108	-12.262108	7.521073	-0.455961	-1.312227	-2.139412
0.820	6.224342	-0.954189	573.377423	-12.151110	7.403352	-0.466166	-1.291183	-2.119217
0.830	6.434343	-0.912081	573.473552	-12.033807	7.271526	-0.477167	-1.267979	-2.098407
0.840	6.628096	-0.861930	573.419154	-11.913532	7.125839	-0.487161	-1.242693	-2.077631
0.850	6.784159	-0.793164	573.220679	-11.794612	6.974105	-0.494712	-1.216653	-2.057604
0.860	6.886028	-0.700324	572.910148	-11.680706	6.829333	-0.498982	-1.192043	-2.038837
0.870	6.924938	-0.584060	572.539542	-11.573614	6.706345	-0.499760	-1.171333	-2.021452
0.880	6.901396	-0.450745	572.173049	-11.472851	6.618390	-0.497320	-1.156711	-2.005137
0.890	6.825063	-0.311043	571.876698	-11.376044	6.574476	-0.492170	-1.149632	-1.989248
0.900	6.712708	-0.177447	571.705766	-11.279953	6.577902	-0.484775	-1.150575	-1.973035
0.910	6.584197	-0.060776	571.692172	-11.181642	6.626266	-0.475361	-1.159062	-1.955885
0.920	6.457050	0.033703	571.835722	-11.079154	6.712886	-0.463913	-1.173919	-1.937471
0.930	6.341043	0.109062	572.102949	-10.971307	6.829094	-0.450449	-1.193683	-1.917716
0.940	6.234969	0.176951	572.435042	-10.856819	6.966602	-0.435462	-1.217012	-1.896603
0.950	6.127293	0.254823	572.763085	-10.733562	7.119162	-0.420270	-1.242950	-1.873997
0.960	6.000803	0.361022	573.026302	-10.598685	7.283134	-0.406957	-1.270995	-1.849598
0.970	5.839591	0.509290	573.187832	-10.449913	7.456964	-0.397796	-1.300963	-1.823122
0.980	5.635809	0.704188	573.242620	-10.287687	7.639890	-0.394384	-1.332750	-1.794648
0.990	5.393725	0.938634	573.214267	-10.117271	7.830482	-0.396911	-1.366065	-1.765007
1.000	5.129487	1.194422	573.142311	-9.949501	8.025724	-0.403962	-1.400302	-1.735956
1.010	4.866400	1.445771	573.065706	-9.799194	8.221185	-0.412933	-1.434597	-1.709960
1.020	4.627189	1.665042	573.009290	-9.681325	8.412234	-0.420895	-1.468080	-1.689558
1.030	4.426093	1.829067	572.977926	-9.606457	8.595686	-0.425583	-1.500177	-1.676584
1.040	4.263978	1.924494	572.959779	-9.577439	8.771012	-0.426220	-1.530825	-1.671573
1.050	4.128540	1.950677	572.936575	-9.588870	8.940547	-0.423880	-1.560478	-1.673635
1.060	3.999459	1.919112	572.895185	-9.629523	9.108550	-0.421305	-1.589916	-1.680852
1.070	3.856245	1.849314	572.833915	-9.686681	9.279526	-0.422156	-1.619933	-1.691010
1.080	3.685594	1.762295	572.760396	-9.750683	9.456468	-0.429971	-1.651034	-1.702402
1.090	3.485717	1.673733	572.684125	-9.818072	9.639725	-0.447164	-1.683253	-1.714396
1.100	3.266740	1.589259	572.610131	-9.892424	9.826831	-0.474401	-1.716147	-1.727602
1.110	3.047654	1.503681	572.537862	-9.982826	10.013231	-0.510487	-1.748920	-1.743610
1.120	2.850797	1.404521	572.464003	-10.100817	10.193519	-0.552666	-1.780639	-1.764446
1.130	2.694937	1.278322	572.385191	-10.256986	10.362844	-0.597192	-1.810467	-1.791973
1.140	2.588412	1.116772	572.298463	-10.458256	10.518190	-0.640038	-1.837885	-1.827413
1.150	2.524526	0.919783	572.200815	-10.706346	10.659257	-0.677673	-1.862853	-1.871082
1.160	2.481490	0.694500	572.090480	-10.997453	10.788651	-0.707717	-1.885829	-1.922328
1.170	2.428004	0.451603	571.970656	-11.323001	10.911207	-0.729285	-1.907652	-1.979647
1.180	2.333261	0.201413	571.853569	-11.671193	11.032592	-0.742859	-1.929269	-2.040941
1.190	2.177762	-0.048408	571.761238	-12.028959	11.157584	-0.749789	-1.951441	-2.103843
1.200	1.960544	-0.293245	571.720407	-12.383671	11.288613	-0.751658	-1.974499	-2.166036
1.210	1.699963	-0.530602	571.752269	-12.724141	11.425027	-0.749789	-1.998248	-2.225464
1.220	1.428107	-0.758492	571.860796	-13.040909	11.563310	-0.745004	-2.022050	-2.280434
1.230	1.181465	-0.973886	572.025308	-13.326402	11.698068	-0.737603	-2.045026	-2.329688
1.240	0.991420	-1.172055	572.202274	-13.575454	11.823301	-0.727469	-2.066280	-2.372492
1.250	0.877342	-1.347442	572.337681	-13.786188	11.933462	-0.714276	-2.085039	-2.408751
1.260	0.843629	-1.495771	572.385955	-13.960683	12.024038	-0.697827	-2.100687	-2.439033
1.270	0.880732	-1.616214	572.327512	-14.104871	12.091711	-0.678430	-2.112726	-2.464475
1.280	0.969303	-1.712360	572.177343	-14.227515	12.134342	-0.657129	-2.120731	-2.486557
1.290	1.085890	-1.791536	571.981123	-14.338586	12.150912	-0.635556	-2.124355	-2.506829
1.300	1.208353	-1.862925	571.800857	-14.447584	12.141353	-0.615436	-2.123353	-2.526681
1.310	1.319746	-1.935352	571.696143	-14.562244	12.106137	-0.597975	-2.117582	-2.547200
1.320	1.410527	-2.015433	571.707684	-14.687765	12.045701	-0.583455	-2.106969	-2.569104
1.330	1.479641	-2.106432	571.847284	-14.826390	11.960024	-0.571215	-2.091472	-2.592718
1.340	1.534543	-2.207911	572.095721	-14.977152	11.848653	-0.559995	-2.071096	-2.617945
1.350	1.589500	-2.316061	572.408582	-15.135850	11.711105	-0.548452	-2.045935	-2.644239
1.360	1.661793	-2.424466	572.728908	-15.295505	11.547186	-0.535631	-2.016170	-2.670636
1.370	1.766662	-2.525211	573.002880	-15.447651	11.356839	-0.521198	-1.981986	-2.695912
1.380	1.912923	-2.610568	573.192841	-15.584474	11.139606	-0.505402	-1.943431	-2.718888
1.390	2.100989	-2.675389	573.283278	-15.701155	10.894207	-0.488827	-1.900318	-2.738813
1.400	2.323901	-2.719547	573.279323	-15.797355	10.618764	-0.472049	-1.852285	-2.755612
1.410	2.570645	-2.749029	573.200344	-15.877044	10.311764	-0.455263	-1.798981	-2.769894
1.420	2.830295	-2.774566	573.072066	-15.946717	9.973330	-0.438006	-1.740327	-2.782672
1.430	3.095731	-2.808001	572.919861	-16.012784	9.606143	-0.419095	-1.676699	-2.794943
1.440	3.366125	-2.857738	572.764363	-16.079156	9.215603	-0.396925	-1.608969	-2.807290
1.450	3.647724	-2.924899	572.619438	-16.145767	8.809376	-0.370091	-1.538435	-2.819633
1.460	3.952277	-3.001476	572.492727	-16.208350	8.396747	-0.338187	-1.466699	-2.831189
1.470	4.292716	-3.071176	572.389556	-16.259431	7.988147	-0.302444	-1.395579	-2.840623
1.480	4.676904	-3.112994	572.319820	-16.290304	7.594861	-0.265886	-1.327031	-2.846364
1.490	5.101807	-3.106806	572.303983	-16.293341	7.228719	-0.232782	-1.263091	-2.846973
1.500	5.550804	-3.039645	572.372329	-16.263825	6.901463	-0.207447	-1.205765	-2.841476
1.510	5.995510	-2.910769	572.554657	-16.200695	6.623594	-0.192790	-1.156849	-2.829546
1.520	6.401593	-2.733445	572.864526	-16.106165	6.402762	-0.189224	-1.117675	-2.811514
1.530	6.736820	-2.531986	573.286914	-15.984649	6.242088	-0.194428	-1.088824	-2.788246
1.540	6.979145	-2.334433	573.776581	-15.841560	6.138919	-0.204087	-1.069915	-2.760928
1.550	7.122649	-2.163727	574.268022	-15.682302	6.084493	-0.213299	-1.059521	-2.730833
1.560	7.179303	-2.031204	574.691568	-15.511617	6.064759	-0.218034	-1.055307	-2.699120
1.570	7.175427	-1.934786	574.988332	-15.333266	6.062478	-0.216127	-1.054365	-2.666709
1.580	7.143675	-1.861655	575.119683	-15.150020	6.060384	-0.207558	-1.053761	-2.634238
1.590	7.113509	-1.793451	575.071070	-14.963930	6.044799	-0.194165	-1.051139	-2.602101
1.600	7.104003	-1.711935	574.851836	-14.776862	6.008678	-0.179054	-1.045257	-2.570551
1.610	7.121531	-1.603822	574.492333	-14.591178	5.953147	-0.165853	-1.036245	-2.539839
1.620	7.162105	-1.464074	574.039329	-14.410235	5.886943	-0.157877	-1.025530	-2.510322
1.630	7.215845	-1.297105	573.550625	-14.238369	5.823906	-0.157313	-1.015413	-2.482496
1.640	7.270806	-1.115447	573.088802	-14.080260	5.779335	-0.164641	-1.008454	-2.456907
1.650	7.314873	-0.936057	572.712869	-13.939944	5.766423	-0.178552	-1.006861	-2.434020
1.660	7.336204	-0.775385	572.467358	-13.819866	5.793758	-0.196374	-1.012068	-2.414088
1.670	7.323515	-0.645014	572.371225	-13.720355	5.864401	-0.214864	-1.024580	-2.397108
1.680	7.267127	-0.549501	572.411418	-13.639649	5.976570	-0.231089	-1.044104	-2.382840
1.690	7.160647	-0.487023	572.545520	-13.574433	6.125541	-0.243165	-1.069878	-2.370892
1.700	7.002247	-0.452055	572.714095	-13.520665	6.306024	-0.250671	-1.101077	-2.360805
1.710	6.794689	-0.438414	572.858133	-13.474411	6.514031	-0.254648	-1.137111	-2.352138
1.720	6.544142	-0.441055	572.934166	-13.432415	6.747540	-0.257181	-1.177716	-2.344495
1.730	6.258673	-0.455892	572.921989	-13.392185	7.005995	-0.260650	-1.222853	-2.337523
1.740	5.947308	-0.478090	572.825314	-13.351601	7.289284	-0.266889	-1.272514	-2.330833
1.750	5.619732	-0.500250	572.668699	-13.308377	7.596935	-0.276628	-1.326585	-2.323923
1.760	5.285932	-0.512144	572.492429	-13.259875	7.927844	-0.289539	-1.384795	-2.316166
1.770	4.955059	-0.502739	572.344209	-13.203634	8.280385	-0.304896	-1.446749	-2.306939
1.780	4.633773	-0.463725	572.267108	-13.138530	8.652522	-0.322376	-1.511973	-2.295874
1.790	4.325236	-0.392915	572.286964	-13.066031	9.041589	-0.342399	-1.579905	-2.283126
1.800	4.029894	-0.296062	572.405045	-12.990881	9.443720	-0.365715	-1.649832	-2.269526
1.810	3.748010	-0.186311	572.599874	-12.920763	9.853208	-0.392492	-1.720784	-2.256508
1.820	3.482733	-0.081305	572.837005	-12.864925	10.262243	-0.421573	-1.791477	-2.245826
1.830	3.241929	0.001246	573.080969	-12.832189	10.661294	-0.450439	-1.860347	-2.239158
1.840	3.037317	0.048171	573.302943	-12.828949	11.040138	-0.475994	-1.925707	-2.237726
1.850	2.880543	0.054119	573.481431	-12.857689	11.389300	-0.495735	-1.985993	-2.242041
1.860	2.777444	0.022344	573.598616	-12.916427	11.701609	-0.508658	-2.040034	-2.251823
1.870	2.723108	-0.037443	573.637770	-12.999283	11.973477	-0.515453	-2.087289	-2.266114
1.880	2.700395	-0.113385	573.585429	-13.098110	12.205513	-0.517939	-2.127933	-2.283550
1.890	2.683267	-0.196163	573.437961	-13.204738	12.402205	-0.518096	-2.162781	-2.302732
1.900	2.644268	-0.282072	573.208543	-13.313056	12.570659	-0.517240	-2.193034	-2.322550
1.910	2.563465	-0.373359	572.929254	-13.420160	12.718846	-0.515719	-2.219968	-2.342376
1.920	2.435169	-0.476088	572.644508	-13.526180	12.853970	-0.513187	-2.244668	-2.362055
1.930	2.269396	-0.596848	572.396635	-13.632952	12.981421	-0.509146	-2.267907	-2.381732
1.940	2.087364	-0.739620	572.210372	-13.742117	13.104424	-0.503416	-2.290141	-2.401585
1.950	1.913079	-0.903475	572.085698	-13.853470	13.224287	-0.496340	-2.311592	-2.421573
1.960	1.764732	-1.081408	572.004175	-13.964270	13.341117	-0.488718	-2.332346	-2.441288
1.970	1.649401	-1.260714	571.945106	-14.069817	13.454693	-0.481572	-2.352445	-2.459994
1.980	1.562781	-1.425161	571.901347	-14.164972	13.565102	-0.475866	-2.371930	-2.476821
1.990	1.493296	-1.558763	571.885477	-14.245832	13.672852	-0.472250	-2.390837	-2.491029
2.000	1.428269	-1.650236	571.923531	-14.310835	13.778527	-0.470933	-2.409155	-2.502229
2.010	1.359316	-1.696702	572.040407	-14.360917	13.882378	-0.471688	-2.426818	-2.510473
2.020	1.284829	-1.704983	572.244430	-14.398843	13.984256	-0.473992	-2.443756	-2.516205
2.030	1.208848	-1.689545	572.518330	-14.428060	14.083947	-0.477291	-2.459999	-2.520104
2.040	1.137415	-1.667731	572.821149	-14.451472	14.181622	-0.481286	-2.475750	-2.522859
2.050	1.074726	-1.654340	573.100986	-14.470429	14.277959	-0.486106	-2.491351	-2.524935
2.060	1.021369	-1.657702	573.313016	-14.484165	14.373740	-0.492241	-2.507137	-2.526397
2.070	0.975313	-1.678287	573.433825	-14.489876	14.469151	-0.500242	-2.523247	-2.526861
2.080	0.934458	-1.709643	573.465024	-14.483487	14.563249	-0.510394	-2.539518	-2.525610
2.090	0.898594	-1.740885	573.425795	-14.461019	14.653956	-0.522570	-2.555510	-2.521864
2.100	0.869356	-1.760009	573.340436	-14.420204	14.738546	-0.536326	-2.570645	-2.515121
2.110	0.848409	-1.757422	573.228255	-14.361826	14.814323	-0.551087	-2.584367	-2.505429
2.120	0.835372	-1.729105	573.099554	-14.290121	14.879201	-0.566312	-2.596268	-2.493480
2.130	0.826994	-1.678534	572.957028	-14.211906	14.932084	-0.581555	-2.606144	-2.480449
2.140	0.817980	-1.616252	572.800127	-14.134579	14.973065	-0.596450	-2.614012	-2.467628
2.150	0.802849	-1.556567	572.630449	-14.063771	15.003382	-0.610657	-2.620081	-2.455994
2.160	0.778120	-1.512338	572.456910	-14.001602	15.025039	-0.623766	-2.624659	-2.445879
2.170	0.744360	-1.490236	572.298881	-13.946261	15.040017	-0.635212	-2.628000	-2.436884
2.180	0.707613	-1.488719	572.184574	-13.893097	15.049188	-0.644285	-2.630128	-2.428080
2.190	0.679415	-1.499337	572.142545	-13.836725	15.051356	-0.650350	-2.630700	-2.418405
2.200	0.674716	-1.510198	572.187981	-13.773187	15.043037	-0.653236	-2.629038	-2.407109
2.210	0.707708	-1.509856	572.310783	-13.701193	15.019443	-0.653560	-2.624351	-2.394013
2.220	0.786528	-1.490351	572.474286	-13.621974	14.976525	-0.652731	-2.616104	-2.379491
2.230	0.908753	-1.448847	572.627813	-13.537954	14.913280	-0.652579	-2.604358	-2.364180
2.240	1.060049	-1.387724	572.726945	-13.451025	14.833171	-0.654817	-2.589920	-2.348593
2.250	1.217407	-1.313247	572.750492	-13.361312	14.743854	-0.660576	-2.574219	-2.332833
2.260	1.356163	-1.233261	572.706412	-13.266956	14.655105	-0.670190	-2.558921	-2.316537
2.270	1.457868	-1.154690	572.626549	-13.164771	14.575724	-0.683211	-2.545415	-2.299015
2.280	1.515475	-1.081726	572.555082	-13.051235	14.510599	-0.698591	-2.534359	-2.279472
2.290	1.533930	-1.015202	572.535612	-12.923291	14.458954	-0.714941	-2.525424	-2.257203
2.300	1.526673	-0.952935	572.599532	-12.778701	14.414149	-0.730798	-2.517318	-2.231699
2.310	1.510490	-0.890267	572.757094	-12.616036	14.364706	-0.744848	-2.507993	-2.202685
