Time[s]	Fx[N]	Fy[N]	Fz[N]	Mx[Nm]	My[Nm]	Mz[Nm]	COPx[cm]	COPy[cm]
0.010	13.023858	-3.248555	680.307972	2.753639	-6.118487	1.645237	0.899370	0.404764
0.020	13.024671	-3.164375	680.234772	2.654645	-5.984055	1.621255	0.879704	0.390254
0.030	12.991136	-3.088299	680.153470	2.562279	-5.848753	1.598617	0.859917	0.376721
0.040	12.902673	-3.026663	680.055015	2.481608	-5.712753	1.578242	0.840043	0.364913
0.050	12.760161	-2.981842	679.931760	2.415731	-5.577316	1.560643	0.820276	0.355290
0.060	12.585342	-2.951471	679.777714	2.365754	-5.444636	1.546176	0.800944	0.348019
0.070	12.411274	-2.929132	679.589797	2.331261	-5.317012	1.535298	0.782386	0.343039
0.080	12.267782	-2.906397	679.370509	2.310900	-5.195642	1.528605	0.764773	0.340153
0.090	12.168560	-2.875511	679.130462	2.302712	-5.079544	1.526620	0.747948	0.339068
0.100	12.106044	-2.831723	678.888409	2.304162	-4.965127	1.529496	0.731361	0.339402
0.110	12.056149	-2.774484	678.667844	2.312038	-4.846752	1.536769	0.714157	0.340673
0.120	11.989554	-2.707320	678.491292	2.322581	-4.718225	1.547273	0.695399	0.342315
0.130	11.883171	-2.636597	678.374242	2.332042	-4.574748	1.559200	0.674369	0.343769
0.140	11.726767	-2.569685	678.320180	2.337550	-4.414645	1.570308	0.650820	0.344609
0.150	11.523669	-2.513216	678.317549	2.337807	-4.240232	1.578302	0.625110	0.344648
0.160	11.287574	-2.472032	678.339608	2.333145	-4.057559	1.581358	0.598160	0.343949
0.170	11.037930	-2.448909	678.348654	2.324959	-3.875082	1.578735	0.571252	0.342738
0.180	10.795292	-2.444562	678.305544	2.314912	-3.701647	1.571208	0.545720	0.341279
0.190	10.577409	-2.457419	678.183010	2.304299	-3.544409	1.561049	0.522633	0.339775
0.200	10.396828	-2.483303	677.978109	2.293569	-3.407365	1.551383	0.502577	0.338295
0.210	10.260610	-2.515791	677.717830	2.281877	-3.290927	1.545019	0.485590	0.336700
0.220	10.171522	-2.547880	677.453971	2.266790	-3.192513	1.543165	0.471252	0.334604
0.230	10.128997	-2.574765	677.248018	2.244492	-3.107750	1.544581	0.458879	0.331414
0.240	10.128448	-2.596576	677.151697	2.210748	-3.031795	1.545675	0.447728	0.326478
0.250	10.159452	-2.619574	677.191269	2.162502	-2.960441	1.541728	0.437165	0.319334
0.260	10.205145	-2.654690	677.361723	2.099559	-2.890875	1.528890	0.426785	0.309961
0.270	10.244980	-2.713548	677.631832	2.025583	-2.822065	1.506020	0.416460	0.298921
0.280	10.260863	-2.803368	677.956079	1.947837	-2.754777	1.475434	0.406336	0.287310
0.290	10.244025	-2.922956	678.287892	1.875612	-2.691245	1.442145	0.396770	0.276522
0.300	10.199077	-3.061570	678.590071	1.817882	-2.634557	1.412008	0.388240	0.267891
0.310	10.142917	-3.201342	678.840791	1.780988	-2.587873	1.389692	0.381219	0.262357
0.320	10.098765	-3.322382	679.035203	1.767131	-2.553618	1.377370	0.376066	0.260241
0.330	10.087825	-3.408548	679.183255	1.774198	-2.532795	1.374541	0.372918	0.261225
0.340	10.121778	-3.451505	679.304425	1.797023	-2.524613	1.378822	0.371647	0.264539
0.350	10.198598	-3.451608	679.420594	1.829569	-2.526629	1.387204	0.371880	0.269284
0.360	10.302744	-3.415909	679.548724	1.867064	-2.535431	1.397166	0.373105	0.274751
0.370	10.409525	-3.354892	679.694825	1.907220	-2.547561	1.407252	0.374809	0.280599
0.380	10.492430	-3.279698	679.850153	1.950289	-2.560313	1.416996	0.376600	0.286870
0.390	10.531248	-3.200571	679.990842	1.998432	-2.572214	1.426408	0.378272	0.293891
0.400	10.518335	-3.126116	680.082821	2.054977	-2.583234	1.435459	0.379841	0.302166
0.410	10.460891	-3.062642	680.093000	2.123797	-2.594915	1.443946	0.381553	0.312280
0.420	10.378728	-3.013332	680.003944	2.208617	-2.610408	1.451746	0.383881	0.324795
0.430	10.298739	-2.977721	679.824676	2.312117	-2.634207	1.459190	0.387483	0.340105
0.440	10.248051	-2.952036	679.590022	2.434929	-2.671338	1.467183	0.393081	0.358294
0.450	10.247513	-2.930404	679.347249	2.574921	-2.725974	1.476909	0.401264	0.379029
0.460	10.306443	-2.906361	679.137037	2.727192	-2.799917	1.489267	0.412276	0.401567
0.470	10.419523	-2.874094	678.979157	2.885047	-2.891732	1.504313	0.425894	0.424910
0.480	10.567187	-2.829152	678.869495	3.041737	-2.997123	1.520996	0.441487	0.448059
0.490	10.720830	-2.768683	678.787912	3.192258	-3.110466	1.537365	0.458238	0.470288
0.500	10.852491	-2.691469	678.711022	3.334434	-3.226798	1.551246	0.475430	0.491289
0.510	10.945739	-2.598104	678.622728	3.469005	-3.343325	1.561167	0.492663	0.511183
0.520	11.002467	-2.491442	678.518110	3.598996	-3.459815	1.567074	0.509908	0.530420
0.530	11.041356	-2.376856	678.400839	3.728852	-3.577667	1.570462	0.527368	0.549653
0.540	11.087937	-2.261570	678.277839	3.863551	-3.698108	1.573782	0.545220	0.569612
0.550	11.160991	-2.152894	678.155314	4.007635	-3.820451	1.579381	0.563359	0.590961
0.560	11.262377	-2.056010	678.037813	4.164095	-3.941489	1.588428	0.581308	0.614139
0.570	11.375770	-1.972407	677.928979	4.333353	-4.056547	1.600323	0.598373	0.639205
0.580	11.474978	-1.899575	677.831453	4.512892	-4.161699	1.612841	0.613973	0.665784
0.590	11.537440	-1.831915	677.744806	4.697925	-4.255874	1.622981	0.627946	0.693170
0.600	11.556020	-1.762490	677.663051	4.882979	-4.341611	1.628135	0.640674	0.720561
0.610	11.543396	-1.685257	677.574869	5.063730	-4.424063	1.627099	0.652926	0.747331
0.620	11.527032	-1.597458	677.468436	5.238289	-4.508884	1.620539	0.665549	0.773215
0.630	11.537179	-1.501417	677.339516	5.407390	-4.600089	1.610720	0.679141	0.798328
0.640	11.593863	-1.404591	677.199148	5.573497	-4.698757	1.600582	0.693852	0.823022
0.650	11.699323	-1.317132	677.077162	5.739344	-4.802828	1.592537	0.709347	0.847665
0.660	11.839143	-1.247694	677.019125	5.906599	-4.907770	1.587566	0.724909	0.872442
0.670	11.990382	-1.199731	677.076401	6.075242	-5.007710	1.585077	0.739608	0.897276
0.680	12.131754	-1.170395	677.291644	6.243772	-5.096705	1.583590	0.752513	0.921874
0.690	12.250908	-1.152461	677.684249	6.410010	-5.169926	1.581802	0.762881	0.945870
0.700	12.346212	-1.137922	678.240945	6.571936	-5.224647	1.579411	0.770323	0.968968
0.710	12.423535	-1.121233	678.915483	6.728136	-5.260866	1.577293	0.774893	0.991012
0.720	12.490830	-1.100756	679.638456	6.877727	-5.281410	1.577017	0.777091	1.011968
0.730	12.553822	-1.078097	680.333955	7.019987	-5.291397	1.579966	0.777765	1.031844
0.740	12.614773	-1.056146	680.936105	7.154100	-5.297078	1.586527	0.777911	1.050627
0.750	12.674075	-1.037209	681.398964	7.279297	-5.304304	1.595703	0.778443	1.068287
0.760	12.732480	-1.022250	681.698052	7.395333	-5.316996	1.605320	0.779964	1.084840
0.770	12.791439	-1.011281	681.826864	7.502937	-5.336053	1.612698	0.782611	1.100417
0.780	12.850509	-1.004112	681.792805	7.603792	-5.358990	1.615481	0.786014	1.115264
0.790	12.903461	-1.000569	681.614537	7.700065	-5.380416	1.612316	0.789363	1.129680
0.800	12.936379	-0.999884	681.320038	7.793827	-5.393247	1.603242	0.791588	1.143930
0.810	12.930410	-0.999727	680.943884	7.886800	-5.390443	1.589745	0.791613	1.158216
0.820	12.868985	-0.995892	680.523051	7.980436	-5.366966	1.574449	0.788653	1.172692
0.830	12.746268	-0.983256	680.092131	8.076047	-5.321435	1.560469	0.782458	1.187493
0.840	12.572238	-0.957775	679.679906	8.174706	-5.256846	1.550576	0.773430	1.202729
0.850	12.371113	-0.918413	679.308685	8.276965	-5.179843	1.546455	0.762517	1.218439
0.860	12.173181	-0.867670	678.995784	8.382689	-5.098593	1.548332	0.750902	1.234572
0.870	12.003609	-0.810109	678.754850	8.491205	-5.020003	1.555070	0.739590	1.250997
0.880	11.873334	-0.749673	678.594801	8.601679	-4.947418	1.564648	0.729068	1.267572
0.890	11.776046	-0.687454	678.516016	8.713499	-4.879817	1.574729	0.719190	1.284199
0.900	11.692508	-0.621358	678.506019	8.826516	-4.812854	1.583097	0.709331	1.300875
0.910	11.600167	-0.547774	678.538479	8.941134	-4.741266	1.587921	0.698747	1.317705
0.920	11.483577	-0.464163	678.578649	9.058287	-4.661519	1.587948	0.686953	1.334891
0.930	11.340770	-0.371102	678.594971	9.179403	-4.573470	1.582792	0.673962	1.352707
0.940	11.182869	-0.272771	678.571951	9.306409	-4.480377	1.573200	0.660266	1.371470
0.950	11.027936	-0.175707	678.517142	9.441666	-4.387441	1.561083	0.646622	1.391515
0.960	10.892966	-0.086381	678.457963	9.587620	-4.299791	1.549136	0.633759	1.413149
0.970	10.788306	-0.008439	678.430260	9.746183	-4.220956	1.540134	0.622165	1.436578
0.980	10.716476	0.059542	678.464730	9.918145	-4.152382	1.536170	0.612026	1.461851
0.990	10.674393	0.124936	678.576997	10.102765	-4.093886	1.538152	0.603305	1.488816
1.000	10.656461	0.199725	678.764284	10.297442	-4.044540	1.545715	0.595868	1.517087
1.010	10.656831	0.296827	679.008716	10.497391	-4.003535	1.557518	0.589615	1.545988
1.020	10.670831	0.425092	679.284930	10.695720	-3.970805	1.571725	0.584557	1.574556
1.030	10.696032	0.584770	679.567752	10.884378	-3.947315	1.586430	0.580857	1.601662
1.040	10.732577	0.765261	679.835767	11.056017	-3.934882	1.599932	0.578799	1.626278
1.050	10.781712	0.946445	680.069881	11.206098	-3.935446	1.610895	0.578683	1.647786
1.060	10.842415	1.103944	680.250336	11.334230	-3.949982	1.618548	0.580666	1.666185
1.070	10.907936	1.217020	680.356721	11.444065	-3.977587	1.622888	0.584633	1.682068
1.080	10.965065	1.276164	680.372386	11.541875	-4.015330	1.624723	0.590167	1.696406
1.090	10.997508	1.287072	680.290587	11.634566	-4.059046	1.625400	0.596664	1.710235
1.100	10.991931	1.269239	680.118139	11.727886	-4.104747	1.626302	0.603534	1.724389
1.110	10.943450	1.249731	679.873869	11.825245	-4.150086	1.628346	0.610420	1.739329
1.120	10.858029	1.254446	679.582649	11.927220	-4.195312	1.631683	0.617337	1.755080
1.130	10.751253	1.299795	679.268851	12.031726	-4.243368	1.635675	0.624696	1.771276
1.140	10.644299	1.387475	678.952980	12.134770	-4.298980	1.639134	0.633178	1.787277
1.150	10.558261	1.504099	678.652346	12.231482	-4.366944	1.640762	0.643473	1.802319
1.160	10.508259	1.625872	678.383629	12.317156	-4.450254	1.639647	0.656008	1.815662
1.170	10.499213	1.726622	678.164161	12.388124	-4.548994	1.635624	0.670781	1.826715
1.180	10.525124	1.786291	678.009803	12.442357	-4.660541	1.629323	0.687386	1.835129
1.190	10.572310	1.796838	677.929793	12.479618	-4.780910	1.621878	0.705222	1.840842
1.200	10.625156	1.763560	677.921605	12.501035	-4.906425	1.614464	0.723745	1.844024
1.210	10.671805	1.701702	677.969724	12.508142	-5.034855	1.607854	0.742637	1.844941
1.220	10.707631	1.629990	678.050255	12.501643	-5.165514	1.602221	0.761819	1.843763
1.230	10.735815	1.563668	678.139336	12.480391	-5.298443	1.597221	0.781321	1.840387
1.240	10.765481	1.509380	678.220828	12.441105	-5.433272	1.592278	0.801107	1.834374
1.250	10.808106	1.463442	678.289821	12.379111	-5.568447	1.586914	0.820954	1.825047
1.260	10.872924	1.413778	678.351928	12.289879	-5.701253	1.580944	0.840457	1.811726
1.270	10.962488	1.344342	678.420435	12.170748	-5.828613	1.574474	0.859145	1.793983
1.280	11.070193	1.240040	678.512746	12.022164	-5.948185	1.567698	0.876650	1.771840
1.290	11.181370	1.090467	678.645708	11.848002	-6.059210	1.560618	0.892838	1.745830
1.300	11.278088	0.891831	678.829127	11.654955	-6.162792	1.552855	0.907856	1.716920
1.310	11.345996	0.647295	679.058852	11.451154	-6.261742	1.543747	0.922121	1.686327
1.320	11.380480	0.366268	679.313117	11.244377	-6.360164	1.532756	0.936264	1.655257
1.330	11.389547	0.063040	679.555676	11.040269	-6.462817	1.520033	0.951036	1.624631
1.340	11.391986	-0.245142	679.746138	10.841157	-6.574117	1.506814	0.967143	1.594883
1.350	11.411050	-0.540718	679.853925	10.646032	-6.696912	1.495378	0.985052	1.565929
1.360	11.465800	-0.809049	679.869812	10.451799	-6.831486	1.488441	1.004823	1.537324
1.370	11.563618	-1.041346	679.809449	10.255296	-6.975430	1.488196	1.026086	1.508554
1.380	11.697260	-1.235846	679.706734	10.055124	-7.124601	1.495405	1.048188	1.479333
1.390	11.847819	-1.396515	679.599853	9.852476	-7.274825	1.508975	1.070457	1.449747
1.400	11.992099	-1.530014	679.516573	9.650777	-7.423430	1.526226	1.092457	1.420242
1.410	12.110866	-1.642593	679.465639	9.454578	-7.569789	1.543709	1.114080	1.391473
1.420	12.194485	-1.738259	679.437488	9.268319	-7.714606	1.558209	1.135440	1.364117
1.430	12.244090	-1.818671	679.412463	9.095371	-7.858416	1.567539	1.156649	1.338711
1.440	12.268644	-1.884327	679.371347	8.937447	-8.000211	1.570879	1.177590	1.315547
1.450	12.279926	-1.936142	679.302798	8.794459	-8.136958	1.568676	1.197840	1.294630
1.460	12.287888	-1.976495	679.204911	8.664865	-8.264221	1.562286	1.216749	1.275737
1.470	12.297965	-2.009358	679.082074	8.546487	-8.377528	1.553559	1.233655	1.258535
1.480	12.310438	-2.039649	678.940806	8.437537	-8.473825	1.544451	1.248095	1.242750
1.490	12.321023	-2.072193	678.787428	8.337373	-8.552414	1.536697	1.259955	1.228275
1.500	12.322022	-2.110531	678.627783	8.246510	-8.615045	1.531505	1.269480	1.215174
1.510	12.304220	-2.155816	678.467580	8.165761	-8.665299	1.529378	1.277187	1.203560
1.520	12.259898	-2.206224	678.312116	8.095119	-8.707603	1.530101	1.283716	1.193421
1.530	12.186323	-2.257247	678.165020	8.033302	-8.746283	1.532947	1.289698	1.184565
1.540	12.087840	-2.302917	678.026766	7.978472	-8.784858	1.536974	1.295651	1.176719
1.550	11.975030	-2.337636	677.894689	7.929721	-8.825666	1.541251	1.301923	1.169757
1.560	11.861211	-2.358068	677.765865	7.888370	-8.869878	1.544954	1.308694	1.163878
1.570	11.758317	-2.364325	677.641917	7.858172	-8.917851	1.547418	1.316012	1.159635
1.580	11.674421	-2.359829	677.532410	7.844131	-8.969652	1.548253	1.323870	1.157750
1.590	11.613807	-2.349709	677.453657	7.850399	-9.025467	1.547546	1.332263	1.158810
1.600	11.578642	-2.338451	677.422471	7.878251	-9.085675	1.545970	1.341213	1.162975
1.610	11.570128	-2.327985	677.447762	7.925076	-9.150566	1.544706	1.350741	1.169843
1.620	11.587614	-2.317175	677.524572	7.984765	-9.219962	1.545114	1.360831	1.178520
1.630	11.626086	-2.302876	677.634231	8.049265	-9.293079	1.548259	1.371400	1.187848
1.640	11.674333	-2.282055	677.750801	8.110709	-9.368830	1.554429	1.382341	1.196710
1.650	11.716352	-2.254045	677.850114	8.163456	-9.446478	1.562813	1.393594	1.204316
1.660	11.736790	-2.221944	677.916811	8.205366	-9.526243	1.571504	1.405223	1.210380
1.670	11.728388	-2.192310	677.947442	8.237872	-9.609446	1.577945	1.417432	1.215120
1.680	11.697452	-2.173056	677.950427	8.264980	-9.698006	1.579818	1.430489	1.219113
1.690	11.663733	-2.170361	677.943716	8.291751	-9.793535	1.576109	1.444594	1.223074
1.700	11.653803	-2.185901	677.949927	8.322847	-9.896474	1.567782	1.459765	1.227649
1.710	11.690585	-2.215550	677.989683	8.361418	-10.005701	1.557518	1.475790	1.233266
1.720	11.783984	-2.250235	678.076059	8.408462	-10.118779	1.548470	1.492278	1.240047
1.730	11.927122	-2.278829	678.213320	8.462765	-10.232803	1.542675	1.508788	1.247803
1.740	12.099651	-2.292197	678.400260	8.521469	-10.345498	1.540067	1.524984	1.256112
1.750	12.276006	-2.286711	678.634964	8.581213	-10.456041	1.538725	1.540746	1.264481
1.760	12.434304	-2.265534	678.917040	8.639573	-10.565069	1.536224	1.556165	1.272552
1.770	12.562149	-2.236736	679.245670	8.696398	-10.673865	1.531263	1.571429	1.280302
1.780	12.658042	-2.208727	679.615309	8.754544	-10.783244	1.524583	1.586669	1.288162
1.790	12.729420	-2.184953	680.012672	8.819515	-10.892844	1.518682	1.601859	1.296963
1.800	12.789103	-2.160335	680.417498	8.897934	-11.001137	1.516612	1.616822	1.307717
1.810	12.851329	-2.121334	680.806387	8.995336	-11.105980	1.520626	1.631298	1.321277
1.820	12.927897	-2.050020	681.156905	9.114218	-11.205243	1.531299	1.645031	1.338050
1.830	13.024834	-1.930904	681.449851	9.253103	-11.297164	1.547368	1.657813	1.357855
1.840	13.140230	-1.758022	681.669700	9.406799	-11.380284	1.566160	1.669472	1.379964
1.850	13.263901	-1.539302	681.804690	9.567529	-11.453101	1.584382	1.679821	1.403265
1.860	13.379274	-1.296105	681.847938	9.726575	-11.513694	1.599039	1.688601	1.426502
1.870	13.467322	-1.057878	681.799655	9.876172	-11.559625	1.608187	1.695458	1.448545
1.880	13.511570	-0.854021	681.669160	10.011293	-11.588207	1.611321	1.699975	1.468644
1.890	13.502541	-0.705970	681.475269	10.130820	-11.597076	1.609293	1.701760	1.486601
1.900	13.440057	-0.621929	681.244626	10.237647	-11.584919	1.603857	1.700552	1.502786
1.910	13.332540	-0.595483	681.007880	10.337668	-11.552166	1.597030	1.696334	1.517995
1.920	13.193652	-0.608220	680.793139	10.437936	-11.501358	1.590497	1.689406	1.533202
1.930	13.037618	-0.635439	680.617041	10.544571	-11.436819	1.585259	1.680360	1.549266
1.940	12.875186	-0.653085	680.476646	10.660962	-11.363610	1.581609	1.669949	1.566690
1.950	12.711867	-0.643718	680.347599	10.786783	-11.286126	1.579324	1.658876	1.585481
1.960	12.549048	-0.599954	680.192477	10.918187	-11.206967	1.577907	1.647617	1.605161
1.970	12.386732	-0.524892	679.977881	11.049211	-11.126439	1.576756	1.636294	1.624937
1.980	12.225480	-0.429903	679.692824	11.174030	-11.042661	1.575267	1.624655	1.643982
1.990	12.065782	-0.330657	679.358251	11.289228	-10.952217	1.572961	1.612142	1.661749
2.000	11.905603	-0.242418	679.021239	11.395203	-10.851412	1.569685	1.598096	1.678181
2.010	11.738988	-0.175560	678.735918	11.496088	-10.738125	1.565792	1.582077	1.693750
2.020	11.558411	-0.132280	678.541053	11.598165	-10.613707	1.562133	1.564195	1.709280
2.030	11.360763	-0.105613	678.445799	11.707342	-10.483894	1.559791	1.545281	1.725612
2.040	11.153523	-0.081625	678.429693	11.826700	-10.357851	1.559673	1.526739	1.743246
2.050	10.956505	-0.044494	678.454681	11.955117	-10.245481	1.562134	1.510120	1.762110
2.060	10.796802	0.017395	678.481744	12.087508	-10.154121	1.566792	1.496595	1.781552
2.070	10.698756	0.107023	678.484828	12.216560	-10.086186	1.572526	1.486575	1.800565
2.080	10.673970	0.217935	678.458025	12.335256	-10.038742	1.577618	1.479641	1.818131
2.090	10.716316	0.337255	678.415317	12.439080	-10.004873	1.580041	1.474742	1.833549
2.100	10.804033	0.450807	678.384592	12.527013	-9.975944	1.577949	1.470544	1.846595
2.110	10.907280	0.547735	678.398983	12.601055	-9.943743	1.570343	1.465766	1.857470
2.120	10.997251	0.622694	678.488410	12.664709	-9.902067	1.557609	1.459431	1.866607
2.130	11.053070	0.675305	678.672789	12.721258	-9.847782	1.541588	1.451035	1.874432
2.140	11.064722	0.708048	678.957412	12.772669	-9.781433	1.525050	1.440655	1.881218
2.150	11.032508	0.724158	679.331082	12.819558	-9.707277	1.510799	1.428946	1.887085
2.160	10.964697	0.726558	679.767731	12.861918	-9.632493	1.500856	1.417027	1.892105
2.170	10.874865	0.718034	680.231183	12.899831	-9.565631	1.496035	1.406232	1.896389
2.180	10.779646	0.702052	680.681331	12.933582	-9.514712	1.496003	1.397822	1.900094
2.190	10.696783	0.683271	681.079575	12.963133	-9.485505	1.499592	1.392716	1.903321
2.200	10.642852	0.666899	681.392469	12.987443	-9.480359	1.505167	1.391321	1.906015
2.210	10.630203	0.656756	681.594354	13.004226	-9.497815	1.510914	1.393470	1.907913
2.220	10.663655	0.652939	681.670307	13.010526	-9.533120	1.515108	1.398494	1.908624
2.230	10.738529	0.650675	681.619430	13.003973	-9.579599	1.516409	1.405418	1.907806
2.240	10.841548	0.641484	681.456633	12.984090	-9.630533	1.514149	1.413228	1.905344
2.250	10.954826	0.616348	681.211072	12.952873	-9.680832	1.508537	1.421121	1.901448
2.260	11.061403	0.569347	680.921406	12.914327	-9.727867	1.500635	1.428633	1.896596
2.270	11.149946	0.500179	680.629903	12.873121	-9.771220	1.492050	1.435614	1.891354
2.280	11.216581	0.414748	680.377340	12.832872	-9.811685	1.484411	1.442095	1.886140
2.290	11.263360	0.323689	680.198830	12.794628	-9.850113	1.478858	1.448123	1.881013
2.300	11.294486	0.239265	680.119071	12.756186	-9.886673	1.475780	1.453668	1.875581
2.310	11.312464	0.171644	680.145973	12.712660	-9.920843	1.474914	1.458634	1.869108
2.320	11.316260	0.125821	680.264006	12.658261	-9.952140	1.475681	1.462982	1.860787
2.330	11.302668	0.100106	680.431283	12.588555	-9.981203	1.477508	1.466894	1.850085
2.340	11.270490	0.086476	680.585078	12.502188	-10.010561	1.479946	1.470876	1.836977
2.350	11.225176	0.072633	680.657617	12.401305	-10.044467	1.482560	1.475700	1.821959
2.360	11.180545	0.045315	680.598082	12.290601	-10.087662	1.484805	1.482176	1.805853
2.370	11.155380	-0.005965	680.391386	12.175645	-10.143551	1.486053	1.490841	1.789506
2.380	11.165729	-0.085800	680.064550	12.061335	-10.212693	1.485793	1.501724	1.773557
2.390	11.216681	-0.191436	679.677938	11.951066	-10.292338	1.483831	1.514296	1.758342
