Time[s]	Fx[N]	Fy[N]	Fz[N]	Mx[Nm]	My[Nm]	Mz[Nm]	COPx[cm]	COPy[cm]
0.010	1.700424	0.515260	673.237698	12.250704	5.179690	-0.168175	-0.769370	1.819670
0.020	1.788435	0.351479	669.313110	12.105352	5.208761	-0.138431	-0.778225	1.808623
0.030	1.895527	0.217346	665.595363	11.977314	5.228465	-0.112307	-0.785532	1.799489
0.040	2.035900	0.135648	662.269670	11.878964	5.232548	-0.091875	-0.790093	1.793675
0.050	2.216544	0.116367	659.489883	11.814200	5.218966	-0.076764	-0.791364	1.791415
0.060	2.434615	0.153948	657.367268	11.777957	5.190136	-0.064438	-0.789534	1.791686
0.070	2.676532	0.228527	655.962545	11.758715	5.152075	-0.051275	-0.785422	1.792589
0.080	2.919683	0.311158	655.282068	11.742943	5.112880	-0.033919	-0.780256	1.792044
0.090	3.136833	0.371749	655.279175	11.719585	5.081005	-0.010342	-0.775395	1.788487
0.100	3.302139	0.387227	655.861217	11.682795	5.063781	0.019626	-0.772081	1.781291
0.110	3.397009	0.347306	656.901802	11.632058	5.066505	0.054328	-0.771273	1.770745
0.120	3.414270	0.256273	658.256190	11.570244	5.092245	0.090806	-0.773596	1.757711
0.130	3.359543	0.130773	659.776281	11.501027	5.142284	0.125646	-0.779398	1.743171
0.140	3.249075	-0.005212	661.321949	11.427125	5.216902	0.155967	-0.788860	1.727922
0.150	3.104041	-0.126609	662.768452	11.349937	5.316076	0.180220	-0.802102	1.712504
0.160	2.943053	-0.213369	664.012864	11.270249	5.439722	0.198461	-0.819219	1.697294
0.170	2.776315	-0.255343	664.982493	11.189262	5.587280	0.211896	-0.840215	1.682640
0.180	2.604699	-0.254820	665.643720	11.109300	5.756783	0.221894	-0.864844	1.668956
0.190	2.424558	-0.225706	666.005010	11.033959	5.943828	0.228983	-0.892460	1.656738
0.200	2.235590	-0.188948	666.108808	10.967717	6.141131	0.232393	-0.921941	1.646535
0.210	2.046822	-0.165063	666.014072	10.915128	6.339092	0.230402	-0.951796	1.638874
0.220	1.876414	-0.166076	665.778064	10.879739	6.527290	0.221329	-0.980400	1.634139
0.230	1.744442	-0.189932	665.447025	10.862960	6.696263	0.204748	-1.006280	1.632431
0.240	1.662406	-0.220012	665.059881	10.863409	6.838792	0.182340	-1.028297	1.633448
0.250	1.626237	-0.230770	664.660978	10.877249	6.950121	0.157962	-1.045664	1.636511
0.260	1.618493	-0.198067	664.311630	10.899531	7.027160	0.136757	-1.057811	1.640726
0.270	1.619762	-0.110392	664.089862	10.925880	7.067326	0.123599	-1.064212	1.645241
0.280	1.622530	0.023935	664.074114	10.953688	7.067878	0.121485	-1.064321	1.649468
0.290	1.638266	0.177216	664.316841	10.982490	7.026273	0.130584	-1.057669	1.653201
0.300	1.692785	0.310930	664.820881	11.013765	6.941423	0.148311	-1.044104	1.656651
0.310	1.812802	0.389452	665.530034	11.050580	6.815139	0.170278	-1.024017	1.660418
0.320	2.011819	0.393742	666.337106	11.097206	6.652965	0.191593	-0.998438	1.665404
0.330	2.282769	0.329738	667.104555	11.158473	6.463981	0.207980	-0.968961	1.672672
0.340	2.599848	0.228149	667.689656	11.238670	6.259745	0.216494	-0.937523	1.683218
0.350	2.926988	0.135615	667.967380	11.340173	6.052862	0.215838	-0.906161	1.697714
0.360	3.228479	0.100354	667.847489	11.462368	5.855556	0.206379	-0.876780	1.716315
0.370	3.478151	0.157192	667.285811	11.601338	5.678398	0.189866	-0.850969	1.738586
0.380	3.665199	0.316807	666.290949	11.750339	5.529298	0.168805	-0.829862	1.763545
0.390	3.795674	0.562262	664.925719	11.900862	5.413081	0.145628	-0.814088	1.789803
0.400	3.888789	0.853451	663.300178	12.043939	5.331897	0.121982	-0.803844	1.815760
0.410	3.968054	1.137834	661.554653	12.171402	5.286475	0.098497	-0.799099	1.839818
0.420	4.049448	1.364279	659.837029	12.276887	5.277665	0.075121	-0.799844	1.860594
0.430	4.131320	1.496024	658.283265	12.356476	5.307415	0.051760	-0.806251	1.877076
0.440	4.191271	1.518926	657.008385	12.408968	5.378413	0.028790	-0.818622	1.888708
0.450	4.192771	1.442666	656.108274	12.435719	5.492332	0.007160	-0.837108	1.895376
0.460	4.099871	1.295130	655.665952	12.440003	5.647388	-0.011918	-0.861321	1.897308
0.470	3.894364	1.112697	655.753972	12.426112	5.836425	-0.027489	-0.890033	1.894935
0.480	3.588176	0.930422	656.427254	12.398632	6.046518	-0.039331	-0.921125	1.888805
0.490	3.225265	0.775288	657.706221	12.362189	6.260542	-0.048205	-0.951875	1.879591
0.500	2.871134	0.663432	659.555968	12.321508	6.460360	-0.055756	-0.979501	1.868152
0.510	2.592951	0.600168	661.870832	12.281260	6.630672	-0.064052	-1.001808	1.855537
0.520	2.437612	0.581150	664.473307	12.245298	6.762241	-0.074878	-1.017684	1.842858
0.530	2.416747	0.593974	667.131363	12.215292	6.853367	-0.089010	-1.027289	1.831018
0.540	2.505081	0.620441	669.590669	12.189320	6.909172	-0.105780	-1.031850	1.820414
0.550	2.652512	0.639740	671.611774	12.161181	6.939074	-0.123166	-1.033197	1.810746
0.560	2.803980	0.632493	673.001034	12.121109	6.953584	-0.138421	-1.033220	1.801053
0.570	2.918162	0.585235	673.629248	12.058055	6.961723	-0.149004	-1.033465	1.790014
0.580	2.977491	0.494457	673.439380	11.963095	6.969875	-0.153417	-1.034967	1.776417
0.590	2.986888	0.368778	672.448566	11.832852	6.982083	-0.151654	-1.038307	1.759667
0.600	2.964226	0.227795	670.747882	11.671519	7.000988	-0.145185	-1.043759	1.740075
0.610	2.928987	0.096966	668.499073	11.490349	7.028460	-0.136586	-1.051379	1.718828
0.620	2.895025	-0.000683	665.924214	11.304500	7.065468	-0.128922	-1.061002	1.697565
0.630	2.869464	-0.053442	663.284264	11.128328	7.111525	-0.124946	-1.072168	1.677762
0.640	2.855282	-0.066585	660.846527	10.971013	7.164449	-0.126251	-1.084132	1.660145
0.650	2.853111	-0.061483	658.847353	10.834311	7.220908	-0.132672	-1.095991	1.644434
0.660	2.859701	-0.067589	657.460501	10.713224	7.277511	-0.142251	-1.106912	1.629486
0.670	2.864611	-0.110481	656.780347	10.598983	7.331724	-0.151884	-1.116313	1.613779
0.680	2.849700	-0.201598	656.823140	10.482822	7.381844	-0.158404	-1.123871	1.595989
0.690	2.795083	-0.334521	657.542211	10.358928	7.425891	-0.159602	-1.129341	1.575401
0.700	2.690548	-0.489041	658.848057	10.225653	7.460068	-0.154771	-1.132290	1.552050
0.710	2.546333	-0.640228	660.623718	10.084982	7.477987	-0.144599	-1.131959	1.526585
0.720	2.395685	-0.767667	662.730187	9.940908	7.471558	-0.130643	-1.127391	1.499993
0.730	2.285534	-0.860800	665.003682	9.797663	7.433444	-0.114704	-1.117805	1.473325
0.740	2.258523	-0.918842	667.252782	9.658580	7.359922	-0.098397	-1.103019	1.447514
0.750	2.334839	-0.946680	669.264938	9.525913	7.252705	-0.083045	-1.083682	1.423340
0.760	2.502754	-0.949959	670.827731	9.401365	7.118817	-0.069780	-1.061199	1.401457
0.770	2.722538	-0.932398	671.762902	9.286665	6.968572	-0.059654	-1.037356	1.382432
0.780	2.942214	-0.896449	671.964185	9.183605	6.812446	-0.053552	-1.013811	1.366681
0.790	3.118303	-0.846093	671.426216	9.093362	6.657983	-0.051978	-0.991618	1.354335
0.800	3.232717	-0.789204	670.252486	9.015463	6.507892	-0.054880	-0.970961	1.345085
0.810	3.298740	-0.737398	668.635982	8.947073	6.360024	-0.061677	-0.951194	1.338108
0.820	3.353631	-0.703077	666.815475	8.883223	6.209226	-0.071439	-0.931176	1.332186
0.830	3.440741	-0.695250	665.020152	8.818058	6.050354	-0.083095	-0.909800	1.325984
0.840	3.588482	-0.716283	663.420760	8.746549	5.881315	-0.095554	-0.886514	1.318402
0.850	3.795424	-0.761050	662.103448	8.665902	5.705014	-0.107722	-0.861650	1.308844
0.860	4.028685	-0.818756	661.073310	8.576168	5.529418	-0.118452	-0.836430	1.297310
0.870	4.236841	-0.876750	660.282513	8.479959	5.365662	-0.126508	-0.812631	1.284292
0.880	4.371361	-0.924879	659.668905	8.381440	5.224885	-0.130580	-0.792047	1.270553
0.890	4.406331	-0.958638	659.188803	8.284953	5.115085	-0.129440	-0.775967	1.256841
0.900	4.347449	-0.980023	658.832334	8.193728	5.039234	-0.122244	-0.764874	1.243674
0.910	4.227202	-0.996216	658.618941	8.109134	4.995267	-0.108890	-0.758446	1.231233
0.920	4.089912	-1.017096	658.580139	8.030764	4.977760	-0.090262	-0.755832	1.219406
0.930	3.974276	-1.052527	658.740975	7.957323	4.980435	-0.068184	-0.756054	1.207959
0.940	3.900889	-1.109915	659.108258	7.887887	4.998343	-0.045096	-0.758349	1.196751
0.950	3.869052	-1.192285	659.666880	7.822846	5.028855	-0.023600	-0.762333	1.185878
0.960	3.862776	-1.297288	660.381550	7.764025	5.071306	-0.006067	-0.767936	1.175688
0.970	3.862056	-1.417738	661.201814	7.713861	5.125813	0.005594	-0.775227	1.166642
0.980	3.853542	-1.543823	662.070021	7.674027	5.192056	0.010085	-0.784216	1.159096
0.990	3.835550	-1.666188	662.931546	7.644150	5.268526	0.006876	-0.794732	1.153083
1.000	3.815568	-1.778204	663.744435	7.621296	5.352340	-0.003599	-0.806386	1.148227
1.010	3.802552	-1.876032	664.484371	7.600550	5.439463	-0.019772	-0.818599	1.143827
1.020	3.799153	-1.956601	665.142644	7.576507	5.525188	-0.038955	-0.830677	1.139080
1.030	3.798867	-2.015465	665.718559	7.545059	5.604734	-0.057742	-0.841907	1.133371
1.040	3.789826	-2.046846	666.210745	7.504701	5.673845	-0.072819	-0.851659	1.126475
1.050	3.762678	-2.046532	666.611935	7.456729	5.729304	-0.081921	-0.859466	1.118601
1.060	3.717574	-2.015946	666.909139	7.404230	5.769292	-0.084489	-0.865079	1.110231
1.070	3.666016	-1.964645	667.087724	7.350312	5.793502	-0.081648	-0.868477	1.101851
1.080	3.626443	-1.909408	667.136360	7.296398	5.802909	-0.075517	-0.869824	1.093689
1.090	3.615738	-1.870000	667.050584	7.241247	5.799223	-0.068133	-0.869383	1.085562
1.100	3.640839	-1.863309	666.834152	7.181146	5.784296	-0.060577	-0.867427	1.076901
1.110	3.694611	-1.898191	666.498232	7.111268	5.759781	-0.052735	-0.864185	1.066960
1.120	3.758259	-1.972812	666.059230	7.027752	5.727118	-0.043790	-0.859851	1.055124
1.130	3.809490	-2.075278	665.536313	6.929601	5.687672	-0.033056	-0.854600	1.041206
1.140	3.832695	-2.187206	664.949584	6.819551	5.642764	-0.020611	-0.848600	1.025574
1.150	3.826095	-2.289029	664.319786	6.703623	5.593634	-0.007423	-0.842009	1.009096
1.160	3.802115	-2.365368	663.670119	6.589615	5.541480	0.004958	-0.834975	0.992905
1.170	3.780674	-2.408918	663.029369	6.485073	5.487671	0.014906	-0.827666	0.978097
1.180	3.778948	-2.421777	662.434151	6.395303	5.433928	0.021216	-0.820297	0.965425
1.190	3.803076	-2.413913	661.928599	6.321942	5.382205	0.023468	-0.813110	0.955079
1.200	3.846055	-2.399298	661.561583	6.262606	5.334146	0.022102	-0.806296	0.946640
1.210	3.892521	-2.391034	661.382243	6.211804	5.290287	0.018178	-0.799883	0.939215
1.220	3.927328	-2.397123	661.433447	6.162867	5.249320	0.012919	-0.793628	0.931744
1.230	3.943284	-2.418219	661.742175	6.110210	5.207830	0.007251	-0.786988	0.923352
1.240	3.944462	-2.447829	662.307550	6.051078	5.160861	0.001539	-0.779224	0.913636
1.250	3.944007	-2.474627	663.090072	5.986173	5.103400	-0.004418	-0.769639	0.902769
1.260	3.957693	-2.486260	664.007210	5.919063	5.032359	-0.011203	-0.757877	0.891415
1.270	3.995987	-2.473813	664.939666	5.854864	4.948234	-0.019471	-0.744163	0.880511
1.280	4.057922	-2.435660	665.749258	5.798898	4.855588	-0.029640	-0.729342	0.871033
1.290	4.129553	-2.379058	666.304718	5.755838	4.761976	-0.041643	-0.714684	0.863845
1.300	4.188101	-2.318275	666.508389	5.729404	4.675673	-0.054798	-0.701518	0.859615
1.310	4.210609	-2.269446	666.317201	5.722348	4.603110	-0.067900	-0.690829	0.858802
1.320	4.183776	-2.244015	665.753774	5.736380	4.546970	-0.079573	-0.682981	0.861637
1.330	4.110892	-2.243748	664.905372	5.771948	4.505571	-0.088846	-0.677626	0.868086
1.340	4.012934	-2.259855	663.909520	5.828102	4.473636	-0.095679	-0.673832	0.877846
1.350	3.923400	-2.276965	662.927228	5.902677	4.444119	-0.101097	-0.670378	0.890396
1.360	3.878924	-2.280242	662.108275	5.992618	4.410561	-0.106808	-0.666139	0.905081
1.370	3.908803	-2.262258	661.556657	6.093973	4.369328	-0.114473	-0.660462	0.921157
1.380	4.026304	-2.226343	661.306423	6.201442	4.321118	-0.124989	-0.653421	0.937756
1.390	4.223759	-2.185004	661.317015	6.308129	4.271235	-0.138101	-0.645868	0.953874
1.400	4.472705	-2.154546	661.491345	6.406323	4.228513	-0.152511	-0.639239	0.968467
1.410	4.729359	-2.148606	661.710343	6.489433	4.203285	-0.166386	-0.635215	0.980706
1.420	4.944392	-2.173281	661.870093	6.554277	4.205116	-0.178032	-0.635339	0.990266
1.430	5.074530	-2.225418	661.907545	6.602633	4.241042	-0.186457	-0.640730	0.997516
1.440	5.092802	-2.294298	661.808084	6.641298	4.314762	-0.191682	-0.651966	1.003508
1.450	4.994368	-2.365734	661.597241	6.680487	4.426765	-0.194764	-0.669103	1.009751
1.460	4.795969	-2.426740	661.324216	6.731062	4.575045	-0.197562	-0.691801	1.017816
1.470	4.529076	-2.468621	661.045879	6.801569	4.755907	-0.202240	-0.719452	1.028910
1.480	4.229143	-2.487209	660.817736	6.896209	4.964486	-0.210590	-0.751264	1.043587
1.490	3.925151	-2.480576	660.693906	7.014371	5.194720	-0.223336	-0.786252	1.061667
1.500	3.633658	-2.446039	660.732629	7.151537	5.438773	-0.239656	-0.823143	1.082365
1.510	3.359608	-2.378693	660.999815	7.300885	5.686210	-0.257111	-0.860244	1.104521
1.520	3.102952	-2.272852	661.563423	7.455076	5.923541	-0.272079	-0.895385	1.126888
1.530	2.867146	-2.126009	662.476782	7.607956	6.134767	-0.280673	-0.926035	1.148411
1.540	2.664472	-1.943271	663.756276	7.755987	6.303133	-0.279918	-0.949616	1.168499
1.550	2.514895	-1.739522	665.363288	7.899012	6.413676	-0.268768	-0.963936	1.187173
1.560	2.439023	-1.537445	667.198723	8.039941	6.455722	-0.248514	-0.967586	1.205029
1.570	2.449426	-1.361659	669.112295	8.183142	6.424553	-0.222371	-0.960161	1.222985
1.580	2.545455	-1.231482	670.922144	8.331873	6.321833	-0.194427	-0.942260	1.241854
1.590	2.714178	-1.155686	672.437554	8.485652	6.154888	-0.168352	-0.915310	1.261924
1.600	2.936071	-1.131424	673.480005	8.638776	5.935190	-0.146338	-0.881272	1.282707
1.610	3.191704	-1.147272	673.902946	8.780883	5.676495	-0.128646	-0.842331	1.302989
1.620	3.466013	-1.188349	673.613145	8.899561	5.392992	-0.113893	-0.800607	1.321168
1.630	3.749106	-1.241084	672.593184	8.984079	5.097588	-0.099965	-0.757901	1.335737
1.640	4.034687	-1.296146	670.918275	9.028824	4.800295	-0.085184	-0.715481	1.345741
1.650	4.318154	-1.349338	668.756952	9.035287	4.506896	-0.069324	-0.673921	1.351057
1.660	4.595889	-1.400855	666.348041	9.012045	4.218439	-0.054115	-0.633068	1.352453
1.670	4.865720	-1.453134	663.955008	8.972945	3.932237	-0.042997	-0.592244	1.351439
1.680	5.127109	-1.507468	661.809259	8.934220	3.644532	-0.040133	-0.550692	1.349969
1.690	5.379710	-1.560282	660.061345	8.911344	3.354058	-0.048939	-0.508143	1.350078
1.700	5.620592	-1.601013	658.758622	8.916286	3.065043	-0.070687	-0.465276	1.353498
1.710	5.842110	-1.613675	657.857916	8.955604	2.788154	-0.103722	-0.423823	1.361328
1.720	6.032330	-1.582491	657.265764	9.029839	2.538693	-0.143649	-0.386251	1.373849
1.730	6.178141	-1.499400	656.886068	9.134419	2.332654	-0.184462	-0.355108	1.390564
1.740	6.269296	-1.369632	656.653893	9.261748	2.182372	-0.220183	-0.332347	1.410446
1.750	6.301163	-1.211986	656.544922	9.403623	2.093662	-0.246446	-0.318891	1.432289
1.760	6.274944	-1.052852	656.564768	9.553247	2.065440	-0.261456	-0.314583	1.455035
1.770	6.195768	-0.915890	656.730741	9.706545	2.091522	-0.266086	-0.318475	1.478010
1.780	6.070279	-0.811462	657.057457	9.862940	2.163243	-0.263225	-0.329232	1.501077
1.790	5.905563	-0.730485	657.551293	10.025651	2.271404	-0.256675	-0.345434	1.524695
1.800	5.710283	-0.645982	658.212871	10.201273	2.406779	-0.250003	-0.365654	1.549844
1.810	5.497170	-0.522555	659.043176	10.398212	2.559580	-0.245656	-0.388378	1.577774
1.820	5.284720	-0.330560	660.046690	10.623932	2.718966	-0.244525	-0.411935	1.609573
1.830	5.095847	-0.059387	661.225188	10.881713	2.873655	-0.245935	-0.434595	1.645689
1.840	4.952617	0.275669	662.561057	11.168256	3.013847	-0.247974	-0.454878	1.685619
1.850	4.868509	0.635899	663.997962	11.473311	3.133696	-0.248065	-0.471944	1.727914
1.860	4.841648	0.970187	665.432224	11.781539	3.232978	-0.243680	-0.485846	1.770509
1.870	4.852863	1.230386	666.724507	12.075867	3.316852	-0.233067	-0.497485	1.811223
1.880	4.870668	1.385584	667.729791	12.341047	3.393623	-0.215827	-0.508233	1.848210
1.890	4.861947	1.430420	668.332757	12.566402	3.471572	-0.193189	-0.519438	1.880261
1.900	4.803977	1.384810	668.473256	12.747199	3.556459	-0.167814	-0.532027	1.906912
1.910	4.692382	1.285617	668.153381	12.884553	3.650771	-0.143094	-0.546397	1.928382
1.920	4.541391	1.173914	667.427926	12.984063	3.754637	-0.122087	-0.562553	1.945388
1.930	4.376494	1.082986	666.386317	13.053730	3.867469	-0.106485	-0.580364	1.958883
1.940	4.223218	1.031143	665.133801	13.101904	3.989276	-0.096134	-0.599770	1.969815
1.950	4.097338	1.020622	663.775817	13.135955	4.121210	-0.089343	-0.620874	1.978975
1.960	4.000387	1.041232	662.406804	13.161928	4.265471	-0.083853	-0.643935	1.986986
1.970	3.920970	1.076383	661.104319	13.185005	4.424894	-0.077980	-0.669319	1.994391
1.980	3.839459	1.109656	659.929485	13.210345	4.602380	-0.071489	-0.697405	2.001781
1.990	3.733067	1.130972	658.933961	13.243826	4.800188	-0.065879	-0.728478	2.009887
2.000	3.579983	1.141652	658.171648	13.292218	5.018965	-0.064011	-0.762562	2.019567
2.010	3.363399	1.156951	657.710687	13.362469	5.256460	-0.069081	-0.799205	2.031664
2.020	3.076939	1.204035	657.639050	13.460252	5.506122	-0.083192	-0.837256	2.046754
2.030	2.731361	1.314298	658.056955	13.588375	5.756235	-0.105954	-0.874732	2.064924
2.040	2.359576	1.511666	659.053003	13.745697	5.990371	-0.133740	-0.908936	2.085674
2.050	2.015218	1.801223	660.668165	13.926893	6.189621	-0.160069	-0.936873	2.108001
2.060	1.761483	2.163037	662.859607	14.123095	6.336328	-0.177211	-0.955908	2.130631
2.070	1.651793	2.553844	665.480364	14.323160	6.418277	-0.178465	-0.964458	2.152304
2.080	1.709557	2.915995	668.287204	14.515116	6.431947	-0.160212	-0.962452	2.171988
2.090	1.916919	3.190393	670.978179	14.687163	6.383510	-0.122871	-0.951374	2.188918
2.100	2.219244	3.329260	673.248932	14.827932	6.287042	-0.070499	-0.933836	2.202444
2.110	2.544415	3.305424	674.849880	14.926299	6.160315	-0.009402	-0.912842	2.211795
2.120	2.828544	3.116827	675.627806	14.971486	6.019523	0.053539	-0.890953	2.215937
2.130	3.036996	2.786563	675.542644	14.954020	5.874743	0.112242	-0.869633	2.213631
2.140	3.172533	2.359000	674.658878	14.867568	5.727729	0.162244	-0.848982	2.203716
2.150	3.268612	1.891973	673.117780	14.711063	5.572850	0.200980	-0.827916	2.185511
2.160	3.371964	1.445290	671.100490	14.490104	5.400814	0.227679	-0.804770	2.159156
2.170	3.522106	1.067347	668.792918	14.216791	5.203794	0.243087	-0.778088	2.125739
2.180	3.735448	0.783494	666.361557	13.907881	4.979974	0.249125	-0.747338	2.087137
2.190	3.999149	0.590352	663.944440	13.581965	4.735693	0.248502	-0.713266	2.045648
2.200	4.276272	0.458859	661.655073	13.256707	4.484317	0.244205	-0.677742	2.003568
2.210	4.520053	0.345746	659.592524	12.946934	4.242330	0.238837	-0.643174	1.962869
2.220	4.691902	0.209691	657.850157	12.663816	4.024293	0.233971	-0.611734	1.925030
2.230	4.776272	0.026400	656.518141	12.414904	3.838636	0.229735	-0.584696	1.891022
2.240	4.786660	-0.202838	655.678296	12.204592	3.685771	0.224889	-0.562131	1.861369
2.250	4.760588	-0.452092	655.392604	12.034489	3.558949	0.217400	-0.543026	1.836226
2.260	4.746042	-0.680765	655.688430	11.903445	3.447327	0.205341	-0.525757	1.815412
2.270	4.785105	-0.848873	656.544660	11.807267	3.340066	0.187772	-0.508734	1.798395
2.280	4.900794	-0.931906	657.883233	11.738488	3.230049	0.165263	-0.490976	1.784281
2.290	5.090811	-0.929751	659.570221	11.686691	3.115987	0.139893	-0.472427	1.771865
2.300	5.329107	-0.866563	661.429423	11.639735	3.002248	0.114765	-0.453903	1.759785
2.310	5.574357	-0.782169	663.268346	11.585874	2.896581	0.093222	-0.436713	1.746785
2.320	5.783119	-0.718759	664.910659	11.516229	2.806804	0.078019	-0.422132	1.731996
2.330	5.923899	-0.707972	666.223693	11.426702	2.737898	0.070626	-0.410958	1.715145
2.340	5.986972	-0.762637	667.129483	11.318559	2.690804	0.070822	-0.403341	1.696606
2.350	5.985389	-0.875015	667.595437	11.197530	2.663397	0.076625	-0.398954	1.677293
2.360	5.946170	-1.020768	667.612126	11.071901	2.653109	0.084646	-0.397403	1.658433
2.370	5.895932	-1.166402	667.173674	10.950409	2.659786	0.090905	-0.398665	1.641313
2.380	5.848493	-1.277763	666.274899	10.840609	2.687193	0.091986	-0.403316	1.627048
2.390	5.800810	-1.327759	664.928422	10.747959	2.742347	0.086172	-0.412427	1.616408
2.400	5.738477	-1.302078	663.190873	10.675545	2.833105	0.073996	-0.427193	1.609724
