Time[s]	Fx[N]	Fy[N]	Fz[N]	Mx[Nm]	My[Nm]	Mz[Nm]	COPx[cm]	COPy[cm]
0.010	3.817920	0.693998	503.405934	4.849818	6.226516	0.124333	-1.236878	0.963401
0.020	3.834212	0.694416	503.555744	4.905101	6.281263	0.118896	-1.247382	0.974093
0.030	3.841768	0.699571	503.689700	4.952114	6.332525	0.113781	-1.257227	0.983168
0.040	3.835406	0.711782	503.796660	4.986071	6.378633	0.109092	-1.266113	0.989699
0.050	3.815488	0.730608	503.874277	5.007429	6.420259	0.104691	-1.274179	0.993785
0.060	3.787508	0.752981	503.930035	5.021317	6.460120	0.100300	-1.281948	0.996431
0.070	3.759408	0.774153	503.977885	5.035016	6.501892	0.095689	-1.290115	0.999055
0.080	3.738092	0.789077	504.031248	5.054834	6.548931	0.090828	-1.299310	1.002881
0.090	3.727048	0.793965	504.096514	5.083805	6.603333	0.085913	-1.309934	1.008498
0.100	3.726079	0.787758	504.171508	5.120965	6.665657	0.081266	-1.322101	1.015719
0.110	3.732634	0.772895	504.249614	5.162151	6.735303	0.077178	-1.335708	1.023729
0.120	3.743225	0.754597	504.325829	5.201670	6.811282	0.073788	-1.350572	1.031411
0.130	3.753874	0.738592	504.399963	5.234141	6.892962	0.071070	-1.366567	1.037697
0.140	3.759783	0.728212	504.474970	5.255953	6.980484	0.068924	-1.383713	1.041866
0.150	3.755169	0.722496	504.552286	5.266060	7.074800	0.067311	-1.402194	1.043710
0.160	3.733891	0.716464	504.628052	5.265965	7.177534	0.066334	-1.422341	1.043534
0.170	3.690697	0.703658	504.692942	5.258908	7.290765	0.066174	-1.444594	1.042002
0.180	3.622315	0.679784	504.735309	5.248572	7.416675	0.066905	-1.469419	1.039866
0.190	3.527730	0.645628	504.745326	5.237758	7.556958	0.068282	-1.497182	1.037703
0.200	3.407697	0.607764	504.718034	5.227551	7.712127	0.069661	-1.528007	1.035737
0.210	3.264204	0.576733	504.654880	5.217348	7.881115	0.070099	-1.561684	1.033845
0.220	3.100561	0.563489	504.563862	5.205717	8.061500	0.068604	-1.597716	1.031726
0.230	2.921895	0.575514	504.457593	5.191662	8.250295	0.064403	-1.635478	1.029157
0.240	2.735069	0.613992	504.348661	5.175611	8.444936	0.057160	-1.674424	1.026197
0.250	2.547263	0.673044	504.244096	5.159568	8.643989	0.047135	-1.714247	1.023228
0.260	2.363538	0.741217	504.142644	5.146337	8.847317	0.035279	-1.754923	1.020810
0.270	2.184740	0.804650	504.037070	5.138206	9.055695	0.023226	-1.796633	1.019410
0.280	2.006982	0.850989	503.920048	5.135778	9.270102	0.013093	-1.839598	1.019165
0.290	1.823077	0.872942	503.790258	5.137593	9.490942	0.007057	-1.883907	1.019788
0.300	1.625395	0.870207	503.655857	5.140717	9.717301	0.006735	-1.929353	1.020681
0.310	1.409425	0.848882	503.533716	5.141937	9.946343	0.012594	-1.975308	1.021170
0.320	1.177136	0.818535	503.444380	5.138877	10.173002	0.023690	-2.020680	1.020744
0.330	0.938918	0.788346	503.404966	5.130490	10.390262	0.037976	-2.063997	1.019158
0.340	0.712718	0.764074	503.424134	5.116866	10.590209	0.053072	-2.103636	1.016412
0.350	0.519852	0.746938	503.502039	5.098735	10.765771	0.067119	-2.138178	1.012654
0.360	0.378629	0.734432	503.634165	5.077043	10.912583	0.079280	-2.166768	1.008082
0.370	0.298434	0.722352	503.814573	5.052728	11.030149	0.089695	-2.189327	1.002894
0.380	0.276992	0.707038	504.034765	5.026617	11.121650	0.099027	-2.206524	0.997276
0.390	0.301945	0.687063	504.278428	4.999359	11.192411	0.107893	-2.219490	0.991389
0.400	0.355648	0.663998	504.516399	4.971310	11.247728	0.116477	-2.229408	0.985361
0.410	0.420664	0.642166	504.707259	4.942336	11.291093	0.124462	-2.237157	0.979248
0.420	0.483707	0.627299	504.806221	4.911603	11.323628	0.131247	-2.243163	0.972968
0.430	0.537116	0.624175	504.780101	4.877585	11.344857	0.136275	-2.247485	0.966279
0.440	0.578333	0.633954	504.621989	4.838594	11.354215	0.139288	-2.250044	0.958855
0.450	0.608426	0.652530	504.358358	4.793880	11.352405	0.140386	-2.250861	0.950491
0.460	0.630459	0.671052	504.044528	4.744791	11.341942	0.139942	-2.250186	0.941344
0.470	0.647974	0.678707	503.749864	4.695151	11.326701	0.138465	-2.248477	0.932040
0.480	0.663710	0.666643	503.538660	4.650308	11.310782	0.136478	-2.246259	0.923526
0.490	0.678802	0.631382	503.453756	4.615188	11.297224	0.134420	-2.243945	0.916705
0.500	0.692898	0.576356	503.507649	4.592348	11.287113	0.132567	-2.241697	0.912071
0.510	0.705303	0.510991	503.682312	4.581045	11.279373	0.131010	-2.239382	0.909511
0.520	0.716630	0.447771	503.936105	4.577630	11.271257	0.129706	-2.236644	0.908375
0.530	0.729947	0.398278	504.214647	4.576966	11.259295	0.128619	-2.233036	0.907742
0.540	0.750581	0.369499	504.462506	4.574171	11.240313	0.127892	-2.228176	0.906741
0.550	0.784534	0.361630	504.633483	4.566072	11.212142	0.127942	-2.221839	0.904829
0.560	0.836288	0.368369	504.698251	4.552061	11.173919	0.129368	-2.213980	0.901937
0.570	0.907101	0.379789	504.648802	4.534219	11.126095	0.132650	-2.204720	0.898490
0.580	0.994478	0.386601	504.499408	4.516719	11.070267	0.137791	-2.194307	0.895287
0.590	1.092844	0.383764	504.283516	4.504547	11.008845	0.144080	-2.183067	0.893257
0.600	1.194921	0.371818	504.045963	4.501866	10.944557	0.150146	-2.171341	0.893146
0.610	1.293248	0.355654	503.831462	4.510571	10.879950	0.154343	-2.159442	0.895254
0.620	1.381417	0.341775	503.673030	4.529580	10.817052	0.155353	-2.147634	0.899310
0.630	1.454892	0.335523	503.585365	4.555062	10.757222	0.152735	-2.136127	0.904526
0.640	1.511498	0.339171	503.566200	4.581493	10.701153	0.147130	-2.125074	0.909809
0.650	1.551684	0.351160	503.604445	4.603176	10.648951	0.139994	-2.114547	0.914046
0.660	1.578535	0.366526	503.690040	4.615810	10.600261	0.132996	-2.104521	0.916399
0.670	1.597388	0.378597	503.819142	4.617589	10.554345	0.127437	-2.094868	0.916517
0.680	1.615021	0.381649	503.990817	4.609486	10.510033	0.123952	-2.085362	0.914597
0.690	1.638547	0.373481	504.197147	4.594690	10.465513	0.122562	-2.075679	0.911288
0.700	1.674139	0.356448	504.414349	4.577541	10.418156	0.122868	-2.065396	0.907496
0.710	1.725623	0.336256	504.603250	4.562371	10.364796	0.124240	-2.054049	0.904150
0.720	1.793110	0.319163	504.721470	4.552517	10.302624	0.125923	-2.041249	0.901986
0.730	1.872218	0.309139	504.741289	4.549610	10.230400	0.127132	-2.026860	0.901375
0.740	1.954620	0.306294	504.662770	4.553178	10.149332	0.127157	-2.011112	0.902222
0.750	2.030225	0.307094	504.514501	4.560731	10.063144	0.125515	-1.994619	0.903984
0.760	2.090422	0.306082	504.342011	4.568477	9.977253	0.122080	-1.978271	0.905829
0.770	2.131227	0.298234	504.190903	4.572606	9.897372	0.117148	-1.963021	0.906920
0.780	2.154972	0.280916	504.093088	4.570663	9.827979	0.111402	-1.949636	0.906710
0.790	2.169653	0.254740	504.060519	4.562285	9.771183	0.105770	-1.938494	0.905107
0.800	2.185995	0.223133	504.085960	4.548857	9.726434	0.101226	-1.929519	0.902397
0.810	2.213336	0.190942	504.148098	4.532303	9.691211	0.098560	-1.922295	0.899002
0.820	2.255974	0.162629	504.218572	4.513730	9.662367	0.098165	-1.916305	0.895193
0.830	2.311515	0.140854	504.269712	4.492684	9.637412	0.099832	-1.911162	0.890929
0.840	2.371878	0.126118	504.282225	4.467345	9.615129	0.102637	-1.906696	0.885882
0.850	2.426493	0.117492	504.251124	4.435438	9.595405	0.105006	-1.902902	0.879609
0.860	2.466343	0.113594	504.187336	4.395313	9.578632	0.105087	-1.899816	0.871762
0.870	2.487069	0.112892	504.113543	4.346729	9.565151	0.101349	-1.897420	0.862252
0.880	2.489751	0.113197	504.055456	4.291114	9.554985	0.093229	-1.895622	0.851318
0.890	2.479095	0.111096	504.031736	4.231346	9.547832	0.081496	-1.894292	0.839500
0.900	2.460210	0.102101	504.046467	4.171083	9.543100	0.068124	-1.893298	0.827520
0.910	2.435950	0.081690	504.087462	4.113794	9.539823	0.055710	-1.892494	0.816087
0.920	2.406300	0.046744	504.131645	4.061795	9.536476	0.046654	-1.891664	0.805701
0.930	2.369832	-0.003259	504.155575	4.015768	9.530919	0.042474	-1.890472	0.796533
0.940	2.325853	-0.065792	504.146460	3.975031	9.520660	0.043504	-1.888471	0.788468
0.950	2.275825	-0.135694	504.108150	3.938343	9.503436	0.049045	-1.885198	0.781250
0.960	2.223532	-0.206221	504.058890	3.904693	9.477933	0.057772	-1.880322	0.774650
0.970	2.174328	-0.270301	504.022432	3.873638	9.444331	0.068145	-1.873792	0.768545
0.980	2.133960	-0.321641	504.018039	3.845144	9.404380	0.078666	-1.865882	0.762898
0.990	2.107283	-0.355582	504.054296	3.819171	9.360842	0.087974	-1.857110	0.757690
1.000	2.097126	-0.369720	504.127856	3.795334	9.316452	0.094908	-1.848034	0.752851
1.010	2.103567	-0.364331	504.225683	3.772914	9.272846	0.098641	-1.839027	0.748259
1.020	2.123952	-0.342420	504.329304	3.751304	9.229940	0.098933	-1.830141	0.743820
1.030	2.153811	-0.309196	504.419782	3.730643	9.186039	0.096372	-1.821110	0.739591
1.040	2.188440	-0.270972	504.481912	3.712107	9.138564	0.092378	-1.811475	0.735826
1.050	2.224484	-0.233778	504.506789	3.697565	9.085050	0.088818	-1.800778	0.732907
1.060	2.260830	-0.202146	504.492911	3.688745	9.024062	0.087306	-1.788739	0.731179
1.070	2.298438	-0.178425	504.446164	3.686407	8.955770	0.088540	-1.775367	0.730783
1.080	2.339201	-0.162746	504.378337	3.689909	8.882081	0.092072	-1.760996	0.731576
1.090	2.384421	-0.153661	504.303892	3.697391	8.806301	0.096703	-1.746229	0.733167
1.100	2.433773	-0.149186	504.235742	3.706578	8.732403	0.101277	-1.731810	0.735088
1.110	2.485523	-0.147681	504.182060	3.715932	8.664099	0.105386	-1.718446	0.737022
1.120	2.537868	-0.147930	504.146246	3.725521	8.604069	0.109525	-1.706661	0.738976
1.130	2.590318	-0.148363	504.130219	3.737001	8.553564	0.114635	-1.696697	0.741277
1.140	2.643750	-0.146321	504.138348	3.752596	8.512358	0.121368	-1.688496	0.744358
1.150	2.698783	-0.138420	504.178252	3.773569	8.478916	0.129554	-1.681730	0.748459
1.160	2.753638	-0.122037	504.256804	3.799096	8.450678	0.138132	-1.675868	0.753405
1.170	2.803277	-0.096795	504.373184	3.826276	8.424451	0.145558	-1.670281	0.758620
1.180	2.840859	-0.064903	504.513074	3.851362	8.396910	0.150447	-1.664359	0.763382
1.190	2.860853	-0.030221	504.648095	3.871494	8.365173	0.152183	-1.657625	0.767167
1.200	2.862038	0.003122	504.742166	3.885968	8.327406	0.151243	-1.649834	0.769892
1.210	2.848702	0.031629	504.762695	3.896407	8.283280	0.149065	-1.641025	0.771928
1.220	2.829677	0.052634	504.691929	3.905892	8.234061	0.147537	-1.631502	0.773916
1.230	2.816033	0.064315	504.534233	3.917640	8.182146	0.148295	-1.621723	0.776486
1.240	2.818373	0.066143	504.317204	3.933913	8.130171	0.152151	-1.612115	0.780047
1.250	2.844271	0.059675	504.086564	3.955607	8.080104	0.158821	-1.602920	0.784708
1.260	2.896226	0.048964	503.896139	3.982481	8.032790	0.167075	-1.594136	0.790338
1.270	2.970728	0.039933	503.795381	4.013650	7.988128	0.175216	-1.585590	0.796683
1.280	3.059014	0.038706	503.817308	4.047871	7.945599	0.181681	-1.577079	0.803440
1.290	3.149569	0.049712	503.969425	4.083557	7.904722	0.185479	-1.568492	0.810279
1.300	3.231607	0.074552	504.229850	4.118756	7.865172	0.186332	-1.559839	0.816841
1.310	3.298180	0.112026	504.550281	4.151470	7.826649	0.184613	-1.551213	0.822806
1.320	3.347737	0.158919	504.865853	4.180372	7.788716	0.181187	-1.542730	0.828016
1.330	3.383619	0.210868	505.109771	4.205628	7.750819	0.177247	-1.534482	0.832617
1.340	3.411816	0.263024	505.229202	4.229271	7.712495	0.174078	-1.526534	0.837099
1.350	3.437983	0.310664	505.198447	4.254750	7.673680	0.172766	-1.518944	0.842194
1.360	3.465029	0.349982	505.025615	4.285691	7.635057	0.173891	-1.511816	0.848609
1.370	3.492215	0.379026	504.750468	4.324403	7.598319	0.177309	-1.505361	0.856741
1.380	3.515871	0.398501	504.434049	4.370863	7.566124	0.182126	-1.499923	0.866489
1.390	3.531158	0.412050	504.143457	4.422641	7.541585	0.186876	-1.495920	0.877258
1.400	3.534224	0.425756	503.935983	4.475816	7.527351	0.189872	-1.493712	0.888172
1.410	3.524116	0.446845	503.846494	4.526497	7.524672	0.189653	-1.493445	0.898388
1.420	3.503773	0.481786	503.881203	4.572294	7.532837	0.185432	-1.494963	0.907415
1.430	3.479517	0.534267	504.019083	4.613130	7.549228	0.177408	-1.497806	0.915269
1.440	3.459026	0.603754	504.219291	4.651020	7.569900	0.166791	-1.501311	0.922420
1.450	3.448581	0.685229	504.431358	4.688967	7.590485	0.155455	-1.504761	0.929555
1.460	3.450888	0.770296	504.605879	4.729476	7.607097	0.145363	-1.507532	0.937261
1.470	3.464547	0.849275	504.705070	4.773338	7.617054	0.137975	-1.509209	0.945768
1.480	3.485435	0.913625	504.711986	4.819148	7.619289	0.133900	-1.509631	0.954831
1.490	3.509170	0.957886	504.635013	4.863675	7.614455	0.132853	-1.508903	0.963800
1.500	3.533234	0.980637	504.504005	4.902970	7.604674	0.133885	-1.507356	0.971840
1.510	3.557636	0.984350	504.358092	4.933762	7.592978	0.135769	-1.505474	0.978226
1.520	3.584002	0.974369	504.230385	4.954556	7.582598	0.137401	-1.503796	0.982598
1.530	3.613884	0.957349	504.136967	4.965892	7.576341	0.138065	-1.502834	0.985028
1.540	3.647252	0.939592	504.075137	4.969714	7.576194	0.137494	-1.502989	0.985907
1.550	3.681776	0.925758	504.031024	4.968331	7.583188	0.135756	-1.504508	0.985719
1.560	3.713008	0.918202	503.992231	4.963678	7.597539	0.133050	-1.507471	0.984872
1.570	3.735261	0.916722	503.958828	4.957165	7.619025	0.129549	-1.511835	0.983645
1.580	3.742990	0.918459	503.946763	4.949789	7.647423	0.125331	-1.517506	0.982205
1.590	3.732428	0.918110	503.981645	4.942004	7.682709	0.120421	-1.524403	0.980592
1.600	3.703068	0.909075	504.085673	4.933295	7.724852	0.114891	-1.532448	0.978662
1.610	3.658368	0.885803	504.263583	4.921902	7.773350	0.108964	-1.541525	0.976057
1.620	3.605143	0.846683	504.493871	4.905166	7.826948	0.103053	-1.551446	0.972295
1.630	3.551712	0.795930	504.729823	4.880511	7.883895	0.097713	-1.562003	0.966955
1.640	3.505462	0.743003	504.911518	4.846608	7.942664	0.093512	-1.573080	0.959893
1.650	3.470856	0.699331	504.985489	4.804146	8.002642	0.090822	-1.584727	0.951343
1.660	3.448635	0.673725	504.924652	4.755794	8.064313	0.089622	-1.597132	0.941882
1.670	3.436335	0.668700	504.739960	4.705368	8.128871	0.089414	-1.610507	0.932236
1.680	3.429583	0.679529	504.478351	4.656643	8.197584	0.089370	-1.624962	0.923061
1.690	3.423437	0.696388	504.207492	4.612375	8.271271	0.088679	-1.640450	0.914777
1.700	3.413236	0.708463	503.993410	4.573819	8.350033	0.086914	-1.656774	0.907516
1.710	3.395005	0.708138	503.880120	4.540709	8.433224	0.084188	-1.673657	0.901149
1.720	3.365837	0.693581	503.879309	4.511597	8.519625	0.081021	-1.690807	0.895372
1.730	3.324409	0.668764	503.972791	4.484520	8.607787	0.078044	-1.707986	0.889834
1.740	3.271319	0.641068	504.123631	4.457870	8.696377	0.075771	-1.725048	0.884281
1.750	3.208899	0.617778	504.288530	4.431054	8.784379	0.074543	-1.741935	0.878674
1.760	3.140711	0.603223	504.426780	4.404488	8.871125	0.074568	-1.758655	0.873167
1.770	3.071045	0.597705	504.506128	4.378866	8.956260	0.075923	-1.775253	0.867951
1.780	3.004439	0.598323	504.507928	4.354184	9.039809	0.078457	-1.791807	0.863056
1.790	2.945006	0.600945	504.431639	4.329222	9.122362	0.081713	-1.808444	0.858238
1.800	2.895499	0.602228	504.295868	4.301792	9.205198	0.084953	-1.825357	0.853029
1.810	2.856324	0.600650	504.133526	4.269567	9.290108	0.087384	-1.842787	0.846912
1.820	2.824834	0.596209	503.981972	4.231016	9.378864	0.088482	-1.860952	0.839517
1.830	2.795367	0.589392	503.872209	4.186014	9.472595	0.088218	-1.879960	0.830769
1.840	2.760484	0.580391	503.821657	4.135866	9.571408	0.087005	-1.899761	0.820899
1.850	2.713450	0.569105	503.832615	4.082797	9.674422	0.085395	-1.920166	0.810348
1.860	2.650959	0.555738	503.895316	4.029157	9.780149	0.083758	-1.940909	0.799602
1.870	2.574595	0.541298	503.992849	3.976752	9.887047	0.082197	-1.961743	0.789049
1.880	2.490107	0.527493	504.105821	3.926599	9.994040	0.080709	-1.982528	0.778923
1.890	2.405043	0.516035	504.216060	3.879103	10.100847	0.079434	-2.003277	0.769333
1.900	2.326013	0.507922	504.309367	3.834437	10.207987	0.078775	-2.024152	0.760334
1.910	2.256607	0.503209	504.377359	3.792791	10.316463	0.079290	-2.045386	0.751975
1.920	2.196522	0.501218	504.418346	3.754324	10.427237	0.081380	-2.067180	0.744288
1.930	2.142150	0.500812	504.437118	3.718827	10.540704	0.084967	-2.089597	0.737223
1.940	2.088554	0.500492	504.443075	3.685268	10.656370	0.089324	-2.112502	0.730562
1.950	2.032070	0.498389	504.446102	3.651546	10.772851	0.093190	-2.135580	0.723872
1.960	1.972334	0.492335	504.451186	3.614796	10.888267	0.095130	-2.158438	0.716580
1.970	1.912767	0.480241	504.455063	3.572338	11.000834	0.094021	-2.180736	0.708158
1.980	1.859292	0.460922	504.447943	3.522904	11.109352	0.089414	-2.202279	0.698368
1.990	1.817844	0.435156	504.419798	3.467422	11.213294	0.081645	-2.223008	0.687408
2.000	1.791847	0.406279	504.367171	3.408814	11.312518	0.071698	-2.242913	0.675860
2.010	1.780966	0.379643	504.296194	3.350815	11.406910	0.060965	-2.261947	0.664454
2.020	1.781697	0.360874	504.220206	3.296326	11.496302	0.050991	-2.280016	0.653747
2.030	1.789204	0.353609	504.153469	3.246050	11.580681	0.043208	-2.297055	0.643861
2.040	1.799214	0.357702	504.104197	3.198024	11.660439	0.038637	-2.313101	0.634397
2.050	1.809059	0.368622	504.070412	3.148274	11.736403	0.037677	-2.328326	0.624570
2.060	1.817766	0.378339	504.041161	3.092273	11.809612	0.040041	-2.342986	0.613496
2.070	1.825526	0.377419	504.003329	3.026522	11.881069	0.044838	-2.357339	0.600496
2.080	1.832932	0.357706	503.950777	2.949630	11.951683	0.050754	-2.371597	0.585301
2.090	1.840248	0.314728	503.890472	2.862607	12.022440	0.056298	-2.385923	0.568101
2.100	1.846944	0.249021	503.841740	2.768451	12.094545	0.060117	-2.400465	0.549468
2.110	1.851653	0.165920	503.829038	2.671222	12.169271	0.061326	-2.415357	0.530184
2.120	1.852579	0.073864	503.872100	2.574871	12.247521	0.059743	-2.430681	0.511017
2.130	1.848181	-0.018329	503.977485	2.482231	12.329442	0.055952	-2.446427	0.492528
2.140	1.837675	-0.104347	504.133883	2.394576	12.414413	0.051163	-2.462523	0.474988
2.150	1.820819	-0.182250	504.312720	2.311922	12.501434	0.046865	-2.478905	0.458430
2.160	1.796925	-0.254276	504.475240	2.233778	12.589609	0.044386	-2.495585	0.442792
2.170	1.763875	-0.324426	504.584927	2.159852	12.678405	0.044495	-2.512640	0.428045
2.180	1.718204	-0.395048	504.620567	2.090299	12.767570	0.047225	-2.530133	0.414232
2.190	1.656538	-0.464441	504.584155	2.025475	12.856815	0.051999	-2.548002	0.401415
2.200	1.577756	-0.527006	504.500555	1.965437	12.945484	0.057969	-2.566000	0.389581
2.210	1.484844	-0.575896	504.409225	1.909663	13.032341	0.064362	-2.583684	0.378594
2.220	1.385594	-0.606490	504.350136	1.857326	13.115546	0.070664	-2.600484	0.368261
2.230	1.291510	-0.618620	504.347533	1.808015	13.192786	0.076546	-2.615813	0.358486
2.240	1.214788	-0.616424	504.397424	1.762386	13.261544	0.081659	-2.629185	0.349404
2.250	1.164161	-0.606171	504.465573	1.722252	13.319533	0.085494	-2.640325	0.341401
2.260	1.141312	-0.593381	504.499296	1.689995	13.365326	0.087416	-2.649226	0.334985
2.270	1.139564	-0.580750	504.449583	1.667594	13.399101	0.086883	-2.656182	0.330577
2.280	1.145676	-0.567803	504.294137	1.655702	13.423177	0.083728	-2.661775	0.328321
2.290	1.144248	-0.552233	504.050407	1.653199	13.441960	0.078369	-2.666789	0.327983
2.300	1.123082	-0.531952	503.771727	1.657378	13.461126	0.071839	-2.672069	0.328994
2.310	1.077323	-0.506600	503.527964	1.664773	13.486188	0.065609	-2.678339	0.330622
2.320	1.010617	-0.477774	503.380147	1.672379	13.520963	0.061224	-2.686034	0.332230
2.330	0.932785	-0.448087	503.360947	1.678817	13.566503	0.059875	-2.695184	0.333521
2.340	0.855255	-0.419741	503.468083	1.684813	13.620872	0.062023	-2.705409	0.334642
2.350	0.786683	-0.393423	503.669907	1.692658	13.679728	0.067235	-2.716011	0.336065
2.360	0.730996	-0.368075	503.917446	1.704887	13.737336	0.074289	-2.726108	0.338327
2.370	0.688547	-0.341643	504.157416	1.722853	13.787687	0.081528	-2.734798	0.341729
2.380	0.659097	-0.312383	504.343589	1.745807	13.825580	0.087305	-2.741302	0.346154
2.390	0.644291	-0.280022	504.445541	1.770873	13.847591	0.090407	-2.745111	0.351053
2.400	0.647838	-0.246252	504.453400	1.793987	13.852699	0.090362	-2.746081	0.355630
2.410	0.673356	-0.214348	504.377026	1.811452	13.842333	0.087573	-2.744442	0.359146
2.420	0.721553	-0.188076	504.239953	1.821397	13.819790	0.083203	-2.740717	0.361216
2.430	0.788759	-0.170268	504.070916	1.824432	13.789226	0.078774	-2.735573	0.361940
2.440	0.867758	-0.161672	503.896449	1.823296	13.754539	0.075614	-2.729636	0.361839
