Time[s]	Fx[N]	Fy[N]	Fz[N]	Mx[Nm]	My[Nm]	Mz[Nm]	COPx[cm]	COPy[cm]
0.010	3.352235	-8.591386	621.057908	-26.159461	-15.534186	1.237300	2.501246	-4.212081
0.020	3.160579	-8.457866	621.093658	-25.962975	-14.942205	1.208233	2.405789	-4.180203
0.030	2.966330	-8.306239	621.286010	-25.766283	-14.364052	1.182135	2.311987	-4.147250
0.040	2.759428	-8.125562	621.752319	-25.569616	-13.808946	1.160812	2.220972	-4.112508
0.050	2.518453	-7.915532	622.548527	-25.373640	-13.278725	1.144193	2.132962	-4.075769
0.060	2.214671	-7.685893	623.665248	-25.179839	-12.768797	1.130629	2.047380	-4.037396
0.070	1.821956	-7.452227	625.043074	-24.990676	-12.271813	1.117833	1.963355	-3.998233
0.080	1.328211	-7.230078	626.599338	-24.809310	-11.782199	1.103913	1.880340	-3.959358
0.090	0.743501	-7.029535	628.254894	-24.638858	-11.299591	1.088013	1.798568	-3.921793
0.100	0.101758	-6.851970	629.950407	-24.481470	-10.829933	1.070363	1.719172	-3.886254
0.110	-0.544746	-6.690079	631.647401	-24.337546	-10.384124	1.051861	1.643975	-3.853027
0.120	-1.136729	-6.531524	633.316824	-24.205367	-9.975078	1.033428	1.575053	-3.822000
0.130	-1.621663	-6.365122	634.922607	-24.081337	-9.614439	1.015518	1.514269	-3.792799
0.140	-1.965541	-6.186974	636.407926	-23.960866	-9.309997	0.998013	1.462898	-3.765017
0.150	-2.158893	-6.003531	637.689910	-23.839742	-9.064294	0.980580	1.421427	-3.738454
0.160	-2.215694	-5.829981	638.665744	-23.715548	-8.874497	0.963202	1.389537	-3.713296
0.170	-2.166635	-5.684951	639.228927	-23.588523	-8.733338	0.946541	1.366230	-3.690153
0.180	-2.050008	-5.584337	639.290092	-23.461367	-8.630832	0.931898	1.350065	-3.669909
0.190	-1.903447	-5.537059	638.795517	-23.337990	-8.556377	0.920823	1.339455	-3.653437
0.200	-1.758376	-5.543947	637.739615	-23.221764	-8.500838	0.914590	1.332964	-3.641261
0.210	-1.637211	-5.599151	636.171824	-23.114147	-8.458251	0.913752	1.329555	-3.633318
0.220	-1.552226	-5.692572	634.199406	-23.014313	-8.426878	0.917998	1.328743	-3.628876
0.230	-1.504987	-5.812100	631.984987	-22.919903	-8.409438	0.926317	1.330639	-3.626653
0.240	-1.486342	-5.945217	629.734511	-22.828538	-8.412506	0.937367	1.335881	-3.625105
0.250	-1.477793	-6.080159	627.671593	-22.739321	-8.445161	0.949861	1.345474	-3.622805
0.260	-1.454876	-6.206843	625.999885	-22.653527	-8.517070	0.962870	1.360555	-3.618775
0.270	-1.392099	-6.317406	624.863137	-22.574031	-8.636260	0.976016	1.382104	-3.612636
0.280	-1.268135	-6.406123	624.316549	-22.503737	-8.807013	0.989522	1.410665	-3.604540
0.290	-1.069986	-6.469000	624.318999	-22.443777	-9.028316	1.004071	1.446106	-3.594921
0.300	-0.795580	-6.503884	624.746294	-22.392367	-9.293140	1.020472	1.487506	-3.584234
0.310	-0.455007	-6.511603	625.417936	-22.344846	-9.588602	1.039264	1.533151	-3.572786
0.320	-0.070576	-6.497528	626.128503	-22.294842	-9.896973	1.060441	1.580662	-3.560745
0.330	0.324972	-6.472113	626.678367	-22.235960	-10.197504	1.083398	1.627231	-3.548225
0.340	0.693087	-6.449178	626.902049	-22.163272	-10.468968	1.107022	1.669953	-3.535364
0.350	0.996870	-6.442124	626.692606	-22.074170	-10.692649	1.129843	1.706203	-3.522328
0.360	1.209547	-6.459763	626.018030	-21.968573	-10.855200	1.150197	1.734007	-3.509256
0.370	1.320928	-6.504018	624.924653	-21.848651	-10.950596	1.166495	1.752307	-3.496206
0.380	1.339239	-6.570773	623.525098	-21.718300	-10.980527	1.177636	1.761040	-3.483148
0.390	1.287401	-6.653235	621.973331	-21.582501	-10.953046	1.183482	1.761015	-3.470004
0.400	1.195036	-6.745697	620.434300	-21.446659	-10.879949	1.185097	1.753602	-3.456717
0.410	1.089147	-6.845647	619.057581	-21.315916	-10.773872	1.184525	1.740367	-3.443285
0.420	0.986795	-6.953404	617.962009	-21.194441	-10.646041	1.184085	1.722766	-3.429732
0.430	0.892246	-7.069916	617.232740	-21.084716	-10.505236	1.185489	1.701989	-3.416007
0.440	0.799049	-7.194156	616.926853	-20.986937	-10.357921	1.189191	1.678954	-3.401852
0.450	0.695544	-7.321529	617.081206	-20.898690	-10.209094	1.194242	1.654417	-3.386700
0.460	0.571153	-7.443942	617.717245	-20.815180	-10.063307	1.198686	1.629112	-3.369694
0.470	0.421232	-7.551199	618.840342	-20.730081	-9.925417	1.200258	1.603874	-3.349827
0.480	0.249616	-7.632908	620.434025	-20.636861	-9.800903	1.197143	1.579685	-3.326197
0.490	0.069033	-7.680323	622.451042	-20.530101	-9.695769	1.188566	1.557676	-3.298268
0.500	-0.100299	-7.687869	624.804380	-20.406385	-9.616164	1.175082	1.539068	-3.266044
0.510	-0.233759	-7.654178	627.362976	-20.264493	-9.567868	1.158479	1.525093	-3.230107
0.520	-0.306719	-7.582234	629.957593	-20.104866	-9.555641	1.141300	1.516870	-3.191463
0.530	-0.299270	-7.478279	632.398891	-19.928456	-9.582466	1.126061	1.515257	-3.151248
0.540	-0.199986	-7.349492	634.503296	-19.735372	-9.648782	1.114419	1.520683	-3.110366
0.550	-0.007741	-7.200980	636.117999	-19.523911	-9.751899	1.106641	1.533033	-3.069228
0.560	0.268629	-7.033311	637.137493	-19.290596	-9.885842	1.101712	1.551603	-3.027697
0.570	0.612129	-6.842016	637.508083	-19.031330	-10.041743	1.098127	1.575155	-2.985269
0.580	0.999694	-6.619908	637.221435	-18.743284	-10.208678	1.094976	1.602061	-2.941408
0.590	1.403825	-6.361578	636.302774	-18.426691	-10.374766	1.092781	1.630476	-2.895900
0.600	1.794156	-6.068075	634.801910	-18.085763	-10.528406	1.093598	1.658534	-2.849040
0.610	2.140112	-5.749571	632.793278	-17.728286	-10.659647	1.100271	1.684539	-2.801592
0.620	2.415446	-5.424881	630.385057	-17.364042	-10.761666	1.115114	1.707158	-2.754514
0.630	2.603813	-5.118205	627.730815	-17.002780	-10.832047	1.138609	1.725588	-2.708610
0.640	2.702945	-4.854446	625.032811	-16.652634	-10.873403	1.168718	1.739653	-2.664282
0.650	2.724811	-4.654467	622.526956	-16.319529	-10.892952	1.201125	1.749796	-2.621498
0.660	2.690916	-4.531110	620.447204	-16.007446	-10.900972	1.230287	1.756954	-2.579985
0.670	2.624462	-4.486426	618.979772	-15.719008	-10.908543	1.250922	1.762342	-2.539503
0.680	2.542862	-4.510715	618.226077	-15.455889	-10.925273	1.259386	1.767197	-2.500038
0.690	2.453914	-4.584175	618.190155	-15.218866	-10.957714	1.254520	1.772547	-2.461842
0.700	2.357024	-4.681468	618.793349	-15.007635	-11.008765	1.237744	1.779070	-2.425306
0.710	2.248296	-4.778170	619.906041	-14.820611	-11.077948	1.212412	1.787037	-2.390784
0.720	2.126673	-4.856750	621.380562	-14.654917	-11.162225	1.182739	1.796359	-2.358445
0.730	1.998400	-4.909674	623.072491	-14.506680	-11.257013	1.152711	1.806694	-2.328249
0.740	1.878208	-4.938763	624.846276	-14.371666	-11.357106	1.125363	1.817584	-2.300032
0.750	1.786751	-4.951831	626.570345	-14.246093	-11.457320	1.102545	1.828577	-2.273662
0.760	1.744949	-4.958439	628.111753	-14.127439	-11.552794	1.085097	1.839290	-2.249192
0.770	1.767028	-4.966266	629.339007	-14.014947	-11.639001	1.073209	1.849401	-2.226931
0.780	1.854826	-4.978937	630.135992	-13.909543	-11.711627	1.066756	1.858587	-2.207387
0.790	1.995790	-4.995731	630.423208	-13.813020	-11.766552	1.065448	1.866453	-2.191071
0.800	2.165677	-5.013102	630.177657	-13.726741	-11.800173	1.068735	1.872515	-2.178233
0.810	2.335056	-5.027324	629.442468	-13.650436	-11.810072	1.075582	1.876275	-2.168655
0.820	2.477164	-5.037107	628.322033	-13.581653	-11.795791	1.084338	1.877348	-2.161575
0.830	2.574247	-5.044954	626.964628	-13.516107	-11.759296	1.092929	1.875592	-2.155801
0.840	2.620303	-5.056550	625.538105	-13.448803	-11.704854	1.099367	1.871166	-2.149957
0.850	2.619636	-5.078434	624.204728	-13.375455	-11.638277	1.102359	1.864497	-2.142799
0.860	2.582103	-5.115261	623.100205	-13.293459	-11.565822	1.101706	1.856174	-2.133438
0.870	2.517105	-5.168126	622.319941	-13.201880	-11.493170	1.098298	1.846827	-2.121398
0.880	2.428893	-5.234552	621.913223	-13.100477	-11.424847	1.093716	1.837048	-2.106480
0.890	2.315361	-5.309489	621.884772	-12.988505	-11.364103	1.089657	1.827365	-2.088571
0.900	2.170990	-5.386309	622.202676	-12.864099	-11.313007	1.087401	1.818219	-2.067509
0.910	1.992634	-5.457171	622.810688	-12.724583	-11.272531	1.087460	1.809945	-2.043090
0.920	1.785342	-5.512919	623.641260	-12.567266	-11.242590	1.089496	1.802733	-2.015143
0.930	1.565350	-5.543022	624.624966	-12.390064	-11.222193	1.092526	1.796629	-1.983601
0.940	1.358545	-5.536227	625.693726	-12.191503	-11.209762	1.095413	1.791573	-1.948478
0.950	1.194638	-5.482278	626.778501	-11.970292	-11.203506	1.097498	1.787474	-1.909812
0.960	1.098878	-5.374454	627.804874	-11.725101	-11.201656	1.099063	1.784258	-1.867635
0.970	1.084001	-5.212111	628.691182	-11.455052	-11.202434	1.101331	1.781866	-1.822048
0.980	1.145231	-5.002297	629.353223	-11.160783	-11.203868	1.105920	1.780219	-1.773373
0.990	1.260473	-4.759693	629.716323	-10.845344	-11.203652	1.113946	1.779159	-1.722259
1.000	1.396135	-4.504447	629.731121	-10.514239	-11.199201	1.125269	1.778410	-1.669639
1.010	1.516738	-4.258079	629.387387	-10.174394	-11.187986	1.138314	1.777599	-1.616555
1.020	1.594895	-4.038637	628.721542	-9.832390	-11.168169	1.150635	1.776330	-1.563870
1.030	1.618233	-3.856784	627.816184	-9.492683	-11.139471	1.159926	1.774320	-1.512016
1.040	1.591246	-3.714037	626.791310	-9.156608	-11.103974	1.164991	1.771558	-1.460870
1.050	1.531993	-3.603324	625.787507	-8.822730	-11.066436	1.166213	1.768401	-1.409860
1.060	1.465180	-3.511299	624.942808	-8.488428	-11.033804	1.165343	1.765570	-1.358273
1.070	1.414220	-3.421734	624.367598	-8.151935	-11.013881	1.164764	1.764006	-1.305631
1.080	1.394918	-3.319360	624.124020	-7.813740	-11.013408	1.166554	1.764619	-1.251953
1.090	1.412423	-3.193388	624.215778	-7.476697	-11.036132	1.171798	1.768000	-1.197774
1.100	1.461429	-3.039919	624.591156	-7.144984	-11.081509	1.180411	1.774202	-1.143946
1.110	1.528561	-2.862545	625.158195	-6.822613	-11.144580	1.191467	1.782682	-1.091342
1.120	1.595882	-2.670831	625.807907	-6.512246	-11.217065	1.203821	1.792413	-1.040614
1.130	1.644997	-2.476975	626.439394	-6.214740	-11.289333	1.216689	1.802143	-0.992074
1.140	1.661255	-2.291846	626.980093	-5.929496	-11.352703	1.229942	1.810696	-0.945723
1.150	1.637178	-2.122088	627.395820	-5.655307	-11.401532	1.244008	1.817279	-0.901394
1.160	1.574110	-1.969626	627.688904	-5.391255	-11.434536	1.259397	1.821688	-0.858906
1.170	1.481536	-1.833635	627.886755	-5.137290	-11.454939	1.276084	1.824364	-0.818187
1.180	1.374309	-1.713797	628.025759	-4.894267	-11.469383	1.293090	1.826260	-0.779310
1.190	1.268655	-1.613019	628.135800	-4.663454	-11.486044	1.308583	1.828593	-0.742428
1.200	1.178108	-1.537870	628.229986	-4.445711	-11.512678	1.320508	1.832558	-0.707657
1.210	1.110520	-1.496001	628.303220	-4.240676	-11.555310	1.327417	1.839129	-0.674941
1.220	1.066976	-1.491596	628.340945	-4.046261	-11.617927	1.329052	1.848985	-0.643959
1.230	1.043033	-1.521261	628.334753	-3.858668	-11.703084	1.326393	1.862556	-0.614110
1.240	1.032055	-1.572571	628.296847	-3.672971	-11.812957	1.321167	1.880155	-0.584592
1.250	1.029620	-1.625932	628.265115	-3.484147	-11.950273	1.315046	1.902107	-0.554566
1.260	1.037323	-1.658896	628.295650	-3.288139	-12.118719	1.308924	1.928824	-0.523343
1.270	1.064405	-1.651419	628.445975	-3.082438	-12.322658	1.302589	1.960814	-0.490486
1.280	1.126624	-1.590484	628.755639	-2.865977	-12.566261	1.294986	1.998592	-0.455817
1.290	1.243051	-1.472693	629.230072	-2.638586	-12.852269	1.284933	2.042539	-0.419336
1.300	1.432070	-1.304039	629.831453	-2.400601	-13.180801	1.271927	2.092750	-0.381150
1.310	1.707594	-1.097190	630.479110	-2.153055	-13.548644	1.256569	2.148944	-0.341495
1.320	2.075982	-0.867748	631.060898	-1.898444	-13.949348	1.240431	2.210460	-0.300834
1.330	2.533869	-0.631115	631.454231	-1.641539	-14.374040	1.225499	2.276339	-0.259962
1.340	3.067255	-0.400622	631.551984	-1.389570	-14.812653	1.213555	2.345437	-0.220025
1.350	3.652309	-0.186549	631.286054	-1.151359	-15.255092	1.205759	2.416510	-0.182383
1.360	4.258298	0.004632	630.641350	-0.935590	-15.692062	1.202462	2.488270	-0.148355
1.370	4.852474	0.170725	629.655784	-0.748920	-16.115563	1.203168	2.559424	-0.118941
1.380	5.405761	0.313417	628.407429	-0.594776	-16.519239	1.206657	2.628747	-0.094648
1.390	5.897421	0.436552	626.995403	-0.473369	-16.898725	1.211307	2.695191	-0.075498
1.400	6.317276	0.543406	625.522297	-0.382763	-17.251939	1.215632	2.758005	-0.061191
1.410	6.665195	0.634007	624.082366	-0.320377	-17.579117	1.218785	2.816794	-0.051336
1.420	6.948638	0.703792	622.755243	-0.284228	-17.882361	1.220790	2.871491	-0.045640
1.430	7.179341	0.744279	621.603392	-0.273613	-18.164701	1.222367	2.922233	-0.044017
1.440	7.370059	0.745380	620.672286	-0.289150	-18.428945	1.224472	2.969191	-0.046587
1.450	7.531964	0.698306	619.992191	-0.332245	-18.676785	1.227752	3.012423	-0.053589
1.460	7.672964	0.598005	619.579024	-0.404154	-18.908386	1.232146	3.051812	-0.065230
1.470	7.796804	0.444686	619.432040	-0.505030	-19.122344	1.236791	3.087077	-0.081531
1.480	7.902807	0.244448	619.529369	-0.633485	-19.315774	1.240263	3.117814	-0.102253
1.490	7.986398	0.009060	619.825516	-0.786926	-19.484577	1.241056	3.143558	-0.126959
1.500	8.040766	-0.245316	620.254356	-0.962451	-19.624107	1.238045	3.163881	-0.155170
1.510	8.059696	-0.500714	620.737810	-1.157761	-19.730110	1.230726	3.178493	-0.186514
1.520	8.040822	-0.741032	621.197724	-1.371742	-19.799419	1.219197	3.187297	-0.220822
1.530	7.987885	-0.955846	621.567795	-1.604621	-19.829882	1.203960	3.190301	-0.258157
1.540	7.910588	-1.142939	621.802503	-1.857794	-19.819621	1.185715	3.187446	-0.298776
1.550	7.821473	-1.308160	621.880534	-2.133445	-19.766306	1.165235	3.178473	-0.343064
1.560	7.730568	-1.462098	621.802258	-2.433997	-19.667115	1.143365	3.162921	-0.391442
1.570	7.639803	-1.614586	621.584138	-2.761440	-19.519486	1.121137	3.140281	-0.444258
1.580	7.539923	-1.769539	621.254769	-3.116565	-19.322239	1.099958	3.110196	-0.501657
1.590	7.412150	-1.922968	620.855183	-3.498187	-19.076514	1.081696	3.072619	-0.563446
1.600	7.235059	-2.065712	620.441390	-3.902510	-18.786226	1.068441	3.027881	-0.628989
1.610	6.994585	-2.190009	620.084273	-4.322888	-18.457958	1.061828	2.976685	-0.697145
1.620	6.692996	-2.296819	619.863196	-4.750281	-18.100334	1.062147	2.920053	-0.766343
1.630	6.352241	-2.400068	619.853207	-5.174650	-17.722968	1.067758	2.859220	-0.834819
1.640	6.008761	-2.525285	620.108709	-5.587129	-17.335013	1.075279	2.795480	-0.900992
1.650	5.700316	-2.702583	620.647929	-5.982333	-16.943405	1.080653	2.729954	-0.963885
1.660	5.449467	-2.956386	621.442778	-6.359817	-16.551146	1.080698	2.663342	-1.023395
1.670	5.251019	-3.295601	622.417836	-6.723915	-16.156220	1.074479	2.595719	-1.080290
1.680	5.069794	-3.707890	623.460253	-7.081896	-15.751735	1.063874	2.526502	-1.135902
1.690	4.850512	-4.160357	624.439611	-7.441151	-15.327461	1.053058	2.454595	-1.191653
1.700	4.535728	-4.606739	625.233978	-7.806657	-14.872416	1.047061	2.378696	-1.248598
1.710	4.084364	-4.998798	625.756408	-8.179716	-14.377764	1.049975	2.297661	-1.307173
1.720	3.484059	-5.298397	625.976010	-8.558206	-13.839426	1.063536	2.210856	-1.367178
1.730	2.754437	-5.487023	625.929517	-8.937701	-13.260033	1.086574	2.118455	-1.427909
1.740	1.942578	-5.570607	625.721423	-9.312591	-12.650043	1.115462	2.021673	-1.488297
1.750	1.114051	-5.578692	625.511655	-9.676771	-12.027742	1.145251	1.922865	-1.547017
1.760	0.342034	-5.558032	625.490182	-10.024060	-11.417760	1.171041	1.825410	-1.602593
1.770	-0.304621	-5.561747	625.840278	-10.348705	-10.847875	1.189090	1.733330	-1.653570
1.780	-0.773926	-5.636232	626.696107	-10.646068	-10.344402	1.197383	1.650625	-1.698761
1.790	-1.042050	-5.809144	628.104114	-10.913206	-9.927180	1.195643	1.580499	-1.737484
1.800	-1.119971	-6.082119	629.999630	-11.148964	-9.605594	1.184972	1.524698	-1.769678
1.810	-1.052070	-6.430620	632.208555	-11.353555	-9.376941	1.167367	1.483204	-1.795856
1.820	-0.905506	-6.810805	634.477006	-11.528056	-9.227783	1.145280	1.454392	-1.816938
1.830	-0.752757	-7.171068	636.521308	-11.674377	-9.137820	1.121256	1.435587	-1.834090
1.840	-0.652674	-7.464900	638.082822	-11.795802	-9.084946	1.097634	1.423788	-1.848632
1.850	-0.636105	-7.661772	638.971882	-11.897569	-9.049786	1.076309	1.416304	-1.861986
1.860	-0.700502	-7.753389	639.091719	-11.986753	-9.018463	1.058536	1.411138	-1.875592
1.870	-0.814733	-7.754000	638.441549	-12.071165	-8.983321	1.044803	1.407070	-1.890724
1.880	-0.931913	-7.695110	637.103403	-12.157622	-8.942172	1.034820	1.403567	-1.908265
1.890	-1.005547	-7.616483	635.218752	-12.250344	-8.896857	1.027682	1.400597	-1.928524
1.900	-1.003567	-7.556134	632.961036	-12.350272	-8.851631	1.022214	1.398448	-1.951190
1.910	-0.916244	-7.541961	630.510157	-12.455655	-8.811565	1.017355	1.397529	-1.975488
1.920	-0.756689	-7.586962	628.033962	-12.563556	-8.781052	1.012436	1.398181	-2.000458
1.930	-0.555414	-7.688623	625.679115	-12.671462	-8.762635	1.007292	1.400500	-2.025233
1.940	-0.351790	-7.831710	623.569927	-12.778268	-8.756450	1.002182	1.404245	-2.049212
1.950	-0.185035	-7.992935	621.810412	-12.884467	-8.760524	0.997588	1.408874	-2.072089
1.960	-0.086430	-8.146314	620.484525	-12.991821	-8.771867	0.993935	1.413712	-2.093819
1.970	-0.073811	-8.268679	619.652762	-13.102808	-8.787950	0.991364	1.418206	-2.114540
1.980	-0.148968	-8.344832	619.347077	-13.219853	-8.808003	0.989656	1.422143	-2.134482
1.990	-0.297997	-8.371098	619.567080	-13.344339	-8.833670	0.988408	1.425781	-2.153817
2.000	-0.493995	-8.355753	620.279240	-13.475589	-8.868770	0.987374	1.429803	-2.172504
2.010	-0.701410	-8.315848	621.419490	-13.610223	-8.918353	0.986816	1.435158	-2.190183
2.020	-0.881797	-8.271546	622.899306	-13.742263	-8.987570	0.987607	1.442861	-2.206177
2.030	-1.000616	-8.240058	624.614990	-13.864073	-9.080858	0.991017	1.453833	-2.219619
2.040	-1.033603	-8.231128	626.458375	-13.967843	-9.201617	0.998236	1.468831	-2.229652
2.050	-0.970376	-8.245289	628.325593	-14.047153	-9.352151	1.009848	1.488424	-2.235649
2.060	-0.813871	-8.275264	630.120417	-14.098132	-9.533554	1.025465	1.512973	-2.237371
2.070	-0.576433	-8.309902	631.751299	-14.119949	-9.745322	1.043695	1.542588	-2.235049
2.080	-0.275104	-8.339050	633.125219	-14.114585	-9.984734	1.062537	1.577055	-2.229351
2.090	0.071516	-8.357243	634.144213	-14.086114	-10.246226	1.080103	1.615756	-2.221279
2.100	0.443971	-8.364809	634.709832	-14.039806	-10.521211	1.095398	1.657641	-2.212004
2.110	0.821231	-8.366402	634.737062	-13.981291	-10.798696	1.108733	1.701286	-2.202690
2.120	1.180524	-8.368131	634.174543	-13.915887	-11.066705	1.121481	1.745057	-2.194331
2.130	1.499322	-8.374625	633.024498	-13.848141	-11.314265	1.135283	1.787335	-2.187615
2.140	1.759645	-8.387064	631.355219	-13.781480	-11.533568	1.151132	1.826795	-2.182841
2.150	1.953278	-8.402765	629.301249	-13.717848	-11.721875	1.168807	1.862681	-2.179854
2.160	2.085586	-8.416461	627.050029	-13.657294	-11.882578	1.186836	1.894997	-2.178023
2.170	2.175619	-8.422580	624.817408	-13.597645	-12.024675	1.202944	1.924510	-2.176259
2.180	2.251523	-8.417129	622.816775	-13.534560	-12.160358	1.214758	1.952478	-2.173121
2.190	2.342269	-8.397783	621.227145	-13.462134	-12.301229	1.220558	1.980150	-2.167023
2.200	2.468538	-8.361850	620.165509	-13.373961	-12.454636	1.219818	2.008276	-2.156515
2.210	2.636226	-8.303282	619.669287	-13.264230	-12.621649	1.213366	2.036836	-2.140534
2.220	2.835048	-8.210667	619.694330	-13.128381	-12.797354	1.203102	2.065107	-2.118525
2.230	3.042744	-8.067682	620.130336	-12.963228	-12.972959	1.191422	2.091973	-2.090404
2.240	3.233175	-7.856345	620.829470	-12.766816	-13.138529	1.180545	2.116286	-2.056413
2.250	3.385087	-7.562366	621.639328	-12.538493	-13.285283	1.171966	2.137137	-2.017004
2.260	3.488135	-7.181052	622.430958	-12.279458	-13.406953	1.166219	2.153966	-1.972823
2.270	3.544028	-6.721595	623.115832	-11.993613	-13.500249	1.163089	2.166571	-1.924781
2.280	3.562844	-6.207744	623.650315	-11.688197	-13.564668	1.162171	2.175044	-1.874159
2.290	3.556641	-5.674228	624.029988	-11.373585	-13.601907	1.163464	2.179688	-1.822602
2.300	3.533577	-5.160096	624.278026	-11.061899	-13.615095	1.167574	2.180935	-1.771951
2.310	3.495391	-4.701235	624.432183	-10.764647	-13.608119	1.175409	2.179279	-1.723910
2.320	3.439335	-4.324291	624.534591	-10.490142	-13.585211	1.187539	2.175254	-1.679673
