Time[s]	Fx[N]	Fy[N]	Fz[N]	Mx[Nm]	My[Nm]	Mz[Nm]	COPx[cm]	COPy[cm]
0.010	0.228970	1.451229	509.149619	2.282474	9.421351	-0.386746	-1.850409	0.448291
0.020	0.739949	1.197228	508.048407	2.086677	9.104200	-0.339692	-1.791995	0.410724
0.030	1.199555	0.941529	506.904124	1.888152	8.782152	-0.293990	-1.732507	0.372487
0.040	1.569135	0.685538	505.683913	1.685532	8.453160	-0.250869	-1.671629	0.333317
0.050	1.833937	0.435236	504.381753	1.479856	8.118518	-0.211416	-1.609598	0.293400
0.060	2.005260	0.201099	503.026910	1.274463	7.782339	-0.176484	-1.547102	0.253359
0.070	2.114648	-0.004698	501.682193	1.073907	7.449997	-0.146612	-1.485003	0.214061
0.080	2.202441	-0.173103	500.429341	0.882401	7.126565	-0.121987	-1.424090	0.176329
0.090	2.304829	-0.302836	499.345806	0.702485	6.816014	-0.102474	-1.364989	0.140681
0.100	2.444029	-0.402369	498.483196	0.534372	6.521312	-0.087642	-1.308231	0.107200
0.110	2.624783	-0.487906	497.857004	0.376086	6.245064	-0.076734	-1.254389	0.075541
0.120	2.837306	-0.577989	497.450095	0.224084	5.990196	-0.068603	-1.204180	0.045046
0.130	3.063713	-0.687028	497.224641	0.073932	5.760375	-0.061720	-1.158506	0.014869
0.140	3.283846	-0.820660	497.134022	-0.079273	5.560099	-0.054318	-1.118431	-0.015946
0.150	3.478161	-0.974848	497.129275	-0.240670	5.394550	-0.044665	-1.085140	-0.048412
0.160	3.628132	-1.138686	497.161149	-0.415195	5.269254	-0.031370	-1.059868	-0.083513
0.170	3.716370	-1.299267	497.183942	-0.606611	5.189499	-0.013644	-1.043779	-0.122009
0.180	3.728161	-1.446333	497.166244	-0.816157	5.159421	0.008509	-1.037766	-0.164162
0.190	3.654453	-1.574888	497.106660	-1.041507	5.180846	0.034187	-1.042200	-0.209514
0.200	3.494744	-1.685070	497.045589	-1.276726	5.252222	0.061607	-1.056688	-0.256863
0.210	3.258185	-1.780003	497.063639	-1.513372	5.368052	0.088270	-1.079953	-0.304462
0.220	2.962227	-1.863285	497.264114	-1.742290	5.519116	0.111336	-1.109896	-0.350375
0.230	2.629361	-1.937671	497.745641	-1.955436	5.693483	0.128155	-1.143854	-0.392858
0.240	2.283299	-2.005245	498.575406	-2.147223	5.877994	0.136860	-1.178958	-0.430672
0.250	1.945962	-2.067968	499.772050	-2.315124	6.059763	0.136815	-1.212505	-0.463236
0.260	1.636060	-2.127360	501.302201	-2.459495	6.227351	0.128785	-1.242235	-0.490621
0.270	1.368980	-2.183299	503.088644	-2.582747	6.371471	0.114710	-1.266471	-0.513378
0.280	1.157129	-2.233345	505.024011	-2.688224	6.485249	0.097128	-1.284147	-0.532296
0.290	1.010061	-2.273825	506.983810	-2.779151	6.564144	0.078418	-1.294744	-0.548174
0.300	0.934325	-2.302386	508.836492	-2.857953	6.605696	0.060165	-1.298196	-0.561664
0.310	0.933240	-2.320231	510.452540	-2.925979	6.609171	0.042882	-1.294767	-0.573213
0.320	1.006649	-2.332261	511.715446	-2.983560	6.575091	0.026218	-1.284912	-0.583051
0.330	1.150691	-2.344788	512.534228	-3.030322	6.504661	0.009527	-1.269117	-0.591243
0.340	1.357770	-2.362184	512.853613	-3.065687	6.399239	-0.007495	-1.247771	-0.597770
0.350	1.616844	-2.384463	512.657807	-3.089503	6.260146	-0.024480	-1.221116	-0.602644
0.360	1.913835	-2.407113	511.966856	-3.102555	6.089020	-0.040541	-1.189339	-0.606007
0.370	2.231933	-2.423273	510.828031	-3.106627	5.888733	-0.054806	-1.152782	-0.608155
0.380	2.551956	-2.427209	509.306064	-3.103880	5.664494	-0.066988	-1.112198	-0.609433
0.390	2.853347	-2.417340	507.475546	-3.095671	5.424547	-0.077645	-1.068928	-0.610014
0.400	3.116191	-2.397183	505.417767	-3.081373	5.179894	-0.087983	-1.024874	-0.609669
0.410	3.324098	-2.373613	503.222855	-3.057897	4.942886	-0.099327	-0.982246	-0.607663
0.420	3.467296	-2.353213	500.995412	-3.020358	4.725033	-0.112530	-0.943129	-0.602871
0.430	3.544961	-2.338368	498.858595	-2.963756	4.534807	-0.127642	-0.909037	-0.594107
0.440	3.565844	-2.324745	496.950502	-2.884983	4.376372	-0.143983	-0.880645	-0.580537
0.450	3.546678	-2.301374	495.409674	-2.784314	4.249780	-0.160549	-0.857831	-0.562023
0.460	3.508444	-2.253785	494.351772	-2.665833	4.152548	-0.176523	-0.839999	-0.539258
0.470	3.471009	-2.169485	493.844032	-2.536859	4.081936	-0.191636	-0.826564	-0.513696
0.480	3.447319	-2.043820	493.886393	-2.406812	4.037041	-0.206183	-0.817403	-0.487321
0.490	3.439152	-1.883667	494.407346	-2.285982	4.019929	-0.220711	-0.813080	-0.462368
0.500	3.436543	-1.707175	495.277658	-2.184437	4.035393	-0.235500	-0.814774	-0.441053
0.510	3.421497	-1.539533	496.338310	-2.111125	4.089435	-0.250049	-0.823921	-0.425340
0.520	3.374341	-1.406528	497.434094	-2.073017	4.187084	-0.262819	-0.841736	-0.416742
0.530	3.279683	-1.328373	498.443796	-2.074132	4.330382	-0.271424	-0.868780	-0.416121
0.540	3.129631	-1.315797	499.300695	-2.114600	4.517251	-0.273330	-0.904716	-0.423512
0.550	2.923884	-1.369110	500.000728	-2.190265	4.741436	-0.266907	-0.948286	-0.438052
0.560	2.667921	-1.479705	500.598051	-2.293470	4.993258	-0.252421	-0.997459	-0.458146
0.570	2.370936	-1.632769	501.188918	-2.415113	5.260738	-0.232449	-1.049652	-0.481877
0.580	2.044510	-1.810088	501.886329	-2.547255	5.530690	-0.211386	-1.101981	-0.507536
0.590	1.702263	-1.992603	502.790285	-2.684969	5.789602	-0.194120	-1.151494	-0.534014
0.600	1.360141	-2.163046	503.960428	-2.826424	6.024385	-0.184353	-1.195408	-0.560843
0.610	1.036641	-2.308702	505.398218	-2.971190	6.223108	-0.183299	-1.231328	-0.587891
0.620	0.752173	-2.423528	507.043889	-3.117807	6.375805	-0.189319	-1.257446	-0.614899
0.630	0.527186	-2.508410	508.788804	-3.262208	6.475168	-0.198667	-1.272663	-0.641171
0.640	0.379441	-2.568993	510.497630	-3.398012	6.516866	-0.206921	-1.276571	-0.665627
0.650	0.321418	-2.611882	512.030506	-3.518493	6.499360	-0.210447	-1.269331	-0.687165
0.660	0.358869	-2.641100	513.256859	-3.618937	6.423378	-0.207290	-1.251494	-0.705093
0.670	0.490942	-2.656778	514.059459	-3.698037	6.291494	-0.197336	-1.223885	-0.719379
0.680	0.711490	-2.656720	514.334628	-3.757724	6.108186	-0.181895	-1.187590	-0.730599
0.690	1.010545	-2.639715	513.996962	-3.801820	5.880315	-0.163002	-1.144037	-0.739658
0.700	1.374750	-2.608367	512.993567	-3.834296	5.617619	-0.142701	-1.095066	-0.747435
0.710	1.786167	-2.569655	511.326223	-3.857799	5.332584	-0.122493	-1.042893	-0.754469
0.720	2.220248	-2.532960	509.073249	-3.872723	5.039295	-0.103149	-0.989896	-0.760740
0.730	2.644977	-2.506742	506.399405	-3.876963	4.751337	-0.084923	-0.938259	-0.765594
0.740	3.023410	-2.495353	503.544833	-3.866467	4.479332	-0.068011	-0.889560	-0.767850
0.750	3.320576	-2.497167	500.791932	-3.836523	4.228959	-0.052923	-0.844454	-0.766091
0.760	3.513321	-2.504712	498.418325	-3.783451	4.000126	-0.040551	-0.802564	-0.759091
0.770	3.599524	-2.506982	496.649726	-3.706192	3.787567	-0.031899	-0.762623	-0.746239
0.780	3.602289	-2.493345	495.625852	-3.607355	3.582662	-0.027657	-0.722856	-0.727838
0.790	3.566279	-2.457715	495.386355	-3.493457	3.375995	-0.027868	-0.681487	-0.705198
0.800	3.546606	-2.401402	495.876081	-3.374160	3.160027	-0.031845	-0.637261	-0.680444
0.810	3.593890	-2.333409	496.963871	-3.260447	2.931229	-0.038360	-0.589827	-0.656073
0.820	3.740670	-2.267820	498.467597	-3.162029	2.691105	-0.045982	-0.539876	-0.634350
0.830	3.993647	-2.219125	500.179591	-3.084871	2.445769	-0.053417	-0.488978	-0.616753
0.840	4.333975	-2.197280	501.889396	-3.029822	2.204268	-0.059729	-0.439194	-0.603683
0.850	4.724741	-2.204344	503.403459	-2.992852	1.976357	-0.064359	-0.392599	-0.594523
0.860	5.122202	-2.233777	504.562534	-2.966675	1.770576	-0.066980	-0.350913	-0.587970
0.870	5.486520	-2.272465	505.256481	-2.943049	1.593232	-0.067375	-0.315331	-0.582486
0.880	5.788813	-2.304663	505.433854	-2.914962	1.448374	-0.065499	-0.286560	-0.576725
0.890	6.013412	-2.316329	505.102919	-2.878065	1.338441	-0.061715	-0.264984	-0.569798
0.900	6.156077	-2.298269	504.322955	-2.831077	1.265122	-0.056984	-0.250856	-0.561362
0.910	6.219858	-2.247280	503.188309	-2.775281	1.230044	-0.052807	-0.244450	-0.551539
0.920	6.210478	-2.165785	501.810207	-2.713538	1.235106	-0.050861	-0.246130	-0.540750
0.930	6.132765	-2.061109	500.301904	-2.649294	1.282365	-0.052462	-0.256318	-0.529539
0.940	5.989189	-1.945206	498.771288	-2.585862	1.373458	-0.058105	-0.275368	-0.518447
0.950	5.780831	-1.834418	497.321857	-2.526003	1.508666	-0.067277	-0.303358	-0.507921
0.960	5.510154	-1.747804	496.058986	-2.471732	1.685894	-0.078648	-0.339857	-0.498274
0.970	5.184184	-1.702928	495.095481	-2.424265	1.899984	-0.090480	-0.383761	-0.489656
0.980	4.816551	-1.709887	494.550183	-2.384025	2.142715	-0.101104	-0.433265	-0.482059
0.990	4.427376	-1.766329	494.535949	-2.350692	2.403587	-0.109317	-0.486029	-0.475333
1.000	4.040925	-1.856437	495.137951	-2.323375	2.671192	-0.114635	-0.539484	-0.469238
1.010	3.681874	-1.954857	496.387770	-2.301002	2.934719	-0.117357	-0.591215	-0.463549
1.020	3.371495	-2.034060	498.241012	-2.282733	3.185190	-0.118378	-0.639287	-0.458158
1.030	3.124828	-2.072383	500.565409	-2.268005	3.416301	-0.118816	-0.682488	-0.453089
1.040	2.949330	-2.060331	503.144429	-2.255960	3.624925	-0.119591	-0.720454	-0.448372
1.050	2.844905	-2.003383	505.699690	-2.244554	3.811328	-0.121185	-0.753674	-0.443851
1.060	2.804847	-1.920274	507.932804	-2.230007	3.978993	-0.123633	-0.783370	-0.439036
1.070	2.817032	-1.836861	509.581458	-2.207063	4.133831	-0.126714	-0.811221	-0.433113
1.080	2.865034	-1.777360	510.476000	-2.169955	4.282754	-0.130188	-0.838973	-0.425085
1.090	2.929433	-1.755890	510.577021	-2.113456	4.431887	-0.133965	-0.868015	-0.413935
1.100	2.989974	-1.771092	509.978004	-2.033371	4.584954	-0.138170	-0.899049	-0.398717
1.110	3.028831	-1.805357	508.870633	-1.926183	4.742376	-0.143140	-0.931941	-0.378521
1.120	3.034327	-1.828537	507.486564	-1.788214	4.901360	-0.149425	-0.965811	-0.352367
1.130	3.003779	-1.804735	506.038473	-1.615035	5.056911	-0.157790	-0.999314	-0.319153
1.140	2.944208	-1.700182	504.680376	-1.401696	5.203402	-0.169152	-1.031029	-0.277739
1.150	2.870242	-1.490347	503.495806	-1.143766	5.336275	-0.184335	-1.059845	-0.227165
1.160	2.799680	-1.164979	502.509887	-0.838804	5.453385	-0.203687	-1.085229	-0.166923
1.170	2.748399	-0.730444	501.713582	-0.487820	5.555662	-0.226753	-1.107337	-0.097231
1.180	2.726728	-0.209142	501.087089	-0.096378	5.646843	-0.252223	-1.126919	-0.019234
1.190	2.738411	0.363839	500.613602	0.325126	5.732404	-0.278226	-1.145076	0.064945
1.200	2.781516	0.946367	500.281927	0.762497	5.818135	-0.302815	-1.162971	0.152413
1.210	2.849698	1.496276	500.082615	1.200162	5.909072	-0.324387	-1.181619	0.239993
1.220	2.932875	1.978346	500.004254	1.624237	6.009174	-0.341936	-1.201825	0.324845
1.230	3.017704	2.369704	500.034439	2.024898	6.121489	-0.355131	-1.224214	0.404952
1.240	3.088921	2.662344	500.165563	2.396898	6.248197	-0.364286	-1.249226	0.479221
1.250	3.132019	2.861929	500.401249	2.737916	6.390091	-0.370196	-1.276993	0.547144
1.260	3.136606	2.982944	500.757553	3.045640	6.545749	-0.373842	-1.307169	0.608206
1.270	3.099012	3.041652	501.255798	3.315205	6.711046	-0.376041	-1.338847	0.661380
1.280	3.022964	3.049648	501.909395	3.538559	6.879583	-0.377131	-1.370682	0.705019
1.290	2.918267	3.011067	502.710958	3.706357	7.043985	-0.376787	-1.401200	0.737274
1.300	2.798428	2.924827	503.625456	3.811710	7.197540	-0.374050	-1.429145	0.756854
1.310	2.678128	2.790377	504.591020	3.853974	7.335506	-0.367642	-1.453753	0.763782
1.320	2.570782	2.613483	505.525159	3.840653	7.455723	-0.356523	-1.474847	0.759735
1.330	2.486233	2.408969	506.333357	3.786341	7.558546	-0.340445	-1.492800	0.747796
1.340	2.429200	2.199461	506.918754	3.709145	7.646248	-0.320251	-1.508377	0.731704
1.350	2.399402	2.011137	507.193416	3.626161	7.722110	-0.297762	-1.522518	0.714946
1.360	2.393369	1.868259	507.091911	3.549832	7.789552	-0.275313	-1.536122	0.700037
1.370	2.406612	1.788147	506.586205	3.486306	7.851665	-0.255153	-1.549917	0.688196
1.380	2.434567	1.778036	505.697819	3.435967	7.911300	-0.238964	-1.564432	0.679451
1.390	2.471845	1.834724	504.501093	3.395449	7.971475	-0.227631	-1.580071	0.673031
1.400	2.510880	1.946814	503.113293	3.360062	8.035694	-0.221268	-1.597194	0.667854
1.410	2.541532	2.097951	501.673040	3.325582	8.107982	-0.219347	-1.616188	0.662898
1.420	2.552414	2.269248	500.313928	3.288892	8.192645	-0.220838	-1.637501	0.657366
1.430	2.533481	2.440369	499.141880	3.247584	8.293874	-0.224372	-1.661627	0.650634
1.440	2.478575	2.590378	498.222826	3.199131	8.415264	-0.228429	-1.689056	0.642109
1.450	2.386763	2.699726	497.583650	3.140269	8.559392	-0.231539	-1.720192	0.631104
1.460	2.261982	2.753526	497.224325	3.066940	8.727551	-0.232424	-1.755254	0.616812
1.470	2.111429	2.744710	497.134026	2.974738	8.919763	-0.230113	-1.794237	0.598377
1.480	1.943530	2.675268	497.302164	2.859512	9.135045	-0.224036	-1.836920	0.575005
1.490	1.766181	2.554685	497.718965	2.717770	9.371873	-0.214167	-1.882965	0.546045
1.500	1.585426	2.396185	498.367215	2.546761	9.628630	-0.201186	-1.932035	0.511021
1.510	1.404568	2.212149	499.211694	2.344348	9.903856	-0.186581	-1.983899	0.469610
1.520	1.223860	2.010174	500.193234	2.108747	10.196141	-0.172530	-2.038440	0.421586
1.530	1.041018	1.791024	501.231231	1.838191	10.503655	-0.161524	-2.095571	0.366735
1.540	0.852636	1.549338	502.234605	1.530685	10.823515	-0.155810	-2.155072	0.304775
1.550	0.656179	1.276980	503.117908	1.184213	11.151407	-0.156890	-2.216460	0.235375
1.560	0.451869	0.967661	503.817250	0.797585	11.481854	-0.165266	-2.278972	0.158308
1.570	0.243665	0.620742	504.300798	0.371535	11.809134	-0.180505	-2.341684	0.073673
1.580	0.038781	0.242762	504.571103	-0.090656	12.128438	-0.201526	-2.403712	-0.017967
1.590	-0.154296	-0.153611	504.660240	-0.583558	12.436715	-0.226974	-2.464374	-0.115634
1.600	-0.328777	-0.552640	504.621155	-1.100984	12.732853	-0.255492	-2.523250	-0.218180
1.610	-0.482541	-0.939726	504.518172	-1.637855	13.017234	-0.285805	-2.580132	-0.324637
1.620	-0.619777	-1.305563	504.417690	-2.191708	13.290900	-0.316610	-2.634900	-0.434503
1.630	-0.750135	-1.648931	504.379179	-2.763065	13.554590	-0.346376	-2.687381	-0.547815
1.640	-0.885200	-1.977034	504.447239	-3.354198	13.807864	-0.373197	-2.737227	-0.664925
1.650	-1.033480	-2.302924	504.646038	-3.966520	14.048491	-0.394853	-2.783831	-0.786000
1.660	-1.195902	-2.640510	504.976815	-4.597624	14.272272	-0.409098	-2.826322	-0.910462
1.670	-1.363679	-2.998525	505.418318	-5.239294	14.473331	-0.414154	-2.863634	-1.036625
1.680	-1.519466	-3.375478	505.930333	-5.877478	14.644789	-0.409190	-2.894626	-1.161717
1.690	-1.641653	-3.757609	506.460681	-6.494345	14.779748	-0.394598	-2.918242	-1.282300
1.700	-1.710657	-4.121112	506.954948	-7.071646	14.872460	-0.371949	-2.933685	-1.394926
1.710	-1.715157	-4.438400	507.366749	-7.594084	14.919460	-0.343667	-2.940567	-1.496764
1.720	-1.655808	-4.686176	507.665734	-8.051516	14.920248	-0.312595	-2.938990	-1.585988
1.730	-1.544515	-4.851958	507.841022	-8.439521	14.877131	-0.281576	-2.929486	-1.661843
1.740	-1.399206	-4.936342	507.898742	-8.758604	14.794241	-0.253124	-2.912833	-1.724478
1.750	-1.236254	-4.950444	507.853909	-9.012683	14.676151	-0.229183	-2.889837	-1.774661
1.760	-1.063976	-4.910226	507.719183	-9.207409	14.526770	-0.210989	-2.861182	-1.813484
1.770	-0.880258	-4.830703	507.495517	-9.348595	14.348930	-0.199031	-2.827400	-1.842104
1.780	-0.675382	-4.722808	507.170484	-9.440920	14.144655	-0.193119	-2.788935	-1.861488
1.790	-0.438255	-4.594110	506.727428	-9.487067	13.915689	-0.192496	-2.746188	-1.872223
1.800	-0.162241	-4.452264	506.162885	-9.487555	13.663817	-0.195968	-2.699490	-1.874407
1.810	0.152636	-4.308346	505.503606	-9.441298	13.390867	-0.202079	-2.649015	-1.867701
1.820	0.501448	-4.177235	504.811652	-9.346671	13.098709	-0.209432	-2.594772	-1.851517
1.830	0.877448	-4.073909	504.169669	-9.202571	12.789630	-0.217162	-2.536771	-1.825292
1.840	1.273209	-4.006844	503.648690	-9.009146	12.467181	-0.225317	-2.475373	-1.788776
1.850	1.678542	-3.971376	503.272398	-8.768257	12.137265	-0.234865	-2.411669	-1.742249
1.860	2.076952	-3.946520	502.996552	-8.484049	11.808976	-0.247177	-2.347725	-1.686701
1.870	2.444078	-3.898123	502.716186	-8.163823	11.494693	-0.263246	-2.286517	-1.623943
1.880	2.750548	-3.788977	502.299512	-7.818923	11.209065	-0.283060	-2.231550	-1.556626
1.890	2.968826	-3.593172	501.634189	-7.464923	10.967032	-0.305431	-2.186261	-1.488121
1.900	3.081104	-3.308878	500.666374	-7.120478	10.781566	-0.328294	-2.153443	-1.422200
1.910	3.084497	-2.963231	499.417646	-6.804790	10.661911	-0.349275	-2.134869	-1.362545
1.920	2.991042	-2.606086	497.975872	-6.534398	10.612826	-0.366286	-2.131193	-1.312192
1.930	2.822360	-2.294742	496.467866	-6.320390	10.634783	-0.377966	-2.142089	-1.273071
1.940	2.601448	-2.076062	495.029246	-6.166906	10.724765	-0.383845	-2.166491	-1.245766
1.950	2.345461	-1.973197	493.786567	-6.071163	10.877215	-0.384250	-2.202817	-1.229511
1.960	2.062617	-1.981310	492.857420	-6.024709	11.084719	-0.380027	-2.249072	-1.222404
1.970	1.753994	-2.072397	492.360873	-6.015498	11.338166	-0.372266	-2.302816	-1.221766
1.980	1.418523	-2.205916	492.422675	-6.030314	11.626496	-0.362175	-2.361081	-1.224621
1.990	1.058430	-2.340839	493.163079	-6.057078	11.936536	-0.351124	-2.420403	-1.228210
2.000	0.682788	-2.445418	494.666774	-6.086619	12.253498	-0.340701	-2.477122	-1.230448
2.010	0.308130	-2.502556	496.946085	-6.113678	12.562275	-0.332580	-2.527895	-1.230250
2.020	-0.043514	-2.510507	499.913409	-6.137168	12.849035	-0.328136	-2.570252	-1.227646
2.030	-0.347769	-2.480205	503.375141	-6.159752	13.102380	-0.327965	-2.602906	-1.223690
2.040	-0.581036	-2.431109	507.050213	-6.186812	13.313631	-0.331584	-2.625703	-1.220158
2.050	-0.723303	-2.386832	510.607857	-6.224971	13.476402	-0.337479	-2.639286	-1.219129
2.060	-0.761054	-2.370759	513.715189	-6.280443	13.586070	-0.343506	-2.644670	-1.222553
2.070	-0.690347	-2.401373	516.085381	-6.357550	13.639620	-0.347437	-2.642900	-1.231880
2.080	-0.519195	-2.487445	517.518728	-6.457605	13.635903	-0.347446	-2.634862	-1.247801
2.090	-0.267842	-2.624399	517.930023	-6.578311	13.575963	-0.342400	-2.621196	-1.270116
2.100	0.033984	-2.793831	517.356449	-6.713788	13.463091	-0.331945	-2.602285	-1.297710
2.110	0.352525	-2.967513	515.942157	-6.855209	13.302540	-0.316454	-2.578301	-1.328678
2.120	0.656597	-3.115108	513.900711	-6.991832	13.101158	-0.296941	-2.549356	-1.360541
2.130	0.923230	-3.212743	511.464130	-7.112207	12.867270	-0.274977	-2.515772	-1.390558
2.140	1.140322	-3.249118	508.833315	-7.205436	12.610960	-0.252649	-2.478407	-1.416070
2.150	1.305246	-3.227089	506.145477	-7.262512	12.344520	-0.232493	-2.438927	-1.434866
2.160	1.420028	-3.160595	503.469146	-7.277675	12.082499	-0.217283	-2.399849	-1.445506
2.170	1.485657	-3.068329	500.827736	-7.249555	11.840886	-0.209602	-2.364263	-1.447515
2.180	1.498683	-2.966660	498.241005	-7.181613	11.635375	-0.211256	-2.335290	-1.441393
2.190	1.451936	-2.864570	495.765676	-7.081501	11.479104	-0.222775	-2.315429	-1.428397
2.200	1.338862	-2.762630	493.517299	-6.959214	11.380514	-0.243251	-2.306001	-1.410126
2.210	1.159157	-2.656037	491.665209	-6.824471	11.341887	-0.270578	-2.306831	-1.388032
2.220	0.922804	-2.539600	490.404340	-6.684179	11.359006	-0.301938	-2.316253	-1.362993
2.230	0.650286	-2.411467	489.914595	-6.540949	11.422078	-0.334315	-2.331443	-1.335120
2.240	0.368380	-2.273308	490.319335	-6.393288	11.517763	-0.364877	-2.349033	-1.303903
2.250	0.103023	-2.127134	491.652601	-6.237312	11.631748	-0.391224	-2.365847	-1.268642
2.260	-0.127785	-1.971341	493.842803	-6.069231	11.751193	-0.411580	-2.379541	-1.228980
2.270	-0.318101	-1.799241	496.718035	-5.887561	11.866423	-0.424983	-2.388966	-1.185292
2.280	-0.473726	-1.601798	500.033418	-5.694264	11.971378	-0.431466	-2.394116	-1.138777
2.290	-0.607867	-1.373631	503.514058	-5.494454	12.062636	-0.432105	-2.395690	-1.091222
2.300	-0.734476	-1.119202	506.901445	-5.294913	12.137276	-0.428824	-2.394406	-1.044565
2.310	-0.861369	-0.855671	509.989411	-5.102037	12.190373	-0.423971	-2.390319	-1.000420
2.320	-0.984897	-0.610313	512.639614	-4.919985	12.213128	-0.419806	-2.382400	-0.959736
2.330	-1.087620	-0.412945	514.774506	-4.749626	12.192496	-0.418054	-2.368512	-0.922661
2.340	-1.140108	-0.286398	516.354564	-4.588539	12.112725	-0.419587	-2.345815	-0.888641
2.350	-1.107284	-0.239019	517.352369	-4.432147	11.958640	-0.424239	-2.311508	-0.856698
