Time[s]	Fx[N]	Fy[N]	Fz[N]	Mx[Nm]	My[Nm]	Mz[Nm]	COPx[cm]	COPy[cm]
0.010	2.437747	-1.224308	630.583194	-3.257343	10.848273	0.038750	-1.720356	-0.516560
0.020	2.437751	-1.179011	629.895467	-3.193284	10.901960	0.028372	-1.730757	-0.506955
0.030	2.437346	-1.131459	629.262483	-3.129698	10.962722	0.018105	-1.742154	-0.497360
0.040	2.438512	-1.079253	628.731061	-3.067153	11.035799	0.008235	-1.755250	-0.487832
0.050	2.444341	-1.019649	628.333367	-3.006046	11.124317	-0.000899	-1.770448	-0.478416
0.060	2.457608	-0.950618	628.081955	-2.946690	11.229215	-0.009066	-1.787858	-0.469157
0.070	2.478251	-0.871940	627.968658	-2.889476	11.349963	-0.016363	-1.807409	-0.460131
0.080	2.500905	-0.785434	627.967504	-2.834974	11.485710	-0.023282	-1.829029	-0.451452
0.090	2.513983	-0.694309	628.041516	-2.783916	11.636294	-0.030561	-1.852791	-0.443269
0.100	2.501336	-0.602496	628.153258	-2.737170	11.802693	-0.038773	-1.878951	-0.435749
0.110	2.446534	-0.514775	628.277568	-2.695881	11.986726	-0.047889	-1.907871	-0.429091
0.120	2.338619	-0.437432	628.412234	-2.661675	12.190003	-0.057068	-1.939810	-0.423556
0.130	2.177413	-0.378300	628.581176	-2.636705	12.412409	-0.064831	-1.974671	-0.419469
0.140	1.976307	-0.345452	628.826973	-2.623372	12.650659	-0.069595	-2.011787	-0.417185
0.150	1.760939	-0.345011	629.194181	-2.623837	12.897664	-0.070296	-2.049870	-0.417015
0.160	1.563313	-0.379205	629.709100	-2.639584	13.143261	-0.066799	-2.087196	-0.419175
0.170	1.412533	-0.445476	630.363617	-2.671187	13.376319	-0.059910	-2.122001	-0.423753
0.180	1.325262	-0.536877	631.109562	-2.718264	13.587509	-0.051046	-2.152956	-0.430712
0.190	1.299959	-0.643624	631.866266	-2.779558	13.771641	-0.041766	-2.179518	-0.439897
0.200	1.317713	-0.755484	632.538922	-2.853211	13.928675	-0.033352	-2.202027	-0.451073
0.210	1.349422	-0.864481	633.041565	-2.937310	14.063190	-0.026562	-2.221527	-0.464000
0.220	1.366041	-0.967152	633.317590	-3.030617	14.182681	-0.021596	-2.239426	-0.478530
0.230	1.347476	-1.065453	633.352184	-3.133084	14.295339	-0.018272	-2.257092	-0.494683
0.240	1.287121	-1.165649	633.173255	-3.245721	14.407908	-0.016355	-2.275508	-0.512612
0.250	1.191672	-1.275428	632.840794	-3.369746	14.524135	-0.015895	-2.295069	-0.532479
0.260	1.077883	-1.400457	632.428921	-3.505451	14.644155	-0.017391	-2.315542	-0.554284
0.270	0.968160	-1.541931	632.007883	-3.651552	14.764819	-0.021669	-2.336176	-0.577770
0.280	0.886024	-1.696050	631.632078	-3.805552	14.880786	-0.029488	-2.355926	-0.602495
0.290	0.851579	-1.855442	631.335590	-3.965170	14.986091	-0.041026	-2.373712	-0.628061
0.300	0.877051	-2.012103	631.132463	-4.130394	15.075982	-0.055496	-2.388719	-0.654442
0.310	0.963060	-2.161217	631.018396	-4.305378	15.148566	-0.071158	-2.400654	-0.682290
0.320	1.097112	-2.304884	630.973321	-4.499236	15.205639	-0.085790	-2.409870	-0.713063
0.330	1.255921	-2.454108	630.966799	-4.724820	15.252150	-0.097457	-2.417267	-0.748822
0.340	1.411754	-2.627305	630.967404	-4.995319	15.294377	-0.105204	-2.423957	-0.791692
0.350	1.540787	-2.844678	630.953732	-5.319555	15.337533	-0.109344	-2.430849	-0.843098
0.360	1.630009	-3.119808	630.921645	-5.697698	15.383871	-0.111207	-2.438317	-0.903075
0.370	1.679867	-3.451557	630.882855	-6.119140	15.432093	-0.112496	-2.446111	-0.969933
0.380	1.701939	-3.819746	630.854576	-6.563428	15.478285	-0.114599	-2.453543	-1.040403
0.390	1.713214	-4.186825	630.845932	-7.004041	15.517874	-0.118158	-2.459852	-1.110262
0.400	1.729774	-4.505624	630.849328	-7.413890	15.547601	-0.123019	-2.464551	-1.175224
0.410	1.762430	-4.730879	630.842132	-7.770956	15.566649	-0.128413	-2.467598	-1.231838
0.420	1.815324	-4.830889	630.797791	-8.062545	15.576586	-0.133210	-2.469347	-1.278150
0.430	1.886757	-4.795792	630.699877	-8.287046	15.580440	-0.136136	-2.470341	-1.313944
0.440	1.970828	-4.640465	630.550864	-8.452907	15.581500	-0.135950	-2.471093	-1.340559
0.450	2.059055	-4.401788	630.370923	-8.575342	15.582429	-0.131601	-2.471946	-1.360365
0.460	2.142115	-4.131293	630.188467	-8.671966	15.584933	-0.122357	-2.473059	-1.376091
0.470	2.211953	-3.884938	630.028771	-8.758678	15.589952	-0.107826	-2.474483	-1.390203
0.480	2.263950	-3.712127	629.906653	-8.846842	15.598101	-0.087870	-2.476256	-1.404469
0.490	2.298202	-3.646293	629.825104	-8.942117	15.610082	-0.062468	-2.478479	-1.419778
0.500	2.319066	-3.699105	629.778014	-9.044794	15.626928	-0.031668	-2.481339	-1.436188
0.510	2.332836	-3.859689	629.754398	-9.151188	15.649999	0.004252	-2.485096	-1.453136
0.520	2.344476	-4.099052	629.742732	-9.255583	15.680744	0.044489	-2.490024	-1.469740
0.530	2.354796	-4.378378	629.734529	-9.352180	15.720275	0.087458	-2.496334	-1.485099
0.540	2.359229	-4.658464	629.725999	-9.436581	15.768904	0.130811	-2.504090	-1.498522
0.550	2.348653	-4.907205	629.717277	-9.506427	15.825889	0.171703	-2.513174	-1.509634
0.560	2.311929	-5.103173	629.710421	-9.561126	15.889524	0.207224	-2.523307	-1.518337
0.570	2.239365	-5.235260	629.708245	-9.600937	15.957529	0.234842	-2.534115	-1.524664
0.580	2.126088	-5.299929	629.715022	-9.625888	16.027608	0.252773	-2.545216	-1.528610
0.590	1.974373	-5.298110	629.738145	-9.635064	16.097975	0.260228	-2.556297	-1.530011
0.600	1.794291	-5.233291	629.788661	-9.626582	16.167653	0.257476	-2.567155	-1.528542
0.610	1.602444	-5.111264	629.879320	-9.598324	16.236425	0.245737	-2.577704	-1.523835
0.620	1.418886	-4.940969	630.021136	-9.549119	16.304439	0.226973	-2.587919	-1.515682
0.630	1.262849	-4.735314	630.220681	-9.479875	16.371581	0.203640	-2.597754	-1.504215
0.640	1.148481	-4.511008	630.478954	-9.394091	16.436842	0.178384	-2.607041	-1.489993
0.650	1.082140	-4.286914	630.790493	-9.297497	16.497881	0.153700	-2.615430	-1.473944
0.660	1.062162	-4.081224	631.141405	-9.196868	16.551041	0.131602	-2.622398	-1.457180
0.670	1.080891	-3.908505	631.507237	-9.098480	16.591949	0.113373	-2.627357	-1.440756
0.680	1.127675	-3.777805	631.853323	-9.006840	16.616684	0.099486	-2.629833	-1.425464
0.690	1.191332	-3.692422	632.139470	-8.924233	16.623160	0.089685	-2.629666	-1.411751
0.700	1.261248	-3.650957	632.328324	-8.851214	16.612102	0.083187	-2.627132	-1.399781
0.710	1.327603	-3.648721	632.394878	-8.787764	16.587004	0.078909	-2.622887	-1.389601
0.720	1.382000	-3.678814	632.334308	-8.734624	16.552915	0.075661	-2.617747	-1.381330
0.730	1.419267	-3.732789	632.166002	-8.694363	16.514519	0.072326	-2.612371	-1.375329
0.740	1.439681	-3.801347	631.932165	-8.671702	16.474307	0.068028	-2.606974	-1.372252
0.750	1.449996	-3.875542	631.689880	-8.672812	16.431575	0.062315	-2.601209	-1.372954
0.760	1.462191	-3.948444	631.497188	-8.703603	16.382725	0.055267	-2.594267	-1.378249
0.770	1.490173	-4.016499	631.396591	-8.767553	16.322834	0.047466	-2.585195	-1.388597
0.780	1.545675	-4.079679	631.401543	-8.863934	16.247899	0.039779	-2.573307	-1.403851
0.790	1.634801	-4.140197	631.491396	-8.987212	16.156724	0.032992	-2.558503	-1.423173
0.800	1.756238	-4.200595	631.617731	-9.127963	16.051571	0.027491	-2.541343	-1.445172
0.810	1.901596	-4.262375	631.720568	-9.274992	15.937318	0.023190	-2.522843	-1.468211
0.820	2.057661	-4.325827	631.748023	-9.417848	15.819594	0.019750	-2.504099	-1.490760
0.830	2.209719	-4.390801	631.670430	-9.548797	15.702833	0.016882	-2.485922	-1.511674
0.840	2.344775	-4.457525	631.482856	-9.663574	15.589135	0.014495	-2.468655	-1.530299
0.850	2.453867	-4.526642	631.197412	-9.760840	15.478398	0.012618	-2.452228	-1.546400
0.860	2.533329	-4.598182	630.833031	-9.840843	15.369556	0.011220	-2.436390	-1.559976
0.870	2.585203	-4.670078	630.410133	-9.904111	15.262154	0.010062	-2.420988	-1.571058
0.880	2.616776	-4.737360	629.951881	-9.950827	15.157378	0.008719	-2.406117	-1.579617
0.890	2.639071	-4.792921	629.488287	-9.981046	15.057968	0.006745	-2.392097	-1.585581
0.900	2.664417	-4.829868	629.058313	-9.995335	14.967150	0.003896	-2.379295	-1.588936
0.910	2.703613	-4.844330	628.707285	-9.995266	14.887215	0.000235	-2.367909	-1.589812
0.920	2.763362	-4.837040	628.479522	-9.983376	14.818506	-0.003950	-2.357834	-1.588497
0.930	2.844488	-4.812580	628.408042	-9.962530	14.759286	-0.008341	-2.348679	-1.585360
0.940	2.941371	-4.776566	628.504384	-9.934930	14.706533	-0.012754	-2.339925	-1.580726
0.950	3.042907	-4.732336	628.752096	-9.901228	14.657256	-0.017205	-2.331166	-1.574743
0.960	3.135037	-4.678915	629.107219	-9.860275	14.609711	-0.021820	-2.322293	-1.567344
0.970	3.204371	-4.611286	629.507420	-9.809709	14.563963	-0.026651	-2.313549	-1.558315
0.980	3.241867	-4.522777	629.888032	-9.747097	14.521528	-0.031464	-2.305414	-1.547433
0.990	3.245444	-4.408367	630.199502	-9.670966	14.484235	-0.035645	-2.298357	-1.534588
1.000	3.220804	-4.267214	630.419422	-9.581117	14.452854	-0.038273	-2.292578	-1.519800
1.010	3.180214	-4.103146	630.554625	-9.478109	14.426213	-0.038344	-2.287861	-1.503138
1.020	3.139458	-3.922900	630.633427	-9.362399	14.401368	-0.035045	-2.283635	-1.484602
1.030	3.113634	-3.733227	630.692069	-9.233827	14.374760	-0.028006	-2.279204	-1.464079
1.040	3.112920	-3.538584	630.761054	-9.091878	14.343746	-0.017463	-2.274038	-1.441414
1.050	3.139590	-3.340768	630.856175	-8.936559	14.307703	-0.004266	-2.267982	-1.416576
1.060	3.187345	-3.140520	630.976311	-8.769374	14.268200	0.010276	-2.261289	-1.389810
1.070	3.243357	-2.939833	631.106627	-8.593775	14.228265	0.024692	-2.254495	-1.361699
1.080	3.292482	-2.743316	631.223760	-8.414811	14.191191	0.037693	-2.248203	-1.333095
1.090	3.322167	-2.557780	631.300214	-8.238030	14.159545	0.048489	-2.242918	-1.304931
1.100	3.326069	-2.390505	631.307577	-8.068069	14.134737	0.056920	-2.238962	-1.277993
1.110	3.304878	-2.247146	631.220372	-7.907496	14.117134	0.063351	-2.236483	-1.252731
1.120	3.264203	-2.129849	631.022368	-7.756402	14.106371	0.068348	-2.235479	-1.229180
1.130	3.210992	-2.035594	630.714792	-7.612894	14.101616	0.072267	-2.235815	-1.207026
1.140	3.150553	-1.955174	630.322702	-7.474250	14.101730	0.074963	-2.237224	-1.185782
1.150	3.085581	-1.873926	629.894490	-7.338223	14.105410	0.075722	-2.239329	-1.164992
1.160	3.017244	-1.775193	629.492060	-7.204015	14.111391	0.073447	-2.241711	-1.144417
1.170	2.947288	-1.646057	629.174530	-7.072708	14.118693	0.067021	-2.244003	-1.124125
1.180	2.879558	-1.483208	628.982739	-6.947195	14.126790	0.055749	-2.245974	-1.104513
1.190	2.819787	-1.296265	628.931334	-6.831837	14.135567	0.039744	-2.247553	-1.086261
1.200	2.773680	-1.106751	629.010301	-6.732024	14.145055	0.020159	-2.248780	-1.070257
1.210	2.744445	-0.942673	629.192697	-6.653593	14.155195	-0.000853	-2.249739	-1.057481
1.220	2.731189	-0.830580	629.443923	-6.601922	14.165832	-0.020503	-2.250531	-1.048850
1.230	2.728958	-0.788195	629.729869	-6.580765	14.176983	-0.036017	-2.251280	-1.045014
1.240	2.730397	-0.820473	630.023643	-6.591294	14.189141	-0.045389	-2.252160	-1.046198
1.250	2.728372	-0.920072	630.310476	-6.631869	14.203301	-0.047993	-2.253382	-1.052159
1.260	2.718549	-1.071065	630.588588	-6.698641	14.220573	-0.044776	-2.255127	-1.062284
1.270	2.700997	-1.253653	630.863629	-6.786469	14.241528	-0.037898	-2.257465	-1.075743
1.280	2.680221	-1.448091	631.137906	-6.889575	14.265680	-0.029963	-2.260311	-1.091612
1.290	2.663560	-1.636950	631.400635	-7.001763	14.291461	-0.023179	-2.263454	-1.108926
1.300	2.658431	-1.805707	631.626198	-7.116603	14.316708	-0.018815	-2.266642	-1.126711
1.310	2.669374	-1.942227	631.781910	-7.227901	14.339401	-0.017105	-2.269676	-1.144050
1.320	2.696021	-2.036234	631.840026	-7.330403	14.358280	-0.017476	-2.272455	-1.160167
1.330	2.732765	-2.079998	631.786813	-7.420324	14.373131	-0.018914	-2.274997	-1.174498
1.340	2.770187	-2.070556	631.625205	-7.495446	14.384649	-0.020348	-2.277403	-1.186692
1.350	2.797652	-2.012511	631.372597	-7.554864	14.393950	-0.021013	-2.279787	-1.196578
1.360	2.806149	-1.919629	631.057336	-7.598694	14.402027	-0.020722	-2.282206	-1.204121
1.370	2.790622	-1.813726	630.715686	-7.627930	14.409511	-0.019881	-2.284629	-1.209409
1.380	2.751367	-1.720468	630.388487	-7.644557	14.416812	-0.019206	-2.286973	-1.212674
1.390	2.694329	-1.663195	630.116288	-7.651854	14.424325	-0.019265	-2.289153	-1.214356
1.400	2.630127	-1.656910	629.933309	-7.654638	14.432313	-0.020126	-2.291086	-1.215151
1.410	2.571736	-1.704612	629.861712	-7.659123	14.440416	-0.021345	-2.292633	-1.216001
1.420	2.531075	-1.797194	629.907559	-7.672137	14.447114	-0.022255	-2.293529	-1.217978
1.430	2.515283	-1.916780	630.059471	-7.699813	14.449603	-0.022375	-2.293371	-1.222077
1.440	2.523915	-2.042226	630.291330	-7.746174	14.444342	-0.021672	-2.291693	-1.228983
1.450	2.548475	-2.155007	630.569916	-7.812199	14.428128	-0.020561	-2.288109	-1.238911
1.460	2.575100	-2.243709	630.865556	-7.895786	14.399218	-0.019655	-2.282454	-1.251580
1.470	2.589802	-2.305834	631.160471	-7.992607	14.357931	-0.019398	-2.274846	-1.266335
1.480	2.584060	-2.346528	631.449623	-8.097408	14.306447	-0.019832	-2.265651	-1.282352
1.490	2.558061	-2.374951	631.733405	-8.205215	14.247944	-0.020629	-2.255373	-1.298841
1.500	2.519983	-2.399807	632.006973	-8.312164	14.185401	-0.021348	-2.244501	-1.315201
1.510	2.481913	-2.425698	632.253123	-8.415920	14.120517	-0.021675	-2.233365	-1.331100
1.520	2.454609	-2.451608	632.443251	-8.515708	14.053132	-0.021502	-2.222038	-1.346478
1.530	2.443613	-2.472072	632.545766	-8.612025	13.981403	-0.020799	-2.210339	-1.361486
1.540	2.448287	-2.480523	632.537074	-8.706116	13.902707	-0.019435	-2.197928	-1.376380
1.550	2.463833	-2.473188	632.409773	-8.799359	13.814937	-0.017075	-2.184491	-1.391402
1.560	2.485012	-2.451633	632.175487	-8.892660	13.717623	-0.013226	-2.169907	-1.406676
1.570	2.509526	-2.422808	631.862389	-8.986010	13.612303	-0.007415	-2.154314	-1.422147
1.580	2.539294	-2.396805	631.508506	-9.078378	13.501972	0.000601	-2.138051	-1.437570
1.590	2.579032	-2.383669	631.152541	-9.167996	13.389952	0.010659	-2.121508	-1.452580
1.600	2.633079	-2.390673	630.824827	-9.252899	13.278865	0.022121	-2.105000	-1.466794
1.610	2.702439	-2.420717	630.541196	-9.331619	13.170211	0.033928	-2.088715	-1.479938
1.620	2.783803	-2.471606	630.301769	-9.403941	13.064595	0.044848	-2.072752	-1.491974
1.630	2.870926	-2.536006	630.095504	-9.471577	12.962257	0.053873	-2.057189	-1.503197
1.640	2.957169	-2.602434	629.909590	-9.538400	12.863504	0.060651	-2.042119	-1.514249
1.650	3.037455	-2.657834	629.740182	-9.609821	12.768818	0.065734	-2.027633	-1.525998
1.660	3.108706	-2.691461	629.598897	-9.691229	12.678664	0.070471	-2.013769	-1.539270
1.670	3.169192	-2.698613	629.510476	-9.786008	12.593229	0.076529	-2.000480	-1.554543
1.680	3.217729	-2.682404	629.501529	-9.894176	12.512253	0.085277	-1.987645	-1.571748
1.690	3.253331	-2.652696	629.585856	-10.012445	12.435081	0.097317	-1.975121	-1.590322
1.700	3.275341	-2.622818	629.754460	-10.135711	12.360936	0.112348	-1.962818	-1.609470
1.710	3.283976	-2.605555	629.975889	-10.259079	12.289338	0.129353	-1.950763	-1.628488
1.720	3.281063	-2.609706	630.206969	-10.379373	12.220437	0.146923	-1.939115	-1.646979
1.730	3.270460	-2.637923	630.408587	-10.495535	12.155059	0.163564	-1.928124	-1.664878
1.740	3.257488	-2.686289	630.558591	-10.608012	12.094334	0.177893	-1.918035	-1.682320
1.750	3.247253	-2.745759	630.655575	-10.717689	12.039058	0.188738	-1.908975	-1.699452
1.760	3.242720	-2.805091	630.712590	-10.824944	11.989150	0.195215	-1.900890	-1.716304
1.770	3.243642	-2.854243	630.745194	-10.929151	11.943578	0.196851	-1.893566	-1.732736
1.780	3.246828	-2.886959	630.760496	-11.028676	11.900911	0.193705	-1.886756	-1.748473
1.790	3.247212	-2.901633	630.752281	-11.121298	11.860237	0.186417	-1.880332	-1.763180
1.800	3.239015	-2.900218	630.703372	-11.204926	11.821932	0.176049	-1.874404	-1.776576
1.810	3.216728	-2.885800	630.593018	-11.278429	11.787827	0.163751	-1.869324	-1.788543
1.820	3.176190	-2.860008	630.406434	-11.342177	11.760620	0.150342	-1.865562	-1.799185
1.830	3.115856	-2.821477	630.144373	-11.397909	11.742841	0.135972	-1.863516	-1.808777
1.840	3.037841	-2.766191	629.830474	-11.447938	11.735879	0.120036	-1.863339	-1.817622
1.850	2.947995	-2.689778	629.513663	-11.494331	11.739470	0.101477	-1.864848	-1.825907
1.860	2.854527	-2.590943	629.263577	-11.538872	11.751746	0.079369	-1.867539	-1.833710
1.870	2.765532	-2.474527	629.158789	-11.584105	11.769692	0.053559	-1.870703	-1.841205
1.880	2.686566	-2.352641	629.269461	-11.634899	11.789712	0.025031	-1.873555	-1.848953
1.890	2.619525	-2.243264	629.637915	-11.699426	11.808034	-0.004121	-1.875369	-1.858120
1.900	2.563287	-2.166936	630.262310	-11.788643	11.820958	-0.031098	-1.875562	-1.870434
1.910	2.515450	-2.142873	631.089580	-11.914193	11.825106	-0.052965	-1.873760	-1.887877
1.920	2.473934	-2.185728	632.022493	-12.085583	11.817819	-0.067189	-1.869842	-1.912208
1.930	2.437565	-2.303772	632.941228	-12.307929	11.797654	-0.071963	-1.863941	-1.944561
1.940	2.405463	-2.498726	633.733152	-12.581121	11.764651	-0.066318	-1.856405	-1.985240
1.950	2.375822	-2.767024	634.319403	-12.900515	11.720070	-0.050118	-1.847661	-2.033757
1.960	2.345179	-3.101895	634.667774	-13.258660	11.665503	-0.024060	-1.838049	-2.089071
1.970	2.309191	-3.495406	634.788354	-13.647289	11.601707	0.010310	-1.827650	-2.149896
1.980	2.264997	-3.939526	634.716646	-14.058690	11.527748	0.050678	-1.816204	-2.214955
1.990	2.214026	-4.425580	634.493328	-14.485927	11.440927	0.094211	-1.803160	-2.283070
2.000	2.163547	-4.942283	634.149067	-14.921975	11.337673	0.138015	-1.787856	-2.353071
2.010	2.125768	-5.473417	633.698600	-15.358563	11.215112	0.179681	-1.769786	-2.423638
2.020	2.114564	-5.996641	633.143339	-15.785652	11.072723	0.217708	-1.748849	-2.493219
2.030	2.141106	-6.484502	632.478431	-16.192058	10.913368	0.251572	-1.725492	-2.560096
2.040	2.210260	-6.907849	631.700217	-16.566881	10.743293	0.281337	-1.700695	-2.622586
2.050	2.319247	-7.240849	630.812519	-16.900978	10.571075	0.306977	-1.675787	-2.679239
2.060	2.458844	-7.466113	629.832134	-17.187793	10.405893	0.327822	-1.652169	-2.728948
2.070	2.616222	-7.578369	628.793531	-17.423482	10.255692	0.342472	-1.631011	-2.770939
2.080	2.777996	-7.585542	627.751208	-17.606804	10.125804	0.349246	-1.613028	-2.804742
2.090	2.932600	-7.506920	626.777607	-17.739227	10.018414	0.346919	-1.598400	-2.830227
2.100	3.071904	-7.369044	625.955323	-17.825225	9.932942	0.335349	-1.586845	-2.847683
2.110	3.192337	-7.200626	625.364412	-17.872266	9.867064	0.315769	-1.577810	-2.857896
2.120	3.295340	-7.027831	625.068095	-17.890021	9.817905	0.290639	-1.570694	-2.862092
2.130	3.386625	-6.870802	625.101838	-17.888756	9.782853	0.263139	-1.565002	-2.861735
2.140	3.473775	-6.741818	625.469439	-17.877400	9.759765	0.236441	-1.560390	-2.858237
2.150	3.562490	-6.645067	626.145695	-17.862032	9.746669	0.212967	-1.556614	-2.852696
2.160	3.652627	-6.577730	627.082182	-17.845397	9.741384	0.193862	-1.553446	-2.845783
2.170	3.735732	-6.531817	628.213511	-17.827572	9.741334	0.178806	-1.550641	-2.837821
2.180	3.795642	-6.496252	629.464365	-17.807314	9.743590	0.166238	-1.547918	-2.828963
2.190	3.812841	-6.458945	630.758571	-17.783235	9.744957	0.153996	-1.544958	-2.819341
2.200	3.771671	-6.408887	632.028908	-17.754217	9.742018	0.140246	-1.541388	-2.809083
2.210	3.667746	-6.338339	633.223100	-17.719084	9.731199	0.124405	-1.536773	-2.798237
2.220	3.512202	-6.244915	634.302040	-17.676141	9.709012	0.107618	-1.530661	-2.786707
2.230	3.330422	-6.132932	635.231166	-17.623207	9.672528	0.092477	-1.522678	-2.774298
2.240	3.155221	-6.013304	635.970963	-17.558393	9.619837	0.082051	-1.512622	-2.760880
2.250	3.017084	-5.901624	636.473695	-17.481269	9.550207	0.078652	-1.500487	-2.746582
2.260	2.935526	-5.814729	636.689784	-17.393758	9.463842	0.082918	-1.486413	-2.731905
2.270	2.914929	-5.766459	636.581306	-17.300186	9.361436	0.093673	-1.470580	-2.717671
2.280	2.945923	-5.763531	636.135616	-17.206348	9.243897	0.108562	-1.453133	-2.704824
2.290	3.010935	-5.802591	635.372279	-17.117908	9.112476	0.125071	-1.434195	-2.694154
2.300	3.091137	-5.869543	634.341068	-17.038669	8.969289	0.141321	-1.413954	-2.686042
2.310	3.172132	-5.941927	633.114187	-16.969358	8.817874	0.156264	-1.392778	-2.680300
2.320	3.246762	-5.994222	631.777581	-16.907412	8.663364	0.169318	-1.371268	-2.676165
