Time[s]	Fx[N]	Fy[N]	Fz[N]	Mx[Nm]	My[Nm]	Mz[Nm]	COPx[cm]	COPy[cm]
0.010	16.889135	-0.955970	718.454564	-23.581564	-59.112694	0.644934	8.227757	-3.282262
0.020	17.228701	-1.741752	716.457826	-24.311748	-59.913081	0.647501	8.362402	-3.393326
0.030	17.572463	-2.517417	714.562804	-25.051081	-60.686736	0.647434	8.492849	-3.505791
0.040	17.919529	-3.268837	712.852379	-25.804622	-61.408992	0.642819	8.614545	-3.619911
0.050	18.260134	-3.979812	711.368604	-26.570877	-62.058109	0.632700	8.723763	-3.735177
0.060	18.578353	-4.634289	710.107381	-27.340864	-62.616100	0.617097	8.817835	-3.850244
0.070	18.857193	-5.220217	709.025596	-28.099104	-63.068658	0.596555	8.895117	-3.963059
0.080	19.082256	-5.733649	708.057644	-28.826122	-63.404615	0.571365	8.954725	-4.071155
0.090	19.241523	-6.181044	707.138084	-29.501585	-63.615730	0.540875	8.996225	-4.171969
0.100	19.321865	-6.577936	706.226560	-30.107205	-63.697373	0.503336	9.019396	-4.263109
0.110	19.305667	-6.943400	705.329556	-30.628867	-63.649968	0.456481	9.024146	-4.342490
0.120	19.171348	-7.291613	704.512293	-31.058024	-63.480421	0.398684	9.010548	-4.408443
0.130	18.899216	-7.623331	703.894960	-31.392623	-63.202538	0.330228	8.978973	-4.459845
0.140	18.480548	-7.920799	703.631429	-31.637575	-62.835840	0.254098	8.930221	-4.496328
0.150	17.925562	-8.148856	703.873943	-31.804408	-62.402855	0.175865	8.865629	-4.518481
0.160	17.266483	-8.263119	704.731598	-31.909799	-61.925669	0.102641	8.787128	-4.527936
0.170	16.554308	-8.223606	706.232557	-31.973181	-61.422688	0.041493	8.697233	-4.527288
0.180	15.850099	-8.010026	708.300529	-32.014041	-60.906371	-0.002177	8.598945	-4.519839
0.190	15.212625	-7.634015	710.754723	-32.049510	-60.382329	-0.025899	8.495523	-4.509222
0.200	14.684724	-7.144037	713.337756	-32.092586	-59.849756	-0.030772	8.390101	-4.498933
0.210	14.281728	-6.620067	715.767452	-32.151110	-59.302777	-0.021254	8.285202	-4.491837
0.220	13.986037	-6.157297	717.799196	-32.227524	-58.732025	-0.003983	8.182236	-4.489769
0.230	13.750630	-5.841396	719.279654	-32.319410	-58.125733	0.014095	8.081103	-4.493302
0.240	13.510716	-5.721977	720.173865	-32.420864	-57.470212	0.027630	7.980047	-4.501811
0.250	13.198941	-5.794195	720.557212	-32.524812	-56.750498	0.033983	7.875918	-4.513842
0.260	12.758882	-5.998044	720.577858	-32.626270	-55.952686	0.033117	7.764974	-4.527792
0.270	12.154329	-6.239061	720.406318	-32.725915	-55.068838	0.026478	7.644136	-4.542702
0.280	11.375105	-6.424412	720.190794	-32.832564	-54.103442	0.015650	7.512376	-4.558870
0.290	10.440381	-6.499862	720.030498	-32.962882	-53.078428	0.001539	7.371692	-4.577984
0.300	9.397968	-6.471639	719.969546	-33.137582	-52.033536	-0.015726	7.227186	-4.602637
0.310	8.317012	-6.403966	720.006290	-33.375046	-51.020779	-0.036464	7.086157	-4.635383
0.320	7.274435	-6.393930	720.109760	-33.684710	-50.094705	-0.061150	6.956537	-4.677719
0.330	6.340058	-6.534568	720.235919	-34.062685	-49.302179	-0.090330	6.845282	-4.729379
0.340	5.566717	-6.880485	720.339933	-34.491076	-48.675302	-0.124600	6.757268	-4.788167
0.350	4.988307	-7.427657	720.384441	-34.940830	-48.229215	-0.164440	6.694927	-4.850303
0.360	4.623581	-8.112602	720.346037	-35.376728	-47.964003	-0.209860	6.658467	-4.911074
0.370	4.480896	-8.829174	720.222061	-35.762692	-47.868372	-0.260060	6.646335	-4.965509
0.380	4.560029	-9.456237	720.037459	-36.066134	-47.922806	-0.313328	6.655599	-5.008925
0.390	4.850346	-9.887070	719.848246	-36.260936	-48.101284	-0.367262	6.682142	-5.037303
0.400	5.327705	-10.052086	719.735769	-36.329323	-48.372112	-0.419159	6.720815	-5.047592
0.410	5.953836	-9.929995	719.786464	-36.263067	-48.699056	-0.466394	6.765764	-5.038031
0.420	6.680465	-9.547325	720.056106	-36.064192	-49.043579	-0.506687	6.811077	-5.008525
0.430	7.456999	-8.969296	720.525189	-35.744878	-49.367996	-0.538260	6.851668	-4.960948
0.440	8.237637	-8.285450	721.060681	-35.326075	-49.638710	-0.559950	6.884124	-4.899182
0.450	8.983842	-7.592647	721.404750	-34.834659	-49.828719	-0.571341	6.907179	-4.828726
0.460	9.661247	-6.977898	721.208775	-34.299811	-49.919218	-0.572955	6.921604	-4.755878
0.470	10.234216	-6.504092	720.118171	-33.749790	-49.900761	-0.566460	6.929524	-4.686702
0.480	10.663564	-6.201684	717.891912	-33.209949	-49.774395	-0.554702	6.933411	-4.626038
0.490	10.911497	-6.067931	714.518353	-32.701886	-49.552492	-0.541341	6.935090	-4.576773
0.500	10.953346	-6.072839	710.279326	-32.242916	-49.258289	-0.530078	6.935059	-4.539470
0.510	10.790921	-6.168953	705.728130	-31.845181	-48.923270	-0.523672	6.932311	-4.512387
0.520	10.460347	-6.301825	701.580309	-31.514514	-48.582321	-0.523142	6.924698	-4.491933
0.530	10.029217	-6.419293	698.550383	-31.249880	-48.267666	-0.527486	6.909690	-4.473533
0.540	9.582584	-6.479257	697.184316	-31.044248	-48.003151	-0.534044	6.885288	-4.452804
0.550	9.202001	-6.456093	697.732975	-30.886838	-47.800460	-0.539362	6.850824	-4.426742
0.560	8.944485	-6.344974	700.095344	-30.765735	-47.658312	-0.540181	6.807403	-4.394506
0.570	8.828133	-6.162379	703.841739	-30.669693	-47.564826	-0.534129	6.757886	-4.357470
0.580	8.829106	-5.941316	708.311034	-30.588599	-47.502246	-0.519953	6.706411	-4.318526
0.590	8.891566	-5.721700	712.761409	-30.512902	-47.452412	-0.497389	6.657545	-4.280942
0.600	8.948374	-5.538647	716.540151	-30.432780	-47.401144	-0.466949	6.615281	-4.247184
0.610	8.946259	-5.412735	719.227665	-30.337832	-47.340154	-0.429765	6.582082	-4.218112
0.620	8.866402	-5.345490	720.713513	-30.217698	-47.265998	-0.387423	6.558223	-4.192747
0.630	8.732084	-5.321137	721.183216	-30.063304	-47.176709	-0.341601	6.541571	-4.168608
0.640	8.599982	-5.313362	721.025279	-29.867885	-47.067754	-0.293527	6.527892	-4.142419
0.650	8.538776	-5.294429	720.691890	-29.627023	-46.929231	-0.243481	6.511691	-4.110914
0.660	8.603924	-5.243443	720.554249	-29.337652	-46.745419	-0.190672	6.487425	-4.071540
0.670	8.817880	-5.151010	720.787321	-28.996608	-46.496528	-0.133627	6.450797	-4.022908
0.680	9.161179	-5.018894	721.308025	-28.599504	-46.161480	-0.070976	6.399690	-3.964950
0.690	9.574724	-4.855159	721.781088	-28.140467	-45.720429	-0.002333	6.334390	-3.898754
0.700	9.970285	-4.666929	721.697087	-27.612862	-45.156253	0.071004	6.256954	-3.826101
0.710	10.245368	-4.453608	720.513623	-27.010834	-44.455102	0.145743	6.169918	-3.748830
0.720	10.299271	-4.203089	717.831192	-26.331203	-43.606785	0.216799	6.074797	-3.668161
0.730	10.048277	-3.892461	713.555998	-25.575343	-42.606057	0.278035	5.970948	-3.584210
0.740	9.438687	-3.493337	707.995166	-24.750899	-41.455251	0.323397	5.855301	-3.495914
0.750	8.456300	-2.980538	701.845631	-23.873274	-40.167761	0.348134	5.723162	-3.401499
0.760	7.130574	-2.342141	696.071622	-22.966518	-38.771127	0.349777	5.569991	-3.299448
0.770	5.532048	-1.588681	691.699930	-22.062954	-37.308288	0.328677	5.393710	-3.189671
0.780	3.763374	-0.758879	689.582855	-21.200777	-35.835807	0.288085	5.196737	-3.074435
0.790	1.946053	0.081237	690.185566	-20.419363	-34.418493	0.233900	4.986846	-2.958532
0.800	0.205334	0.848334	693.452858	-19.752832	-33.120686	0.174202	4.776199	-2.848475
0.810	-1.345314	1.460121	698.799633	-19.223330	-31.995590	0.118458	4.578650	-2.750907
0.820	-2.619547	1.856682	705.243249	-18.835943	-31.075023	0.076086	4.406284	-2.670843
0.830	-3.571679	2.016646	711.652572	-18.576915	-30.362408	0.054329	4.266465	-2.610391
0.840	-4.204559	1.961558	717.040629	-18.415916	-29.831359	0.055970	4.160344	-2.568323
0.850	-4.567285	1.746836	720.801583	-18.311754	-29.430883	0.077883	4.083077	-2.540471
0.860	-4.740990	1.443569	722.811065	-18.219796	-29.096289	0.111294	4.025435	-2.520686
0.870	-4.815969	1.118994	723.367529	-18.099043	-28.763111	0.143976	3.976279	-2.502054
0.880	-4.867546	0.823161	723.017477	-17.917401	-28.380355	0.163767	3.925265	-2.478142
0.890	-4.938916	0.585491	722.343160	-17.654473	-27.919693	0.162237	3.865156	-2.444056
0.900	-5.036520	0.420070	721.786675	-17.301857	-27.378560	0.137212	3.793165	-2.397087
0.910	-5.138538	0.335064	721.554174	-16.861365	-26.777149	0.093328	3.711038	-2.336812
0.920	-5.212275	0.340884	721.609469	-16.341867	-26.151075	0.040567	3.623993	-2.264641
0.930	-5.233065	0.453493	721.741095	-15.755588	-25.542557	-0.008644	3.539019	-2.182997
0.940	-5.196985	0.692185	721.673519	-15.114537	-24.992891	-0.042813	3.463185	-2.094373
0.950	-5.122074	1.073707	721.188473	-14.427657	-24.537881	-0.054341	3.402423	-2.000539
0.960	-5.037460	1.605720	720.222189	-13.699270	-24.206374	-0.041371	3.360959	-1.902089
0.970	-4.965392	2.282401	718.908238	-12.929508	-24.020568	-0.008120	3.341256	-1.798492
0.980	-4.905018	3.083709	717.547297	-12.117121	-23.996247	0.036349	3.344204	-1.688686
0.990	-4.826466	3.978055	716.508144	-11.264138	-24.141513	0.080643	3.369328	-1.572088
1.000	-4.679235	4.926581	716.094087	-10.380581	-24.453996	0.114187	3.414914	-1.449611
1.010	-4.411854	5.887029	716.429980	-9.486766	-24.918003	0.130142	3.478079	-1.324172
1.020	-3.993758	6.816316	717.419775	-8.611420	-25.503786	0.127184	3.554932	-1.200332
1.030	-3.428809	7.672503	718.791486	-7.785842	-26.170518	0.109530	3.640905	-1.083185
1.040	-2.754231	8.417486	720.204537	-7.036402	-26.872922	0.085149	3.731290	-0.977001
1.050	-2.026628	9.020968	721.368437	-6.378570	-27.569759	0.062856	3.821869	-0.884232
1.060	-1.303048	9.464867	722.124155	-5.814722	-28.231402	0.049417	3.909494	-0.805225
1.070	-0.626079	9.746498	722.464004	-5.335990	-28.843912	0.047765	3.992436	-0.738582
1.080	-0.017895	9.879331	722.495466	-4.926769	-29.408355	0.056797	4.070386	-0.681910
1.090	0.517327	9.891140	722.374044	-4.569951	-29.935906	0.072470	4.144100	-0.632629
1.100	0.986590	9.819918	722.234876	-4.251416	-30.440862	0.089491	4.214815	-0.588647
1.110	1.400832	9.707998	722.146053	-3.962971	-30.934276	0.102916	4.283659	-0.548777
1.120	1.769435	9.594916	722.094860	-3.703413	-31.420412	0.109188	4.351286	-0.512871
1.130	2.097279	9.510116	722.006588	-3.477714	-31.897068	0.106482	4.417836	-0.481673
1.140	2.384748	9.467258	721.786385	-3.294763	-32.359239	0.094485	4.483216	-0.456473
1.150	2.630790	9.462061	721.368481	-3.164495	-32.804234	0.073951	4.547500	-0.438679
1.160	2.838074	9.474974	720.754446	-3.095443	-33.235569	0.046343	4.611219	-0.429473
1.170	3.018144	9.478270	720.024285	-3.093492	-33.663563	0.013650	4.675337	-0.429637
1.180	3.193971	9.445101	719.312860	-3.161989	-34.102143	-0.021687	4.740933	-0.439585
1.190	3.397944	9.356804	718.758824	-3.302730	-34.563220	-0.056839	4.808737	-0.459505
1.200	3.665018	9.205722	718.448207	-3.516988	-35.051124	-0.088748	4.878727	-0.489526
1.210	4.022843	8.993255	718.380225	-3.805773	-35.559443	-0.114429	4.949947	-0.529771
1.220	4.482320	8.725240	718.472737	-4.169030	-36.071495	-0.131506	5.020580	-0.580263
1.230	5.032032	8.407432	718.603813	-4.604184	-36.564109	-0.138874	5.088215	-0.640712
1.240	5.638548	8.042869	718.667477	-5.105025	-37.013113	-0.137175	5.150242	-0.710346
1.250	6.252274	7.631451	718.616514	-5.661968	-37.398454	-0.128710	5.204230	-0.787898
1.260	6.816624	7.171218	718.474451	-6.263966	-37.707282	-0.116689	5.248243	-0.871843
1.270	7.277433	6.660846	718.315280	-6.901264	-37.934385	-0.104071	5.281022	-0.960757
1.280	7.590319	6.102753	718.224407	-7.567591	-38.080627	-0.092505	5.302051	-1.053653
1.290	7.725394	5.505840	718.261190	-8.260729	-38.150853	-0.081819	5.311557	-1.150101
1.300	7.670297	4.886571	718.439787	-8.981426	-38.152736	-0.070250	5.310499	-1.250129
1.310	7.432667	4.267561	718.733503	-9.731288	-38.097024	-0.055276	5.300577	-1.353949
1.320	7.042031	3.673759	719.095276	-10.510332	-37.998468	-0.034721	5.284205	-1.461605
1.330	6.549612	3.127258	719.480389	-11.314694	-37.876110	-0.007806	5.264370	-1.572620
1.340	6.024039	2.642188	719.859632	-12.135203	-37.752066	0.024190	5.244365	-1.685773
1.350	5.541813	2.221142	720.219042	-12.957676	-37.648865	0.057870	5.227419	-1.799130
1.360	5.173383	1.854056	720.550919	-13.765431	-37.586190	0.088421	5.216313	-1.910404
1.370	4.968216	1.519871	720.845060	-14.543398	-37.578108	0.110985	5.213063	-2.017548
1.380	4.943809	1.190824	721.086756	-15.282273	-37.631748	0.122349	5.218755	-2.119339
1.390	5.083153	0.838914	721.261610	-15.980899	-37.747862	0.122351	5.233588	-2.215687
1.400	5.342491	0.443520	721.362280	-16.645685	-37.922985	0.114379	5.257135	-2.307535
1.410	5.667068	-0.001740	721.392208	-17.287192	-38.152005	0.104597	5.288663	-2.396365
1.420	6.008940	-0.485726	721.364755	-17.915507	-38.429632	0.100037	5.327351	-2.483557
1.430	6.339872	-0.982401	721.299279	-18.536687	-38.749935	0.106271	5.372241	-2.569902
1.440	6.654487	-1.459549	721.216732	-19.151785	-39.104441	0.125560	5.422010	-2.655483
1.450	6.963170	-1.890931	721.136464	-19.758458	-39.480583	0.156203	5.474773	-2.739906
1.460	7.279036	-2.267298	721.074463	-20.353887	-39.862374	0.193226	5.528191	-2.822716
1.470	7.606211	-2.601701	721.042053	-20.937448	-40.233912	0.229988	5.579967	-2.903776
1.480	7.935692	-2.926477	721.043841	-21.511941	-40.584403	0.260027	5.628563	-2.983444
1.490	8.250167	-3.282340	721.074252	-22.082809	-40.912087	0.278476	5.673769	-3.062488
1.500	8.533725	-3.703176	721.113306	-22.655545	-41.224699	0.282691	5.716813	-3.141745
1.510	8.780221	-4.202208	721.123575	-23.232272	-41.535879	0.272128	5.759884	-3.221677
1.520	8.996094	-4.765120	721.051022	-23.809115	-41.859018	0.247799	5.805278	-3.302001
1.530	9.197405	-5.353182	720.831873	-24.375780	-42.201243	0.211682	5.854520	-3.381618
1.540	9.403717	-5.915312	720.405912	-24.917772	-42.559948	0.166289	5.907773	-3.458852
1.550	9.631773	-6.404202	719.733897	-25.420377	-42.922902	0.114431	5.963718	-3.531913
1.560	9.890563	-6.790103	718.813905	-25.872727	-43.271368	0.059090	6.019829	-3.599364
1.570	10.178028	-7.067435	717.689756	-26.270308	-43.584640	0.003344	6.072908	-3.660399
1.580	10.479501	-7.252794	716.445976	-26.615025	-43.844182	-0.049786	6.119677	-3.714868
1.590	10.768411	-7.376280	715.189221	-26.913028	-44.036168	-0.097631	6.157275	-3.763064
1.600	11.009781	-7.469925	714.023377	-27.171448	-44.152039	-0.138265	6.183557	-3.805400
1.610	11.166409	-7.557141	713.030004	-27.395542	-44.187641	-0.170771	6.197164	-3.842130
1.620	11.206794	-7.646204	712.263531	-27.587325	-44.141984	-0.195119	6.197423	-3.873191
1.630	11.113305	-7.729351	711.761601	-27.745842	-44.016584	-0.211645	6.184175	-3.898193
1.640	10.888201	-7.787549	711.560789	-27.868584	-43.815670	-0.220461	6.157685	-3.916543
1.650	10.554488	-7.799257	711.703503	-27.953351	-43.546813	-0.221293	6.118673	-3.927668
1.660	10.149705	-7.750212	712.227246	-27.999944	-43.221195	-0.213955	6.068456	-3.931322
1.670	9.714094	-7.640898	713.139295	-28.011157	-42.853057	-0.199226	6.009073	-3.927866
1.680	9.278175	-7.489169	714.390660	-27.992700	-42.458416	-0.179554	5.943305	-3.918402
1.690	8.855601	-7.327054	715.865685	-27.952051	-42.053578	-0.159084	5.874507	-3.904650
1.700	8.444550	-7.192330	717.396433	-27.896637	-41.653979	-0.142861	5.806271	-3.888594
1.710	8.036665	-7.116849	718.798933	-27.831949	-41.273541	-0.135441	5.742015	-3.872008
1.720	7.629279	-7.114963	719.918277	-27.760273	-40.924351	-0.139373	5.684583	-3.856031
1.730	7.235274	-7.176428	720.666087	-27.680490	-40.616265	-0.154149	5.635934	-3.840959
1.740	6.885770	-7.267523	721.037696	-27.589016	-40.356044	-0.176087	5.596940	-3.826293
1.750	6.623680	-7.341189	721.105057	-27.481431	-40.145933	-0.199332	5.567279	-3.811016
1.760	6.490085	-7.352865	720.990462	-27.354029	-39.982093	-0.217654	5.545440	-3.793952
1.770	6.508699	-7.275762	720.831079	-27.204662	-39.853776	-0.226374	5.528865	-3.774069
1.780	6.674652	-7.109415	720.743891	-27.032740	-39.744127	-0.223707	5.514320	-3.750672
1.790	6.952132	-6.878509	720.797198	-26.838634	-39.632887	-0.211120	5.498480	-3.723465
1.800	7.281898	-6.623304	720.991985	-26.622904	-39.500285	-0.192694	5.478603	-3.692538
1.810	7.595811	-6.385998	721.255762	-26.385591	-39.330706	-0.173800	5.453087	-3.658285
1.820	7.832973	-6.197823	721.452321	-26.125669	-39.114948	-0.159575	5.421695	-3.621261
1.830	7.951959	-6.070308	721.410487	-25.840677	-38.850712	-0.153570	5.385382	-3.581966
1.840	7.936070	-5.992384	720.971092	-25.526584	-38.541815	-0.156885	5.345820	-3.540584
1.850	7.791676	-5.933507	720.043605	-25.178093	-38.196817	-0.167881	5.304792	-3.496746
1.860	7.542068	-5.851605	718.655100	-24.789501	-37.827582	-0.182579	5.263663	-3.449430
1.870	7.219815	-5.703541	716.970259	-24.355908	-37.447889	-0.195701	5.223074	-3.397060
1.880	6.860019	-5.455151	715.267309	-23.874312	-37.071892	-0.202177	5.182942	-3.337817
1.890	6.495420	-5.088218	713.871134	-23.344242	-36.712202	-0.198691	5.142693	-3.270092
1.900	6.152959	-4.602942	713.064319	-22.767937	-36.377618	-0.184728	5.101590	-3.192971
1.910	5.850767	-4.016181	713.008227	-22.150235	-36.071011	-0.162714	5.058989	-3.106589
1.920	5.595228	-3.356986	713.702151	-21.498162	-35.788207	-0.137186	5.014446	-3.012204
1.930	5.378990	-2.661162	714.991688	-20.820172	-35.518601	-0.113359	4.967694	-2.911946
1.940	5.181570	-1.966018	716.618557	-20.125232	-35.247691	-0.095675	4.918613	-2.808360
1.950	4.973599	-1.305826	718.292240	-19.422298	-34.960925	-0.086862	4.867229	-2.703955
1.960	4.724406	-0.708180	719.760935	-18.720554	-34.647651	-0.087624	4.813772	-2.600941
1.970	4.411149	-0.191492	720.862584	-18.030131	-34.303888	-0.096775	4.758728	-2.501188
1.980	4.026868	0.236110	721.544555	-17.362466	-33.933138	-0.111556	4.702847	-2.406292
1.990	3.584847	0.576279	721.851197	-16.729631	-33.545261	-0.128103	4.647116	-2.317601
2.000	3.117650	0.838452	721.888657	-16.142688	-33.153957	-0.142161	4.592669	-2.236174
2.010	2.670730	1.036717	721.782064	-15.609734	-32.773657	-0.150048	4.540658	-2.162666
2.020	2.292025	1.186023	721.639479	-15.134506	-32.416589	-0.149619	4.492075	-2.097239
2.030	2.020265	1.298377	721.531356	-14.716177	-32.090754	-0.140848	4.447590	-2.039575
2.040	1.875687	1.379955	721.486866	-14.350467	-31.799279	-0.125733	4.407465	-1.989013
2.050	1.856551	1.430196	721.502730	-14.031517	-31.541248	-0.107533	4.371605	-1.944763
2.060	1.942662	1.443606	721.557672	-13.753538	-31.313600	-0.089657	4.339722	-1.906090
2.070	2.103750	1.414110	721.626175	-13.511467	-31.113390	-0.074636	4.311566	-1.872364
2.080	2.308374	1.340582	721.687619	-13.300475	-30.939685	-0.063537	4.287130	-1.842968
2.090	2.529609	1.231504	721.729835	-13.114821	-30.794730	-0.055946	4.266795	-1.817137
2.100	2.746623	1.106736	721.748399	-12.946898	-30.684245	-0.050406	4.251377	-1.793824
2.110	2.944212	0.995318	721.744048	-12.787145	-30.616834	-0.045063	4.242063	-1.771701
2.120	3.113165	0.929573	721.720489	-12.625031	-30.602326	-0.038285	4.240191	-1.749296
2.130	3.252502	0.937267	721.683823	-12.450745	-30.649053	-0.029072	4.246881	-1.725235
2.140	3.371804	1.034488	721.643433	-12.256961	-30.760618	-0.017133	4.262579	-1.698479
2.150	3.490708	1.221828	721.612924	-12.040188	-30.933282	-0.002656	4.286686	-1.668511
2.160	3.634250	1.485120	721.609060	-11.801334	-31.155193	0.014091	4.317461	-1.635419
2.170	3.825597	1.800076	721.646997	-11.545237	-31.408153	0.033072	4.352288	-1.599846
2.180	4.079330	2.138657	721.731505	-11.279214	-31.671600	0.054515	4.388280	-1.562799
2.190	4.397781	2.474809	721.846058	-11.011062	-31.927372	0.078686	4.423017	-1.525403
2.200	4.771153	2.788214	721.943841	-10.747193	-32.163196	0.105564	4.455083	-1.488647
2.210	5.180382	3.066063	721.945699	-10.491560	-32.373309	0.134652	4.484175	-1.453234
2.220	5.600681	3.303652	721.749061	-10.245682	-32.556097	0.165052	4.510722	-1.419563
2.230	6.004039	3.504480	721.248683	-10.009590	-32.710233	0.195791	4.535223	-1.387814
2.240	6.360565	3.679652	720.365632	-9.782989	-32.831460	0.226232	4.557611	-1.358059
2.250	6.640246	3.845705	719.077007	-9.565906	-32.911610	0.256291	4.576924	-1.330303
2.260	6.816772	4.020442	717.436870	-9.358508	-32.940123	0.286339	4.591362	-1.304436
2.270	6.873364	4.217815	715.579844	-9.160357	-32.907191	0.316833	4.598675	-1.280131
2.280	6.808426	4.443934	713.703577	-8.969825	-32.807102	0.347905	4.596741	-1.256800
2.290	6.637812	4.695551	712.033859	-8.784367	-32.640428	0.379112	4.584112	-1.233701
2.300	6.391336	4.960643	710.783132	-8.601842	-32.414137	0.409403	4.560341	-1.210192
2.310	6.103606	5.219803	710.114658	-8.422372	-32.139420	0.437223	4.525948	-1.186058
