Time[s]	Fx[N]	Fy[N]	Fz[N]	Mx[Nm]	My[Nm]	Mz[Nm]	COPx[cm]	COPy[cm]
0.010	3.232936	-8.128183	634.471849	2.507073	5.123322	1.083170	-0.807494	0.395143
0.020	3.241155	-8.157598	634.804475	2.500266	5.102277	1.088389	-0.803756	0.393864
0.030	3.245181	-8.190409	635.083743	2.492387	5.084236	1.091453	-0.800562	0.392450
0.040	3.241013	-8.228490	635.275913	2.482694	5.071508	1.090866	-0.798316	0.390806
0.050	3.226066	-8.271784	635.374617	2.471171	5.065581	1.086199	-0.797259	0.388931
0.060	3.199879	-8.318211	635.396882	2.458512	5.067237	1.078055	-0.797492	0.386925
0.070	3.164590	-8.364253	635.371279	2.445672	5.076755	1.067750	-0.799022	0.384920
0.080	3.124889	-8.406078	635.326296	2.433208	5.093988	1.056949	-0.801791	0.382986
0.090	3.087270	-8.440941	635.283880	2.420849	5.118225	1.047416	-0.805660	0.381066
0.100	3.058705	-8.468407	635.257980	2.407677	5.147956	1.040832	-0.810373	0.379008
0.110	3.045186	-8.490795	635.255612	2.392870	5.180793	1.038586	-0.815545	0.376678
0.120	3.050652	-8.512207	635.278773	2.376529	5.213688	1.041483	-0.820693	0.374092
0.130	3.076409	-8.536194	635.326518	2.360040	5.243426	1.049430	-0.825312	0.371469
0.140	3.120766	-8.563200	635.396523	2.345685	5.267214	1.061260	-0.828965	0.369169
0.150	3.178669	-8.589453	635.485710	2.335747	5.283214	1.074860	-0.831366	0.367553
0.160	3.241661	-8.608273	635.590503	2.331572	5.290970	1.087635	-0.832450	0.366836
0.170	3.298690	-8.613277	635.707376	2.332996	5.291727	1.097166	-0.832416	0.366992
0.180	3.337954	-8.601924	635.832533	2.338275	5.288522	1.101809	-0.831748	0.367750
0.190	3.349402	-8.577573	635.958522	2.344502	5.285796	1.101043	-0.831154	0.368656
0.200	3.327173	-8.548960	636.068383	2.348404	5.288375	1.095533	-0.831416	0.369206
0.210	3.271259	-8.527130	636.132545	2.347356	5.300028	1.086905	-0.833164	0.369004
0.220	3.187906	-8.521274	636.114248	2.340344	5.322132	1.077273	-0.836663	0.367912
0.230	3.088574	-8.535452	635.984115	2.328476	5.352993	1.068604	-0.841687	0.366122
0.240	2.987452	-8.567634	635.737532	2.314775	5.388050	1.062127	-0.847527	0.364109
0.250	2.897924	-8.611173	635.405140	2.303181	5.420962	1.058043	-0.853150	0.362474
0.260	2.829131	-8.657716	635.049251	2.297104	5.445310	1.055669	-0.857463	0.361721
0.270	2.784125	-8.700087	634.745838	2.298104	5.456492	1.053897	-0.859634	0.362051
0.280	2.760411	-8.733928	634.559222	2.305234	5.453126	1.051743	-0.859356	0.363281
0.290	2.752249	-8.757750	634.520804	2.315338	5.437423	1.048783	-0.856934	0.364895
0.300	2.753363	-8.771862	634.621714	2.324231	5.414383	1.045316	-0.853167	0.366239
0.310	2.758952	-8.777154	634.822196	2.328349	5.390198	1.042230	-0.849088	0.366772
0.320	2.766559	-8.774491	635.071597	2.326262	5.370532	1.040584	-0.845658	0.366299
0.330	2.775808	-8.764887	635.327554	2.319392	5.359267	1.041062	-0.843544	0.365070
0.340	2.787393	-8.750028	635.565165	2.311615	5.357994	1.043554	-0.843028	0.363710
0.350	2.801892	-8.732445	635.774235	2.307865	5.366073	1.047097	-0.844022	0.363001
0.360	2.818948	-8.714938	635.949501	2.312358	5.380876	1.050230	-0.846117	0.363607
0.370	2.837070	-8.699456	636.081176	2.327170	5.398047	1.051587	-0.848641	0.365861
0.380	2.854047	-8.686207	636.151445	2.351659	5.411973	1.050399	-0.850737	0.369670
0.390	2.867853	-8.673677	636.138807	2.382757	5.416784	1.046704	-0.851510	0.374566
0.400	2.877906	-8.659589	636.027947	2.415886	5.407804	1.041287	-0.850246	0.379840
0.410	2.886264	-8.642276	635.819974	2.446162	5.382963	1.035469	-0.846618	0.384726
0.420	2.898024	-8.621764	635.537965	2.469589	5.343580	1.030823	-0.840796	0.388582
0.430	2.920245	-8.600075	635.225405	2.484027	5.294199	1.028733	-0.833436	0.391047
0.440	2.959533	-8.580536	634.937809	2.489714	5.241525	1.029839	-0.825518	0.392119
0.450	3.019321	-8.566242	634.729401	2.489208	5.192750	1.033627	-0.818104	0.392168
0.460	3.098017	-8.558147	634.638002	2.486698	5.153778	1.038508	-0.812082	0.391829
0.470	3.188652	-8.553681	634.672919	2.486819	5.127913	1.042505	-0.807962	0.391827
0.480	3.280056	-8.546861	634.811163	2.493363	5.115430	1.044277	-0.805819	0.392772
0.490	3.359331	-8.530328	635.004930	2.508386	5.114111	1.043925	-0.805366	0.395018
0.500	3.415076	-8.498609	635.198525	2.532010	5.120334	1.043145	-0.806100	0.398617
0.510	3.440547	-8.451084	635.348376	2.562821	5.130190	1.044554	-0.807461	0.403373
0.520	3.435672	-8.393146	635.437736	2.598459	5.140240	1.050497	-0.808929	0.408924
0.530	3.407134	-8.334875	635.479317	2.636055	5.147933	1.061919	-0.810087	0.414814
0.540	3.366339	-8.287736	635.504222	2.672488	5.151874	1.077880	-0.810675	0.420530
0.550	3.325824	-8.260629	635.542550	2.704666	5.151987	1.095946	-0.810644	0.425568
0.560	3.295278	-8.256748	635.605738	2.730004	5.149369	1.113151	-0.810151	0.429512
0.570	3.278660	-8.272238	635.679884	2.747108	5.145721	1.126981	-0.809483	0.432153
0.580	3.273646	-8.297125	635.733160	2.756414	5.142482	1.135936	-0.808906	0.433580
0.590	3.273609	-8.318493	635.732727	2.760391	5.140131	1.139565	-0.808537	0.434206
0.600	3.271021	-8.325101	635.661873	2.762961	5.138048	1.138226	-0.808299	0.434659
0.610	3.260518	-8.311639	635.529206	2.768161	5.135035	1.132846	-0.807994	0.435568
0.620	3.240376	-8.280559	635.367091	2.778592	5.130194	1.124779	-0.807438	0.437321
0.630	3.212240	-8.240527	635.221695	2.794421	5.123647	1.115692	-0.806592	0.439913
0.640	3.179911	-8.202465	635.138739	2.813360	5.116695	1.107323	-0.805603	0.442952
0.650	3.148159	-8.175322	635.148555	2.831514	5.111283	1.101110	-0.804738	0.445803
0.660	3.121948	-8.163428	635.254249	2.844684	5.109007	1.097807	-0.804246	0.447802
0.670	3.105598	-8.166188	635.427800	2.849800	5.110161	1.097276	-0.804208	0.448485
0.680	3.101435	-8.179592	635.617730	2.846088	5.113385	1.098581	-0.804475	0.447767
0.690	3.108329	-8.198449	635.766767	2.835477	5.116194	1.100344	-0.804728	0.445993
0.700	3.121301	-8.218238	635.832101	2.821921	5.116163	1.101207	-0.804641	0.443816
0.710	3.133014	-8.236024	635.799170	2.809782	5.112151	1.100228	-0.804051	0.441929
0.720	3.136611	-8.250562	635.683781	2.801925	5.104854	1.097080	-0.803049	0.440773
0.730	3.128310	-8.262055	635.523306	2.798434	5.096408	1.092006	-0.801923	0.440335
0.740	3.108306	-8.271885	635.361901	2.796600	5.089315	1.085607	-0.801010	0.440159
0.750	3.079769	-8.282231	635.235917	2.792155	5.085306	1.078578	-0.800538	0.439546
0.760	3.046984	-8.295284	635.164618	2.781075	5.084674	1.071571	-0.800529	0.437851
0.770	3.013812	-8.312170	635.148622	2.761108	5.086262	1.065165	-0.800799	0.434718
0.780	2.983033	-8.332123	635.174749	2.732565	5.087928	1.059806	-0.801028	0.430207
0.790	2.956344	-8.352573	635.223460	2.698316	5.087168	1.055682	-0.800847	0.424782
0.800	2.934631	-8.370307	635.275425	2.663028	5.081720	1.052634	-0.799924	0.419193
0.810	2.918415	-8.383224	635.315778	2.631764	5.070068	1.050317	-0.798039	0.414245
0.820	2.908499	-8.391744	635.335900	2.608259	5.051785	1.048517	-0.795136	0.410532
0.830	2.906660	-8.399005	635.332989	2.593604	5.027532	1.047358	-0.791322	0.408227
0.840	2.915962	-8.409655	635.308536	2.586062	4.998673	1.047152	-0.786810	0.407056
0.850	2.940250	-8.427777	635.267579	2.582197	4.966653	1.048011	-0.781821	0.406474
0.860	2.982689	-8.455031	635.219724	2.578653	4.932437	1.049511	-0.776493	0.405947
0.870	3.043789	-8.489981	635.180262	2.573597	4.896284	1.050725	-0.770849	0.405176
0.880	3.119915	-8.528904	635.167946	2.567091	4.857966	1.050612	-0.764832	0.404159
0.890	3.203221	-8.567422	635.198089	2.560374	4.817303	1.048529	-0.758394	0.403083
0.900	3.283293	-8.601799	635.274425	2.554654	4.774680	1.044543	-0.751593	0.402134
0.910	3.350102	-8.629209	635.385360	2.550235	4.731165	1.039406	-0.744614	0.401368
0.920	3.397258	-8.647273	635.507248	2.546400	4.688119	1.034239	-0.737697	0.400688
0.930	3.424278	-8.653922	635.612667	2.541974	4.646482	1.030138	-0.731024	0.399925
0.940	3.436750	-8.648369	635.679513	2.536131	4.606242	1.027904	-0.724617	0.398964
0.950	3.444151	-8.632767	635.697424	2.529006	4.566413	1.027954	-0.718331	0.397832
0.960	3.456190	-8.613162	635.669670	2.521795	4.525576	1.030343	-0.711938	0.396715
0.970	3.479299	-8.598432	635.610136	2.516309	4.482698	1.034782	-0.705259	0.395889
0.980	3.514799	-8.597131	635.536712	2.514169	4.437834	1.040611	-0.698281	0.395598
0.990	3.559338	-8.613607	635.464007	2.516037	4.392372	1.046789	-0.691207	0.395937
1.000	3.606910	-8.645555	635.398895	2.521245	4.348689	1.052041	-0.684403	0.396797
1.010	3.651127	-8.684421	635.340986	2.527982	4.309394	1.055185	-0.678281	0.397894
1.020	3.686750	-8.718415	635.287085	2.533888	4.276518	1.055585	-0.673163	0.398857
1.030	3.710391	-8.736546	635.236130	2.536762	4.251026	1.053513	-0.669204	0.399342
1.040	3.720850	-8.731917	635.191305	2.535200	4.232742	1.050252	-0.666373	0.399124
1.050	3.719446	-8.703402	635.158730	2.529059	4.220545	1.047795	-0.664487	0.398178
1.060	3.710172	-8.655651	635.144441	2.519610	4.212693	1.048206	-0.663265	0.396699
1.070	3.699128	-8.597752	635.151987	2.509226	4.207203	1.052783	-0.662393	0.395059
1.080	3.692981	-8.540962	635.182206	2.500693	4.202310	1.061379	-0.661591	0.393697
1.090	3.696925	-8.496226	635.234947	2.496445	4.196980	1.072170	-0.660697	0.392996
1.100	3.713056	-8.472220	635.310600	2.497928	4.191309	1.082091	-0.659726	0.393182
1.110	3.739762	-8.473960	635.409182	2.505175	4.186612	1.087845	-0.658884	0.394262
1.120	3.772192	-8.501505	635.526981	2.516622	4.184983	1.087144	-0.658506	0.395990
1.130	3.803413	-8.548711	635.653312	2.529282	4.188429	1.079666	-0.658917	0.397903
1.140	3.825876	-8.603167	635.770016	2.539363	4.197925	1.067289	-0.660290	0.399415
1.150	3.832927	-8.648626	635.854111	2.543227	4.212886	1.053500	-0.662555	0.399970
1.160	3.820236	-8.669910	635.882122	2.538424	4.231304	1.042221	-0.665423	0.399197
1.170	3.786912	-8.658543	635.834820	2.524450	4.250469	1.036551	-0.668486	0.397029
1.180	3.735992	-8.616507	635.702487	2.503056	4.267903	1.037865	-0.671368	0.393747
1.190	3.673981	-8.556170	635.490831	2.478000	4.282137	1.045546	-0.673831	0.389935
1.200	3.609368	-8.496037	635.225768	2.454205	4.293108	1.057366	-0.675840	0.386352
1.210	3.550467	-8.454019	634.953441	2.436476	4.302127	1.070355	-0.677550	0.383725
1.220	3.503302	-8.441186	634.732684	2.428195	4.311481	1.081852	-0.679259	0.382554
1.230	3.470414	-8.458581	634.620672	2.430527	4.323749	1.090349	-0.681312	0.382989
1.240	3.451013	-8.497872	634.655925	2.442440	4.341050	1.095799	-0.684000	0.384845
1.250	3.442172	-8.544776	634.844285	2.461400	4.364444	1.099297	-0.687483	0.387717
1.260	3.440266	-8.583642	635.153234	2.484374	4.393705	1.102305	-0.691755	0.391146
1.270	3.441988	-8.602016	635.518058	2.508741	4.427488	1.105867	-0.696674	0.394755
1.280	3.444785	-8.594158	635.859270	2.532839	4.463821	1.110184	-0.702014	0.398333
1.290	3.446937	-8.562467	636.105738	2.555968	4.500650	1.114733	-0.707532	0.401815
1.300	3.447535	-8.516203	636.215098	2.577918	4.536218	1.118743	-0.713001	0.405196
1.310	3.446460	-8.468109	636.184017	2.598362	4.569138	1.121680	-0.718210	0.408429
1.320	3.444393	-8.430407	636.045148	2.616554	4.598226	1.123461	-0.722940	0.411379
1.330	3.442702	-8.411604	635.853183	2.631494	4.622343	1.124311	-0.726951	0.413853
1.340	3.442999	-8.414735	635.666545	2.642445	4.640481	1.124450	-0.730018	0.415697
1.350	3.446296	-8.437117	635.531442	2.649427	4.652159	1.123830	-0.732011	0.416884
1.360	3.452147	-8.471358	635.471779	2.653463	4.657953	1.122122	-0.732991	0.417558
1.370	3.458341	-8.507254	635.485359	2.656446	4.659778	1.118962	-0.733263	0.418018
1.380	3.461496	-8.534060	635.546252	2.660685	4.660668	1.114299	-0.733333	0.418645
1.390	3.458346	-8.542674	635.613637	2.668307	4.664116	1.108604	-0.733797	0.419800
1.400	3.447089	-8.527428	635.645876	2.680851	4.673289	1.102791	-0.735203	0.421752
1.410	3.428039	-8.487321	635.615509	2.699268	4.690375	1.097862	-0.737926	0.424670
1.420	3.403223	-8.426410	635.519401	2.724170	4.716125	1.094509	-0.742090	0.428652
1.430	3.375233	-8.353115	635.380143	2.755912	4.749599	1.092892	-0.747521	0.433742
1.440	3.346067	-8.278421	635.238192	2.794190	4.788209	1.092705	-0.753766	0.439865
1.450	3.316619	-8.213446	635.137248	2.837337	4.828213	1.093403	-0.760184	0.446728
1.460	3.287069	-8.166999	635.107586	2.881883	4.865659	1.094431	-0.766116	0.453763
1.470	3.257929	-8.143558	635.153741	2.922953	4.897495	1.095342	-0.771072	0.460196
1.480	3.231140	-8.141958	635.252406	2.955554	4.922394	1.095813	-0.774872	0.465257
1.490	3.210337	-8.155337	635.362621	2.976241	4.940921	1.095620	-0.777654	0.468432
1.500	3.199645	-8.173023	635.444469	2.984376	4.955008	1.094599	-0.779770	0.469652
1.510	3.201229	-8.184270	635.477813	2.982349	4.967054	1.092618	-0.781625	0.469308
1.520	3.212957	-8.182381	635.471633	2.974714	4.979115	1.089593	-0.783531	0.468111
1.530	3.227920	-8.166995	635.458784	2.966723	4.992573	1.085575	-0.785664	0.466863
1.540	3.236696	-8.143225	635.478710	2.962929	5.008291	1.080891	-0.788113	0.466251
1.550	3.231513	-8.118364	635.557178	2.966224	5.026837	1.076229	-0.790934	0.466712
1.560	3.210132	-8.098317	635.693184	2.977352	5.048416	1.072558	-0.794159	0.468363
1.570	3.177245	-8.085555	635.858837	2.994812	5.072498	1.070870	-0.797740	0.470987
1.580	3.142583	-8.079057	636.011258	3.015214	5.097638	1.071809	-0.801501	0.474082
1.590	3.116778	-8.075817	636.109803	3.034121	5.121840	1.075364	-0.805182	0.476981
1.600	3.107063	-8.073090	636.130403	3.047237	5.143392	1.080763	-0.808544	0.479027
1.610	3.114559	-8.070225	636.071837	3.051553	5.161664	1.086654	-0.811491	0.479750
1.620	3.133809	-8.068967	635.953445	3.046021	5.177328	1.091488	-0.814105	0.478969
1.630	3.154522	-8.072059	635.806905	3.031526	5.191847	1.093988	-0.816576	0.476800
1.640	3.165330	-8.081212	635.665580	3.010293	5.206579	1.093512	-0.819075	0.473566
1.650	3.158625	-8.095802	635.554909	2.985133	5.222022	1.090201	-0.821648	0.469689
1.660	3.134389	-8.113022	635.486994	2.958849	5.237539	1.084855	-0.824177	0.465603
1.670	3.100712	-8.129173	635.460952	2.933876	5.251615	1.078598	-0.826426	0.461693
1.680	3.070275	-8.141224	635.467932	2.912036	5.262495	1.072477	-0.828129	0.458251
1.690	3.054601	-8.147868	635.497156	2.894411	5.268936	1.067164	-0.829105	0.455456
1.700	3.059178	-8.149873	635.538870	2.881371	5.270767	1.062840	-0.829338	0.453374
1.710	3.081850	-8.149889	635.582586	2.872708	5.269019	1.059232	-0.829006	0.451980
1.720	3.114706	-8.151746	635.613433	2.867723	5.265559	1.055742	-0.828422	0.451174
1.730	3.147875	-8.159159	635.612089	2.865180	5.262384	1.051636	-0.827924	0.450775
1.740	3.173059	-8.174144	635.561349	2.863311	5.260944	1.046266	-0.827763	0.450517
1.750	3.185383	-8.195955	635.456261	2.860054	5.261824	1.039244	-0.828039	0.450079
1.760	3.183448	-8.221316	635.310572	2.853491	5.264928	1.030501	-0.828717	0.449149
1.770	3.168394	-8.245953	635.154294	2.842241	5.269969	1.020233	-0.829715	0.447488
1.780	3.142913	-8.266616	635.023513	2.825659	5.276930	1.008885	-0.830982	0.444969
1.790	3.110700	-8.282371	634.948274	2.803965	5.286195	0.997271	-0.832540	0.441605
1.800	3.076208	-8.294476	634.944354	2.778342	5.298294	0.986742	-0.834450	0.437573
1.810	3.044329	-8.305185	635.011510	2.750895	5.313402	0.979119	-0.836741	0.433204
1.820	3.019811	-8.316548	635.137430	2.724327	5.330907	0.976239	-0.839331	0.428935
1.830	3.006588	-8.329904	635.304410	2.701338	5.349342	0.979228	-0.842012	0.425204
1.840	3.007389	-8.345885	635.495225	2.683844	5.366834	0.987891	-0.844512	0.422323
1.850	3.023727	-8.364353	635.695367	2.672197	5.381882	1.000544	-0.846613	0.420358
1.860	3.055997	-8.384065	635.890611	2.664719	5.393999	1.014397	-0.848259	0.419053
1.870	3.103251	-8.402394	636.061686	2.657875	5.403790	1.026300	-0.849570	0.417864
1.880	3.162608	-8.415634	636.180725	2.647261	5.412398	1.033522	-0.850764	0.416118
1.890	3.228735	-8.420171	636.214413	2.629137	5.420695	1.034326	-0.852023	0.413247
1.900	3.293971	-8.414171	636.134478	2.601914	5.428772	1.028330	-0.853400	0.409019
1.910	3.349437	-8.398952	635.930390	2.566873	5.436053	1.016642	-0.854819	0.403641
1.920	3.386957	-8.379239	635.617435	2.527717	5.441877	1.001710	-0.856156	0.397679
1.930	3.401157	-8.362007	635.236883	2.489122	5.446144	0.986750	-0.857341	0.391842
1.940	3.390798	-8.354222	634.849288	2.454984	5.449655	0.974824	-0.858417	0.386703
1.950	3.358699	-8.360342	634.523374	2.427186	5.454063	0.967889	-0.859553	0.382521
1.960	3.310429	-8.380529	634.322567	2.405375	5.461542	0.966280	-0.861004	0.379204
1.970	3.252597	-8.410218	634.291763	2.387713	5.474268	0.968890	-0.863052	0.376438
1.980	3.191677	-8.441237	634.447577	2.372057	5.493797	0.973906	-0.865918	0.373877
1.990	3.133717	-8.464239	634.774386	2.356921	5.520427	0.979662	-0.869668	0.371301
2.000	3.084539	-8.471727	635.226581	2.341798	5.552682	0.985215	-0.874126	0.368655
2.010	3.049701	-8.460577	635.736484	2.326850	5.587199	0.990444	-0.878855	0.366008
2.020	3.033835	-8.432944	636.226888	2.312370	5.619271	0.995757	-0.883218	0.363451
2.030	3.039417	-8.395268	636.625834	2.298413	5.643989	1.001645	-0.886547	0.361030
2.040	3.065427	-8.356109	636.879506	2.284753	5.657610	1.008365	-0.888333	0.358742
2.050	3.106658	-8.323924	636.959531	2.271072	5.658591	1.015870	-0.888375	0.356549
2.060	3.154451	-8.305327	636.864013	2.257182	5.648019	1.023955	-0.886849	0.354421
2.070	3.198935	-8.303863	636.614563	2.243093	5.629443	1.032435	-0.884278	0.352347
2.080	3.231748	-8.319373	636.252197	2.228844	5.608248	1.041260	-0.881450	0.350308
2.090	3.247839	-8.348362	635.833118	2.214238	5.590705	1.050510	-0.879272	0.348242
2.100	3.245667	-8.385420	635.422897	2.198776	5.582872	1.060310	-0.878607	0.346033
2.110	3.226286	-8.425022	635.086777	2.181943	5.589579	1.070719	-0.880128	0.343566
2.120	3.192313	-8.462703	634.876210	2.163700	5.613683	1.081663	-0.884217	0.340807
2.130	3.147355	-8.495178	634.815529	2.144769	5.655634	1.092922	-0.890910	0.337857
2.140	3.095863	-8.519846	634.894755	2.126464	5.713397	1.104119	-0.899897	0.334932
2.150	3.042974	-8.534428	635.073036	2.110082	5.782737	1.114665	-0.910563	0.332258
2.160	2.994078	-8.537137	635.292556	2.096211	5.857860	1.123741	-0.922073	0.329960
2.170	2.954060	-8.527365	635.497492	2.084287	5.932385	1.130431	-0.933502	0.327977
2.180	2.926500	-8.506594	635.649867	2.072624	6.000520	1.134035	-0.943998	0.326064
2.190	2.913168	-8.479073	635.735973	2.058965	6.058173	1.134383	-0.952939	0.323871
2.200	2.914006	-8.451724	635.762444	2.041379	6.103574	1.131900	-0.960040	0.321091
2.210	2.927451	-8.432877	635.746398	2.019155	6.137140	1.127346	-0.965344	0.317604
2.220	2.950756	-8.429972	635.705891	1.993228	6.160701	1.121456	-0.969112	0.313546
2.230	2.980193	-8.446889	635.654644	1.966014	6.176469	1.114741	-0.971671	0.309290
2.240	3.011284	-8.481989	635.601190	1.940839	6.186228	1.107532	-0.973288	0.305355
2.250	3.039226	-8.527854	635.550119	1.921172	6.191035	1.100127	-0.974122	0.302285
2.260	3.059480	-8.573081	635.503140	1.909743	6.191452	1.092883	-0.974260	0.300509
2.270	3.068463	-8.605641	635.459273	1.907704	6.188078	1.086179	-0.973796	0.300209
2.280	3.064276	-8.616620	635.414804	1.914204	6.182050	1.080328	-0.972916	0.301253
2.290	3.047350	-8.603017	635.364020	1.926667	6.175240	1.075478	-0.971922	0.303238
2.300	3.020627	-8.568640	635.301271	1.941619	6.170051	1.071614	-0.971201	0.305622
2.310	2.988849	-8.522878	635.223955	1.955584	6.168887	1.068642	-0.971136	0.307857
2.320	2.957033	-8.477890	635.135259	1.965627	6.173508	1.066472	-0.971999	0.309482
2.330	2.928878	-8.445203	635.045393	1.969523	6.184502	1.064974	-0.973868	0.310139
2.340	2.905976	-8.432711	634.970522	1.965846	6.201025	1.063873	-0.976585	0.309596
2.350	2.888120	-8.442818	634.929719	1.954195	6.220892	1.062705	-0.979776	0.307781
2.360	2.874174	-8.472234	634.941100	1.935536	6.241046	1.060926	-0.982933	0.304837
2.370	2.862761	-8.513472	635.017831	1.912365	6.258381	1.058114	-0.985544	0.301151
2.380	2.852540	-8.557493	635.163778	1.888366	6.270652	1.054123	-0.987250	0.297304
2.390	2.842457	-8.596464	635.369324	1.867467	6.277140	1.049168	-0.987951	0.293918
2.400	2.832266	-8.625640	635.609581	1.852648	6.278780	1.043815	-0.987836	0.291476
2.410	2.822933	-8.644016	635.847292	1.845100	6.277729	1.038860	-0.987301	0.290180
2.420	2.816306	-8.653918	636.040778	1.844100	6.276520	1.035081	-0.986811	0.289934
2.430	2.813947	-8.659800	636.155237	1.847454	6.277068	1.032936	-0.986720	0.290409
