Time[s]	Fx[N]	Fy[N]	Fz[N]	Mx[Nm]	My[Nm]	Mz[Nm]	COPx[cm]	COPy[cm]
0.010	2.993242	-0.905792	514.973467	-0.177128	8.516625	-0.351608	-1.653799	-0.034395
0.020	3.223798	-0.957323	514.843135	-0.220521	8.488405	-0.348035	-1.648736	-0.042833
0.030	3.433076	-1.002741	514.716299	-0.256977	8.457443	-0.346214	-1.643127	-0.049926
0.040	3.601680	-1.038207	514.598387	-0.280401	8.422698	-0.347325	-1.636752	-0.054489
0.050	3.714513	-1.062771	514.497872	-0.286775	8.385530	-0.351573	-1.629847	-0.055739
0.060	3.763768	-1.077165	514.423728	-0.275286	8.349176	-0.358067	-1.623015	-0.053513
0.070	3.751307	-1.082168	514.381776	-0.248881	8.317276	-0.365053	-1.616946	-0.048385
0.080	3.689198	-1.077817	514.373404	-0.213717	8.292285	-0.370512	-1.612114	-0.041549
0.090	3.597592	-1.063690	514.398091	-0.177462	8.274604	-0.372930	-1.608599	-0.034499
0.100	3.500050	-1.039790	514.457125	-0.147088	8.262807	-0.371903	-1.606122	-0.028591
0.110	3.417356	-1.007439	514.553741	-0.127095	8.254629	-0.368295	-1.604231	-0.024700
0.120	3.361881	-0.969675	514.687055	-0.118899	8.247975	-0.363926	-1.602522	-0.023101
0.130	3.334725	-0.930806	514.842209	-0.121527	8.241381	-0.360973	-1.600759	-0.023605
0.140	3.326896	-0.895198	514.983281	-0.133066	8.233915	-0.361328	-1.598870	-0.025839
0.150	3.323974	-0.865907	515.055788	-0.152002	8.224916	-0.366022	-1.596898	-0.029512
0.160	3.312136	-0.843864	515.001194	-0.177697	8.213940	-0.374881	-1.594936	-0.034504
0.170	3.283022	-0.827971	514.779032	-0.209854	8.200925	-0.386555	-1.593096	-0.040766
0.180	3.235740	-0.815884	514.387416	-0.247532	8.186342	-0.398992	-1.591474	-0.048122
0.190	3.175755	-0.804883	513.872860	-0.288512	8.171081	-0.410232	-1.590098	-0.056145
0.200	3.111707	-0.792379	513.324478	-0.329446	8.156072	-0.419128	-1.588873	-0.064179
0.210	3.051938	-0.776113	512.853142	-0.366668	8.141906	-0.425653	-1.587571	-0.071496
0.220	3.002438	-0.754480	512.561514	-0.397152	8.128672	-0.430692	-1.585892	-0.077484
0.230	2.966868	-0.727128	512.514975	-0.419222	8.115970	-0.435494	-1.583558	-0.081797
0.240	2.947783	-0.695498	512.723882	-0.432792	8.103001	-0.441072	-1.580383	-0.084410
0.250	2.947408	-0.662840	513.142800	-0.439093	8.088667	-0.447724	-1.576299	-0.085569
0.260	2.966970	-0.633617	513.685047	-0.440026	8.071720	-0.454815	-1.571336	-0.085661
0.270	3.005198	-0.612571	514.245796	-0.437420	8.050939	-0.460911	-1.565582	-0.085061
0.280	3.057483	-0.603792	514.726269	-0.432644	8.025331	-0.464269	-1.559145	-0.084053
0.290	3.116815	-0.609922	515.053475	-0.426740	7.994342	-0.463513	-1.552138	-0.082854
0.300	3.176350	-0.631480	515.192475	-0.420901	7.958121	-0.458224	-1.544689	-0.081698
0.310	3.232317	-0.666383	515.150008	-0.416772	7.917842	-0.449175	-1.536997	-0.080903
0.320	3.285484	-0.710054	514.969493	-0.416252	7.875990	-0.438132	-1.529409	-0.080830
0.330	3.340066	-0.756458	514.718606	-0.420855	7.836304	-0.427304	-1.522444	-0.081764
0.340	3.400590	-0.799869	514.472095	-0.431117	7.803105	-0.418635	-1.516721	-0.083798
0.350	3.468618	-0.836501	514.293325	-0.446437	7.780086	-0.413174	-1.512772	-0.086806
0.360	3.541278	-0.865176	514.218265	-0.465359	7.769087	-0.410742	-1.510854	-0.090498
0.370	3.612275	-0.886996	514.246089	-0.485972	7.769428	-0.410015	-1.510839	-0.094502
0.380	3.674563	-0.904565	514.340591	-0.506177	7.778107	-0.409041	-1.512248	-0.098413
0.390	3.723087	-0.921256	514.444135	-0.523873	7.790731	-0.406041	-1.514398	-0.101833
0.400	3.756282	-0.940410	514.500321	-0.537290	7.802810	-0.400218	-1.516580	-0.104429
0.410	3.775793	-0.964295	514.476389	-0.545554	7.811052	-0.392220	-1.518253	-0.106041
0.420	3.784757	-0.993238	514.375534	-0.549258	7.814371	-0.384005	-1.519196	-0.106781
0.430	3.785562	-1.025610	514.233812	-0.550638	7.814332	-0.378101	-1.519607	-0.107079
0.440	3.778325	-1.058843	514.103431	-0.553066	7.814775	-0.376590	-1.520078	-0.107579
0.450	3.761087	-1.090783	514.030242	-0.559952	7.820512	-0.380249	-1.521411	-0.108934
0.460	3.731826	-1.120452	514.035392	-0.573514	7.835437	-0.388254	-1.524299	-0.111571
0.470	3.691193	-1.147925	514.108524	-0.593979	7.860787	-0.398537	-1.529013	-0.115536
0.480	3.644332	-1.173658	514.214366	-0.619493	7.894356	-0.408610	-1.535227	-0.120474
0.490	3.600574	-1.197834	514.308930	-0.646698	7.931140	-0.416470	-1.542096	-0.125741
0.500	3.570947	-1.219995	514.358070	-0.671738	7.965223	-0.421204	-1.548575	-0.130597
0.510	3.564534	-1.238897	514.350616	-0.691312	7.992112	-0.423069	-1.553826	-0.134405
0.520	3.585214	-1.252529	514.301044	-0.703411	8.010503	-0.423060	-1.557551	-0.136770
0.530	3.630030	-1.258345	514.241728	-0.707466	8.022720	-0.422208	-1.560107	-0.137575
0.540	3.689622	-1.253843	514.209524	-0.703990	8.033651	-0.420974	-1.562330	-0.136907
0.550	3.750447	-1.237462	514.232951	-0.694059	8.048691	-0.419055	-1.565184	-0.134970
0.560	3.798120	-1.209523	514.324157	-0.679011	8.071583	-0.415680	-1.569357	-0.132020
0.570	3.821230	-1.172924	514.476244	-0.660414	8.103068	-0.410213	-1.575013	-0.128366
0.580	3.814859	-1.133224	514.664626	-0.640113	8.140772	-0.402688	-1.581762	-0.124375
0.590	3.782760	-1.097661	514.851962	-0.620197	8.180227	-0.394017	-1.588850	-0.120461
0.600	3.736976	-1.072859	514.997474	-0.602796	8.216552	-0.385763	-1.595455	-0.117048
0.610	3.694379	-1.061835	515.070325	-0.589767	8.246206	-0.379606	-1.600986	-0.114502
0.620	3.670890	-1.061888	515.062956	-0.582292	8.268299	-0.376763	-1.605299	-0.113053
0.630	3.675528	-1.065020	514.997399	-0.580529	8.285035	-0.377615	-1.608753	-0.112725
0.640	3.706694	-1.061257	514.919206	-0.583491	8.301137	-0.381679	-1.612124	-0.113317
0.650	3.752240	-1.043478	514.879458	-0.589323	8.322403	-0.387901	-1.616379	-0.114458
0.660	3.793308	-1.011264	514.911340	-0.596008	8.353895	-0.395093	-1.622395	-0.115750
0.670	3.810403	-0.971610	515.011086	-0.602281	8.398414	-0.402308	-1.630725	-0.116945
0.680	3.789280	-0.935968	515.132783	-0.608441	8.455829	-0.409017	-1.641485	-0.118113
0.690	3.724501	-0.915109	515.202237	-0.616689	8.523440	-0.415027	-1.654387	-0.119698
0.700	3.619809	-0.914336	515.146531	-0.630713	8.597114	-0.420255	-1.668868	-0.122434
0.710	3.485902	-0.931151	514.926639	-0.654373	8.672657	-0.424486	-1.684251	-0.127081
0.720	3.336848	-0.956337	514.557103	-0.689794	8.746960	-0.427279	-1.699901	-0.134056
0.730	3.186399	-0.978034	514.103210	-0.735622	8.818638	-0.428042	-1.715344	-0.143088
0.740	3.045224	-0.986957	513.657928	-0.786521	8.888110	-0.426220	-1.730356	-0.153121
0.750	2.919746	-0.980311	513.310062	-0.834517	8.957172	-0.421514	-1.744983	-0.162576
0.760	2.812557	-0.962678	513.117208	-0.871781	9.028211	-0.414041	-1.759483	-0.169899
0.770	2.723666	-0.943860	513.092959	-0.893537	9.103279	-0.404367	-1.774197	-0.174147
0.780	2.651624	-0.934895	513.210815	-0.899817	9.183366	-0.393381	-1.789394	-0.175331
0.790	2.594044	-0.943899	513.420241	-0.895425	9.268176	-0.382039	-1.805183	-0.174404
0.800	2.547616	-0.973215	513.666307	-0.888250	9.356498	-0.371053	-1.821513	-0.172924
0.810	2.508026	-1.018910	513.904847	-0.886675	9.446933	-0.360664	-1.838265	-0.172537
0.820	2.470292	-1.072760	514.109140	-0.896972	9.538452	-0.350605	-1.855336	-0.174471
0.830	2.429959	-1.125876	514.268525	-0.921522	9.630399	-0.340307	-1.872640	-0.179191
0.840	2.385097	-1.172499	514.382058	-0.958318	9.721962	-0.329240	-1.890027	-0.186305
0.850	2.338236	-1.212436	514.451287	-1.001812	9.811552	-0.317252	-1.907188	-0.194734
0.860	2.296864	-1.250999	514.475970	-1.044672	9.896621	-0.304732	-1.923631	-0.203056
0.870	2.271525	-1.296108	514.454781	-1.079821	9.974136	-0.292529	-1.938778	-0.209896
0.880	2.271760	-1.353529	514.390011	-1.102152	10.041508	-0.281660	-1.952120	-0.214264
0.890	2.301645	-1.422490	514.292322	-1.109612	10.097504	-0.272982	-1.963378	-0.215755
0.900	2.357235	-1.494200	514.180961	-1.103504	10.142703	-0.267013	-1.972594	-0.214614
0.910	2.427352	-1.554574	514.077863	-1.087896	10.179374	-0.263951	-1.980123	-0.211621
0.920	2.497203	-1.590212	513.998733	-1.068153	10.210939	-0.263816	-1.986569	-0.207812
0.930	2.552926	-1.594740	513.946864	-1.049009	10.241326	-0.266538	-1.992682	-0.204108
0.940	2.585130	-1.572299	513.914261	-1.032905	10.274368	-0.271911	-1.999238	-0.200988
0.950	2.590410	-1.536380	513.890174	-1.019275	10.313271	-0.279453	-2.006902	-0.198345
0.960	2.570831	-1.504410	513.871692	-1.005098	10.360147	-0.288285	-2.016096	-0.195593
0.970	2.532047	-1.490345	513.868756	-0.986449	10.415701	-0.297174	-2.026919	-0.191965
0.980	2.480985	-1.498505	513.899461	-0.960386	10.479146	-0.304801	-2.039143	-0.186882
0.990	2.423906	-1.521623	513.978334	-0.926338	10.548349	-0.310166	-2.052294	-0.180229
1.000	2.365417	-1.544243	514.104916	-0.886499	10.620172	-0.312997	-2.065760	-0.172435
1.010	2.308594	-1.549869	514.259727	-0.845101	10.690927	-0.313959	-2.078896	-0.164334
1.020	2.255804	-1.528319	514.410289	-0.806890	10.756885	-0.314559	-2.091110	-0.156857
1.030	2.209489	-1.479796	514.524208	-0.775384	10.814776	-0.316758	-2.101898	-0.150699
1.040	2.172306	-1.413928	514.582122	-0.751603	10.862176	-0.322438	-2.110873	-0.146061
1.050	2.146646	-1.344529	514.583465	-0.733752	10.897749	-0.332876	-2.117781	-0.142591
1.060	2.133975	-1.282937	514.542855	-0.717881	10.921292	-0.348369	-2.122523	-0.139518
1.070	2.134413	-1.233430	514.481004	-0.699038	10.933627	-0.368119	-2.125176	-0.135872
1.080	2.146611	-1.192667	514.416313	-0.672392	10.936361	-0.390417	-2.125975	-0.130710
1.090	2.167808	-1.152526	514.360717	-0.634119	10.931596	-0.413026	-2.125278	-0.123283
1.100	2.193994	-1.104160	514.319546	-0.582056	10.921680	-0.433628	-2.123520	-0.113170
1.110	2.220306	-1.041238	514.293453	-0.516072	10.909060	-0.450202	-2.121174	-0.100346
1.120	2.241797	-0.961541	514.280675	-0.438002	10.896181	-0.461321	-2.118723	-0.085168
1.130	2.254503	-0.867026	514.278412	-0.351070	10.885278	-0.466352	-2.116612	-0.068265
1.140	2.256473	-0.762988	514.283099	-0.259120	10.878042	-0.465583	-2.115186	-0.050385
1.150	2.248196	-0.656941	514.290996	-0.166024	10.875328	-0.460190	-2.114625	-0.032282
1.160	2.231989	-0.557464	514.300907	-0.075432	10.877142	-0.451974	-2.114937	-0.014667
1.170	2.210260	-0.472961	514.318423	0.009296	10.882926	-0.442884	-2.115990	0.001808
1.180	2.183385	-0.410153	514.357733	0.085242	10.891954	-0.434459	-2.117583	0.016572
1.190	2.148597	-0.372465	514.436490	0.150223	10.903542	-0.427386	-2.119512	0.029201
1.200	2.101265	-0.358870	514.563327	0.203104	10.916956	-0.421382	-2.121596	0.039471
1.210	2.038614	-0.363913	514.724001	0.243890	10.931104	-0.415471	-2.123683	0.047383
1.220	1.964013	-0.379289	514.875884	0.273542	10.944333	-0.408576	-2.125625	0.053128
1.230	1.888894	-0.396579	514.957624	0.293662	10.954552	-0.400110	-2.127273	0.057026
1.240	1.830408	-0.410023	514.912094	0.306219	10.959739	-0.390288	-2.128468	0.059470
1.250	1.805441	-0.418080	514.712120	0.313419	10.958557	-0.380001	-2.129065	0.060892
1.260	1.823818	-0.423118	514.376229	0.317583	10.950799	-0.370295	-2.128947	0.061741
1.270	1.883988	-0.429534	513.966872	0.320866	10.937421	-0.361738	-2.128040	0.062429
1.280	1.973182	-0.441213	513.572047	0.324791	10.920179	-0.354051	-2.126319	0.063242
1.290	2.071757	-0.459445	513.278005	0.329788	10.901048	-0.346216	-2.123810	0.064251
1.300	2.159577	-0.482168	513.143401	0.335110	10.881684	-0.337002	-2.120593	0.065305
1.310	2.221584	-0.504732	513.183859	0.339282	10.863189	-0.325561	-2.116822	0.066113
1.320	2.250645	-0.521671	513.371345	0.340897	10.846195	-0.311817	-2.112739	0.066404
1.330	2.247490	-0.528554	513.647133	0.339323	10.831106	-0.296478	-2.108667	0.066062
1.340	2.218853	-0.523239	513.942482	0.334943	10.818235	-0.280790	-2.104950	0.065171
1.350	2.175164	-0.506228	514.198997	0.328860	10.807720	-0.266167	-2.101855	0.063956
1.360	2.128507	-0.480350	514.381916	0.322382	10.799216	-0.253851	-2.099455	0.062674
1.370	2.091018	-0.450169	514.483403	0.316701	10.791501	-0.244684	-2.097541	0.061557
1.380	2.073545	-0.421323	514.516727	0.312873	10.782246	-0.238992	-2.095607	0.060809
1.390	2.084250	-0.399666	514.504953	0.311884	10.768234	-0.236590	-2.092931	0.060618
1.400	2.127086	-0.390152	514.469442	0.314497	10.746160	-0.236911	-2.088785	0.061130
1.410	2.200572	-0.395796	514.423278	0.320885	10.713845	-0.239221	-2.082691	0.062378
1.420	2.297556	-0.417134	514.371174	0.330288	10.671337	-0.242865	-2.074637	0.064212
1.430	2.406427	-0.452259	514.312955	0.340932	10.621330	-0.247424	-2.065149	0.066289
1.440	2.513644	-0.497177	514.246562	0.350405	10.568582	-0.252705	-2.055159	0.068139
1.450	2.606897	-0.546325	514.169434	0.356430	10.518504	-0.258568	-2.045727	0.069321
1.460	2.677895	-0.593343	514.080179	0.357750	10.475549	-0.264735	-2.037727	0.069590
1.470	2.723857	-0.632079	513.982340	0.354693	10.442120	-0.270731	-2.031611	0.069009
1.480	2.747233	-0.657758	513.888758	0.349119	10.418359	-0.276011	-2.027357	0.067937
1.490	2.753870	-0.668229	513.822339	0.343766	10.402644	-0.280200	-2.024560	0.066904
1.500	2.750481	-0.664941	513.810229	0.341191	10.392368	-0.283332	-2.022608	0.066404
1.510	2.742502	-0.652851	513.872945	0.342726	10.384677	-0.285884	-2.020865	0.066695
1.520	2.733021	-0.638733	514.013713	0.347852	10.377117	-0.288565	-2.018840	0.067674
1.530	2.722748	-0.628354	514.213607	0.354308	10.368132	-0.291958	-2.016308	0.068903
1.540	2.710606	-0.623908	514.435504	0.358958	10.357296	-0.296290	-2.013332	0.069777
1.550	2.694598	-0.623082	514.635639	0.359017	10.345108	-0.301490	-2.010181	0.069761
1.560	2.672921	-0.620225	514.777569	0.353044	10.332321	-0.307461	-2.007143	0.068582
1.570	2.645345	-0.609040	514.842287	0.341243	10.319008	-0.314321	-2.004305	0.066281
1.580	2.614611	-0.585496	514.830763	0.325075	10.303756	-0.322419	-2.001387	0.063142
1.590	2.587241	-0.549685	514.759517	0.306552	10.283490	-0.332155	-1.997727	0.059553
1.600	2.572952	-0.506025	514.653135	0.287637	10.254198	-0.343734	-1.992448	0.055890
1.610	2.582119	-0.461951	514.537993	0.269942	10.212451	-0.356953	-1.984781	0.052463
1.620	2.621718	-0.425671	514.438644	0.254617	10.157159	-0.371082	-1.974416	0.049494
1.630	2.691360	-0.403708	514.375337	0.242216	10.090801	-0.384871	-1.961758	0.047089
1.640	2.781463	-0.398968	514.360967	0.232427	10.019474	-0.396746	-1.947946	0.045188
1.650	2.874945	-0.409965	514.397478	0.223831	9.951487	-0.405214	-1.934591	0.043513
1.660	2.952174	-0.431441	514.473004	0.213952	9.894871	-0.409339	-1.923302	0.041587
1.670	2.997355	-0.456271	514.561905	0.199832	9.854759	-0.409065	-1.915175	0.038835
1.680	3.003838	-0.478101	514.630588	0.179034	9.831827	-0.405236	-1.910463	0.034789
1.690	2.976262	-0.493716	514.650375	0.150761	9.822510	-0.399309	-1.908579	0.029294
1.700	2.928783	-0.504034	514.613427	0.116511	9.820740	-0.392949	-1.908372	0.022641
1.710	2.880177	-0.513225	514.542409	0.079716	9.820158	-0.387633	-1.908523	0.015493
1.720	2.847738	-0.526678	514.484879	0.044261	9.815750	-0.384335	-1.907879	0.008603
1.730	2.842143	-0.549188	514.491030	0.012527	9.804499	-0.383287	-1.905670	0.002435
1.740	2.864922	-0.584309	514.584114	-0.015996	9.785290	-0.383887	-1.901592	-0.003109
1.750	2.909060	-0.634488	514.739494	-0.044730	9.758513	-0.384820	-1.895816	-0.008690
1.760	2.962031	-0.700832	514.885917	-0.078524	9.725693	-0.384440	-1.888903	-0.015251
1.770	3.009764	-0.781888	514.931885	-0.121276	9.689203	-0.381304	-1.881648	-0.023552
1.780	3.040024	-0.872185	514.806082	-0.173754	9.651990	-0.374706	-1.874879	-0.033751
1.790	3.044521	-0.962078	514.492207	-0.232667	9.617185	-0.364995	-1.869258	-0.045223
1.800	3.019874	-1.039638	514.040961	-0.291496	9.587603	-0.353557	-1.865144	-0.056707
1.810	2.967864	-1.093839	513.553740	-0.342808	9.565196	-0.342440	-1.862550	-0.066752
1.820	2.895106	-1.117500	513.146503	-0.381099	9.550625	-0.333735	-1.861189	-0.074267
1.830	2.811914	-1.108842	512.910865	-0.404932	9.543118	-0.328897	-1.860580	-0.078948
1.840	2.730241	-1.071455	512.888874	-0.417393	9.540716	-0.328249	-1.860192	-0.081381
1.850	2.661112	-1.013116	513.069208	-0.424660	9.540784	-0.330832	-1.859551	-0.082769
1.860	2.612356	-0.944130	513.401081	-0.433396	9.540543	-0.334709	-1.858302	-0.084417
1.870	2.587344	-0.875768	513.814722	-0.448131	9.537405	-0.337681	-1.856195	-0.087216
1.880	2.585035	-0.819095	514.238086	-0.469761	9.529202	-0.338176	-1.853072	-0.091351
1.890	2.601114	-0.784001	514.606496	-0.495693	9.514491	-0.335908	-1.848887	-0.096325
1.900	2.629733	-0.778002	514.868414	-0.521454	9.492945	-0.331938	-1.843761	-0.101279
1.910	2.665157	-0.804636	514.991281	-0.543016	9.465490	-0.328106	-1.837990	-0.105442
1.920	2.702919	-0.861915	514.967477	-0.558814	9.433954	-0.326129	-1.831951	-0.108514
1.930	2.740364	-0.941711	514.817079	-0.570643	9.400407	-0.326873	-1.825970	-0.110844
1.940	2.776649	-1.030784	514.584217	-0.583058	9.366629	-0.330125	-1.820233	-0.113307
1.950	2.812131	-1.113659	514.326746	-0.601582	9.333966	-0.334869	-1.814793	-0.116965
1.960	2.847118	-1.176750	514.101845	-0.630567	9.303498	-0.339837	-1.809660	-0.122654
1.970	2.880441	-1.212430	513.951750	-0.671710	9.276227	-0.344012	-1.804883	-0.130695
1.980	2.908809	-1.221511	513.894010	-0.723714	9.253038	-0.346880	-1.800573	-0.140829
1.990	2.927885	-1.213108	513.919492	-0.783009	9.234345	-0.348394	-1.796847	-0.152360
2.000	2.934896	-1.201886	513.998483	-0.845043	9.219691	-0.348771	-1.793719	-0.164406
2.010	2.931257	-1.203644	514.092328	-0.905671	9.207688	-0.348272	-1.791057	-0.176169
2.020	2.923164	-1.230722	514.166831	-0.962352	9.196572	-0.347096	-1.788636	-0.187167
2.030	2.919160	-1.288567	514.203689	-1.014895	9.185124	-0.345417	-1.786281	-0.197372
2.040	2.925734	-1.374164	514.206393	-1.065489	9.173391	-0.343501	-1.783990	-0.207210
2.050	2.943609	-1.476496	514.197941	-1.117817	9.162691	-0.341824	-1.781938	-0.217390
2.060	2.967100	-1.579158	514.210589	-1.175444	9.154844	-0.341061	-1.780369	-0.228592
2.070	2.986868	-1.665029	514.271735	-1.240067	9.151045	-0.341942	-1.779418	-0.241131
2.080	2.994432	-1.721859	514.392153	-1.310374	9.151005	-0.345034	-1.778994	-0.254742
2.090	2.986128	-1.746543	514.561085	-1.382015	9.152877	-0.350581	-1.778774	-0.268581
2.100	2.964909	-1.745870	514.749028	-1.448710	9.153987	-0.358471	-1.778340	-0.281440
2.110	2.939508	-1.733263	514.916386	-1.504072	9.151932	-0.368320	-1.777363	-0.292100
2.120	2.921403	-1.723085	515.025494	-1.543441	9.145411	-0.379570	-1.775720	-0.299682
2.130	2.920713	-1.725237	515.052747	-1.565036	9.134347	-0.391561	-1.773478	-0.303859
2.140	2.942472	-1.742520	514.996063	-1.570030	9.119360	-0.403547	-1.770763	-0.304862
2.150	2.984639	-1.771566	514.873164	-1.561592	9.101028	-0.414697	-1.767625	-0.303296
2.160	3.038563	-1.806104	514.710676	-1.543334	9.079471	-0.424127	-1.763995	-0.299845
2.170	3.091715	-1.840257	514.530493	-1.517768	9.054573	-0.431000	-1.759774	-0.294981
2.180	3.131594	-1.870173	514.342667	-1.485349	9.026677	-0.434677	-1.754993	-0.288786
2.190	3.149476	-1.893735	514.149766	-1.444471	8.997232	-0.434839	-1.749924	-0.280944
2.200	3.142892	-1.909164	513.959062	-1.392521	8.968907	-0.431500	-1.745062	-0.270940
2.210	3.116186	-1.913649	513.792823	-1.327592	8.944999	-0.424924	-1.740974	-0.258391
2.220	3.078996	-1.902892	513.687823	-1.250084	8.928386	-0.415494	-1.738096	-0.243355
2.230	3.043039	-1.872012	513.682601	-1.163341	8.920453	-0.403619	-1.736569	-0.226471
2.240	3.018178	-1.817662	513.799776	-1.072972	8.920481	-0.389749	-1.736178	-0.208831
2.250	3.009077	-1.740636	514.033874	-0.985178	8.925743	-0.374436	-1.736411	-0.191656
2.260	3.013824	-1.647739	514.350337	-0.904950	8.932357	-0.358381	-1.736629	-0.175940
2.270	3.025346	-1.551666	514.693966	-0.835009	8.936586	-0.342452	-1.736291	-0.162234
2.280	3.035291	-1.468377	515.001602	-0.775793	8.936013	-0.327669	-1.735143	-0.150639
2.290	3.038678	-1.412581	515.215236	-0.726164	8.930063	-0.315170	-1.733269	-0.140944
2.300	3.036957	-1.392807	515.293975	-0.684229	8.919697	-0.306079	-1.730992	-0.132784
2.310	3.037731	-1.407837	515.223606	-0.647929	8.906607	-0.301250	-1.728688	-0.125757
2.320	3.051034	-1.446043	515.021139	-0.615418	8.892524	-0.301001	-1.726633	-0.119494
2.330	3.083872	-1.488207	514.731199	-0.585406	8.878957	-0.305017	-1.724970	-0.113731
2.340	3.135740	-1.513055	514.413662	-0.557468	8.867314	-0.312502	-1.723771	-0.108370
