Time[s]	Fx[N]	Fy[N]	Fz[N]	Mx[Nm]	My[Nm]	Mz[Nm]	COPx[cm]	COPy[cm]
0.010	3.296317	1.283071	528.938592	-3.973900	-2.730592	-0.556199	0.516240	-0.751297
0.020	3.270991	1.237911	529.456569	-4.051436	-2.731953	-0.576650	0.515992	-0.765207
0.030	3.252887	1.201230	529.902816	-4.116664	-2.734490	-0.595091	0.516036	-0.776871
0.040	3.247646	1.178858	530.220015	-4.160802	-2.739083	-0.609793	0.516594	-0.784731
0.050	3.257857	1.171466	530.378535	-4.181002	-2.745874	-0.619710	0.517720	-0.788305
0.060	3.282507	1.175370	530.384479	-4.180485	-2.753743	-0.624752	0.519198	-0.788199
0.070	3.317047	1.185105	530.279772	-4.166844	-2.760116	-0.625765	0.520502	-0.785782
0.080	3.354017	1.195984	530.131898	-4.149309	-2.761453	-0.624156	0.520899	-0.782694
0.090	3.384367	1.205069	530.014091	-4.135884	-2.754320	-0.621329	0.519669	-0.780335
0.100	3.399624	1.210283	529.981474	-4.131203	-2.736647	-0.618265	0.516366	-0.779500
0.110	3.394477	1.208913	530.051918	-4.135650	-2.708673	-0.615419	0.511020	-0.780235
0.120	3.368815	1.197322	530.200061	-4.146018	-2.673228	-0.612848	0.504192	-0.781972
0.130	3.328190	1.172620	530.368050	-4.157488	-2.635144	-0.610415	0.496852	-0.783887
0.140	3.282296	1.135367	530.488660	-4.166155	-2.599907	-0.607944	0.490097	-0.785343
0.150	3.241932	1.091200	530.510104	-4.170902	-2.571979	-0.605294	0.484813	-0.786206
0.160	3.215579	1.049753	530.411730	-4.173611	-2.553419	-0.602332	0.481403	-0.786862
0.170	3.206799	1.020949	530.206319	-4.177623	-2.543349	-0.598856	0.479690	-0.787924
0.180	3.213315	1.010514	529.932373	-4.185452	-2.538400	-0.594600	0.479005	-0.789809
0.190	3.227987	1.017151	529.642847	-4.197194	-2.533900	-0.589387	0.478417	-0.792457
0.200	3.241261	1.032891	529.394166	-4.210451	-2.525272	-0.583355	0.477012	-0.795334
0.210	3.244151	1.046374	529.235705	-4.221580	-2.509171	-0.577049	0.474112	-0.797675
0.220	3.230697	1.047459	529.199420	-4.227416	-2.484025	-0.571255	0.469393	-0.798832
0.230	3.199180	1.031143	529.291613	-4.226627	-2.450014	-0.566687	0.462885	-0.798544
0.240	3.151911	0.999267	529.490473	-4.220210	-2.408726	-0.563740	0.454914	-0.797032
0.250	3.094069	0.959480	529.751816	-4.211085	-2.362811	-0.562433	0.446022	-0.794917
0.260	3.032295	0.922046	530.021933	-4.203018	-2.315747	-0.562481	0.436915	-0.792990
0.270	2.973624	0.895961	530.252755	-4.199290	-2.271576	-0.563361	0.428395	-0.791941
0.280	2.924871	0.886147	530.413125	-4.201549	-2.234258	-0.564317	0.421230	-0.792128
0.290	2.892182	0.892749	530.492203	-4.209242	-2.206564	-0.564440	0.415947	-0.793460
0.300	2.880320	0.912242	530.495392	-4.219844	-2.188899	-0.562919	0.412614	-0.795453
0.310	2.891369	0.939164	530.436778	-4.229855	-2.178760	-0.559421	0.410748	-0.797429
0.320	2.923154	0.967485	530.332956	-4.236150	-2.171336	-0.554355	0.409429	-0.798772
0.330	2.968274	0.991553	530.201346	-4.237035	-2.161078	-0.548790	0.407596	-0.799137
0.340	3.014869	1.006970	530.062232	-4.232522	-2.143545	-0.544032	0.404395	-0.798495
0.350	3.049632	1.011518	529.940223	-4.223710	-2.116641	-0.541088	0.399411	-0.797016
0.360	3.062157	1.005620	529.860859	-4.211737	-2.080768	-0.540379	0.392701	-0.794876
0.370	3.048479	0.991875	529.842440	-4.196992	-2.038006	-0.541825	0.384644	-0.792121
0.380	3.011888	0.973775	529.887878	-4.179174	-1.990950	-0.545114	0.375730	-0.788690
0.390	2.960750	0.954232	529.982122	-4.158084	-1.941835	-0.549850	0.366396	-0.784571
0.400	2.904943	0.934697	530.097494	-4.134494	-1.892309	-0.555481	0.356974	-0.779950
0.410	2.853028	0.915366	530.204696	-4.110285	-1.843731	-0.561195	0.347739	-0.775226
0.420	2.811292	0.896389	530.283939	-4.087686	-1.797540	-0.566045	0.338977	-0.770848
0.430	2.784267	0.879263	530.330230	-4.068063	-1.755289	-0.569328	0.330980	-0.767081
0.440	2.775377	0.867210	530.350129	-4.051059	-1.718279	-0.570974	0.323990	-0.763846
0.450	2.786572	0.864004	530.352814	-4.034610	-1.687113	-0.571644	0.318112	-0.760741
0.460	2.816905	0.871953	530.342192	-4.015856	-1.661577	-0.572428	0.313303	-0.757220
0.470	2.861171	0.890555	530.315584	-3.992483	-1.641061	-0.574271	0.309450	-0.752850
0.480	2.910043	0.916816	530.269042	-3.963850	-1.625302	-0.577424	0.306505	-0.747517
0.490	2.952278	0.946964	530.204383	-3.931368	-1.614955	-0.581190	0.304591	-0.741482
0.500	2.978204	0.978355	530.132611	-3.897950	-1.611513	-0.584122	0.303983	-0.735278
0.510	2.982876	1.010279	530.071581	-3.866853	-1.616482	-0.584619	0.304955	-0.729496
0.520	2.967373	1.043197	530.039379	-3.840544	-1.630184	-0.581692	0.307559	-0.724577
0.530	2.937802	1.076982	530.046916	-3.820044	-1.650923	-0.575561	0.311467	-0.720699
0.540	2.902770	1.109510	530.093247	-3.804830	-1.675108	-0.567792	0.316002	-0.717766
0.550	2.870649	1.136798	530.165205	-3.793079	-1.698313	-0.560808	0.320336	-0.715452
0.560	2.847560	1.154951	530.240921	-3.782071	-1.716730	-0.556933	0.323764	-0.713274
0.570	2.836333	1.162891	530.296058	-3.768691	-1.728292	-0.557419	0.325911	-0.710677
0.580	2.836405	1.164044	530.311434	-3.750072	-1.733095	-0.561963	0.326807	-0.707145
0.590	2.844526	1.165632	530.279668	-3.724342	-1.733138	-0.568967	0.326835	-0.702335
0.600	2.856067	1.175754	530.207759	-3.691300	-1.731579	-0.576330	0.326585	-0.696199
0.610	2.866597	1.199879	530.114079	-3.652762	-1.731711	-0.582315	0.326668	-0.689052
0.620	2.873250	1.238617	530.021413	-3.612287	-1.735896	-0.586071	0.327514	-0.681536
0.630	2.875413	1.287619	529.949402	-3.574245	-1.744773	-0.587651	0.329234	-0.674450
0.640	2.874470	1.339268	529.908890	-3.542493	-1.757110	-0.587630	0.331587	-0.668510
0.650	2.872842	1.385194	529.899270	-3.519145	-1.770445	-0.586633	0.334110	-0.664116
0.660	2.872982	1.418716	529.909675	-3.503869	-1.782235	-0.585039	0.336328	-0.661220
0.670	2.876870	1.436583	529.924558	-3.494033	-1.790915	-0.582971	0.337957	-0.659345
0.680	2.886035	1.439722	529.931911	-3.485731	-1.796351	-0.580526	0.338978	-0.657770
0.690	2.901613	1.432826	529.929512	-3.475324	-1.799600	-0.578004	0.339592	-0.655809
0.700	2.924079	1.422781	529.924836	-3.460785	-1.802213	-0.575989	0.340088	-0.653071
0.710	2.952790	1.416293	529.928468	-3.442152	-1.805449	-0.575162	0.340697	-0.649550
0.720	2.985755	1.417569	529.945589	-3.420942	-1.809749	-0.575959	0.341497	-0.645527
0.730	3.019927	1.427089	529.971517	-3.399025	-1.814765	-0.578269	0.342427	-0.641360
0.740	3.052039	1.442012	529.994597	-3.377743	-1.819962	-0.581383	0.343393	-0.637317
0.750	3.079754	1.457974	530.004696	-3.357736	-1.825443	-0.584240	0.344420	-0.633530
0.760	3.102586	1.471259	530.001510	-3.339331	-1.832458	-0.585823	0.345746	-0.630061
0.770	3.121965	1.480141	529.996626	-3.323024	-1.843166	-0.585520	0.347769	-0.626990
0.780	3.140282	1.484841	530.007430	-3.309609	-1.859681	-0.583306	0.350878	-0.624446
0.790	3.159482	1.486520	530.046523	-3.299812	-1.882866	-0.579700	0.355226	-0.622551
0.800	3.180070	1.486212	530.113098	-3.293724	-1.911510	-0.575538	0.360585	-0.621325
0.810	3.201034	1.484363	530.191296	-3.290473	-1.942354	-0.571638	0.366350	-0.620620
0.820	3.220659	1.481055	530.256546	-3.288379	-1.970917	-0.568463	0.371691	-0.620149
0.830	3.237608	1.476467	530.286743	-3.285457	-1.992761	-0.565963	0.375789	-0.619562
0.840	3.251514	1.470979	530.272893	-3.279975	-2.004679	-0.563702	0.378047	-0.618545
0.850	3.262652	1.464847	530.224629	-3.270862	-2.005480	-0.561226	0.378232	-0.616882
0.860	3.271010	1.457925	530.168750	-3.257915	-1.996221	-0.558457	0.376526	-0.614505
0.870	3.275600	1.449876	530.141623	-3.241738	-1.979896	-0.555846	0.373466	-0.611485
0.880	3.274652	1.440712	530.177479	-3.223352	-1.960706	-0.554159	0.369821	-0.607976
0.890	3.266677	1.431090	530.295290	-3.203674	-1.943153	-0.554019	0.366428	-0.604130
0.900	3.251722	1.421991	530.488146	-3.183182	-1.931204	-0.555500	0.364043	-0.600048
0.910	3.232099	1.414121	530.719896	-3.162020	-1.927652	-0.557997	0.363215	-0.595798
0.920	3.212295	1.407669	530.932086	-3.140499	-1.933680	-0.560431	0.364205	-0.591507
0.930	3.198177	1.402791	531.059910	-3.119684	-1.948673	-0.561669	0.366940	-0.587445
0.940	3.195682	1.400443	531.051688	-3.101650	-1.970314	-0.560948	0.371021	-0.584058
0.950	3.209149	1.402806	530.884872	-3.089010	-1.995009	-0.558089	0.375789	-0.581861
0.960	3.239558	1.412772	530.573513	-3.083728	-2.018571	-0.553441	0.380451	-0.581207
0.970	3.283252	1.432501	530.165734	-3.085764	-2.037057	-0.547620	0.384230	-0.582038
0.980	3.331848	1.461713	529.732718	-3.092478	-2.047578	-0.541229	0.386530	-0.583781
0.990	3.373808	1.496638	529.352099	-3.099370	-2.048790	-0.534708	0.387037	-0.585503
1.000	3.397360	1.530426	529.089685	-3.101926	-2.040881	-0.528390	0.385734	-0.586276
1.010	3.393761	1.555156	528.984458	-3.097536	-2.025113	-0.522660	0.382830	-0.585563
1.020	3.359675	1.564629	529.041320	-3.086385	-2.003247	-0.518063	0.378656	-0.583392
1.030	3.297998	1.556541	529.232979	-3.070843	-1.977252	-0.515269	0.373607	-0.580244
1.040	3.217138	1.532868	529.508634	-3.053850	-1.949331	-0.514893	0.368140	-0.576733
1.050	3.129249	1.498330	529.805612	-3.037413	-1.921959	-0.517267	0.362767	-0.573307
1.060	3.048038	1.458113	530.061221	-3.022119	-1.897633	-0.522220	0.358003	-0.570145
1.070	2.986592	1.416371	530.223854	-3.007743	-1.878339	-0.528989	0.354254	-0.567259
1.080	2.955396	1.376253	530.262890	-2.994285	-1.865045	-0.536328	0.351721	-0.564679
1.090	2.960495	1.340851	530.175899	-2.982720	-1.857550	-0.542835	0.350365	-0.562591
1.100	3.001916	1.313815	529.990492	-2.975051	-1.854720	-0.547370	0.349953	-0.561340
1.110	3.072895	1.298820	529.758629	-2.973627	-1.854845	-0.549406	0.350130	-0.561317
1.120	3.160672	1.297995	529.543881	-2.980053	-1.855826	-0.549159	0.350458	-0.562759
1.130	3.249135	1.310154	529.405443	-2.994236	-1.855177	-0.547452	0.350427	-0.565585
1.140	3.322723	1.329942	529.384096	-3.014094	-1.850086	-0.545373	0.349479	-0.569359
1.150	3.370291	1.348767	529.493733	-3.036144	-1.837793	-0.543883	0.347085	-0.573405
1.160	3.387619	1.357574	529.719337	-3.056693	-1.816307	-0.543545	0.342881	-0.577040
1.170	3.377812	1.350425	530.020837	-3.073084	-1.785199	-0.544465	0.336817	-0.579804
1.180	3.349500	1.327207	530.341986	-3.084451	-1.746066	-0.546418	0.329234	-0.581597
1.190	3.313521	1.293954	530.622969	-3.091657	-1.702333	-0.549062	0.320818	-0.582647
1.200	3.279232	1.260359	530.814004	-3.096493	-1.658358	-0.552131	0.312418	-0.583348
1.210	3.251670	1.235610	530.886048	-3.100515	-1.618163	-0.555551	0.304804	-0.584026
1.220	3.230394	1.224785	530.835364	-3.104180	-1.584319	-0.559460	0.298458	-0.584773
1.230	3.210235	1.227648	530.681157	-3.106803	-1.557401	-0.564098	0.293472	-0.585437
1.240	3.183592	1.240140	530.458065	-3.107388	-1.536108	-0.569579	0.289581	-0.585793
1.250	3.143451	1.257261	530.206678	-3.105792	-1.517902	-0.575659	0.286285	-0.585770
1.260	3.086241	1.275570	529.965377	-3.103478	-1.499877	-0.581669	0.283014	-0.585600
1.270	3.013736	1.294051	529.765645	-3.103331	-1.479561	-0.586724	0.279286	-0.585793
1.280	2.933360	1.313049	529.630783	-3.108520	-1.455422	-0.590103	0.274799	-0.586922
1.290	2.856523	1.332082	529.575791	-3.121012	-1.427054	-0.591574	0.269471	-0.589342
1.300	2.795365	1.348018	529.606032	-3.140455	-1.395153	-0.591494	0.263432	-0.592979
1.310	2.759138	1.355062	529.714627	-3.164026	-1.361433	-0.590644	0.257013	-0.597308
1.320	2.751750	1.346988	529.880999	-3.187353	-1.328466	-0.589918	0.250710	-0.601522
1.330	2.771355	1.320528	530.073072	-3.206143	-1.299307	-0.589971	0.245118	-0.604849
1.340	2.811753	1.277959	530.253455	-3.217796	-1.276801	-0.590956	0.240791	-0.606841
1.350	2.864481	1.227198	530.387942	-3.222250	-1.262655	-0.592472	0.238062	-0.607527
1.360	2.920565	1.179219	530.454365	-3.221684	-1.256674	-0.593787	0.236905	-0.607344
1.370	2.971640	1.144107	530.449516	-3.219359	-1.256581	-0.594227	0.236890	-0.606911
1.380	3.010870	1.127673	530.390908	-3.218246	-1.258611	-0.593545	0.237299	-0.606769
1.390	3.033914	1.130100	530.310670	-3.220026	-1.258712	-0.592085	0.237354	-0.607196
1.400	3.039620	1.146990	530.242694	-3.224710	-1.253920	-0.590689	0.236480	-0.608157
1.410	3.029945	1.172088	530.208866	-3.230809	-1.243349	-0.590376	0.234502	-0.609346
1.420	3.009008	1.200108	530.211578	-3.235923	-1.228374	-0.591923	0.231676	-0.610308
1.430	2.981724	1.228112	530.236126	-3.237587	-1.211897	-0.595552	0.228558	-0.610593
1.440	2.952618	1.254952	530.260533	-3.234167	-1.196969	-0.600855	0.225732	-0.609920
1.450	2.925126	1.279608	530.266253	-3.225549	-1.185361	-0.606924	0.223541	-0.608289
1.460	2.901427	1.299955	530.244049	-3.213283	-1.176769	-0.612572	0.221930	-0.606001
1.470	2.882695	1.313091	530.193957	-3.200094	-1.169025	-0.616566	0.220490	-0.603570
1.480	2.869582	1.317044	530.122368	-3.189000	-1.159226	-0.617901	0.218671	-0.601559
1.490	2.862623	1.312544	530.039331	-3.182440	-1.145240	-0.616108	0.216067	-0.600416
1.500	2.862349	1.303568	529.956467	-3.181737	-1.126910	-0.611493	0.212642	-0.600377
1.510	2.869118	1.296240	529.884640	-3.186952	-1.106430	-0.605139	0.208806	-0.601443
1.520	2.882849	1.296596	529.832071	-3.197016	-1.087732	-0.598602	0.205297	-0.603402
1.530	2.902710	1.308142	529.804436	-3.210010	-1.075119	-0.593417	0.202927	-0.605886
1.540	2.926839	1.330202	529.806358	-3.223599	-1.071694	-0.590622	0.202280	-0.608449
1.550	2.952337	1.357815	529.841290	-3.235572	-1.078217	-0.590452	0.203498	-0.610668
1.560	2.975716	1.383401	529.908271	-3.244343	-1.092809	-0.592322	0.206226	-0.612246
1.570	2.993730	1.399687	529.997879	-3.249162	-1.111631	-0.595086	0.209742	-0.613052
1.580	3.004311	1.402747	530.091495	-3.249975	-1.130238	-0.597481	0.213216	-0.613097
1.590	3.007354	1.393757	530.165869	-3.247116	-1.145089	-0.598565	0.215987	-0.612472
1.600	3.005100	1.378553	530.201440	-3.241093	-1.154505	-0.597945	0.217748	-0.611295
1.610	3.001672	1.365220	530.190673	-3.232558	-1.158735	-0.595717	0.218551	-0.609697
1.620	3.001526	1.360975	530.142787	-3.222349	-1.159259	-0.592204	0.218669	-0.607827
1.630	3.007309	1.369793	530.083020	-3.211486	-1.157841	-0.587657	0.218426	-0.605846
1.640	3.018321	1.391459	530.046789	-3.201058	-1.155754	-0.582104	0.218048	-0.603920
1.650	3.030465	1.421928	530.070540	-3.192039	-1.153396	-0.575430	0.217593	-0.602191
1.660	3.037836	1.454479	530.181135	-3.185116	-1.150357	-0.567597	0.216974	-0.600760
1.670	3.035357	1.481288	530.385409	-3.180638	-1.145953	-0.558817	0.216060	-0.599684
1.680	3.021438	1.495229	530.661931	-3.178715	-1.140018	-0.549570	0.214829	-0.599009
1.690	2.999470	1.491759	530.958666	-3.179385	-1.133547	-0.540543	0.213491	-0.598801
1.700	2.977302	1.470486	531.200824	-3.182679	-1.128775	-0.532632	0.212495	-0.599148
1.710	2.964718	1.435893	531.310042	-3.188469	-1.128525	-0.526987	0.212404	-0.600114
1.720	2.969893	1.396706	531.229570	-3.196158	-1.135097	-0.524915	0.213674	-0.601653
1.730	2.996246	1.363697	530.945450	-3.204454	-1.149206	-0.527441	0.216445	-0.603537
1.740	3.040796	1.346362	530.494795	-3.211482	-1.169446	-0.534666	0.220444	-0.605375
1.750	3.094457	1.349705	529.958330	-3.215366	-1.192491	-0.545330	0.225016	-0.606721
1.760	3.144175	1.372683	529.440595	-3.215120	-1.213959	-0.556989	0.229291	-0.607267
1.770	3.176425	1.409065	529.044327	-3.211430	-1.229598	-0.566845	0.232419	-0.607025
1.780	3.181079	1.450039	528.845647	-3.206817	-1.236311	-0.572831	0.233775	-0.606381
1.790	3.154375	1.487027	528.875865	-3.204878	-1.232612	-0.574383	0.233063	-0.605979
1.800	3.099938	1.513543	529.115236	-3.208782	-1.218536	-0.572468	0.230297	-0.606443
1.810	3.027571	1.525868	529.501545	-3.219699	-1.195349	-0.568903	0.225750	-0.608062
1.820	2.950402	1.522855	529.950726	-3.236067	-1.165399	-0.565377	0.219907	-0.610635
1.830	2.881469	1.505396	530.381032	-3.254264	-1.132130	-0.562738	0.213456	-0.613571
1.840	2.830829	1.475957	530.731775	-3.270484	-1.099994	-0.560884	0.207260	-0.616222
1.850	2.803990	1.438386	530.971897	-3.282825	-1.073982	-0.559193	0.202267	-0.618267
1.860	2.801872	1.397839	531.098395	-3.292368	-1.058654	-0.557127	0.199333	-0.619917
1.870	2.822055	1.360398	531.127416	-3.302599	-1.056905	-0.554643	0.198993	-0.621809
1.880	2.860547	1.331995	531.082541	-3.317499	-1.068937	-0.552252	0.201275	-0.624667
1.890	2.913041	1.316804	530.985452	-3.339385	-1.091911	-0.550753	0.205639	-0.628903
1.900	2.975056	1.315831	530.852476	-3.367653	-1.120528	-0.550838	0.211081	-0.634386
1.910	3.041389	1.326451	530.696892	-3.399050	-1.148387	-0.552765	0.216392	-0.640488
1.920	3.105904	1.343060	530.533535	-3.429211	-1.169709	-0.556253	0.220478	-0.646370
1.930	3.162219	1.358495	530.381493	-3.454453	-1.180843	-0.560633	0.222640	-0.651315
1.940	3.204863	1.365725	530.262733	-3.472916	-1.181020	-0.565161	0.222723	-0.654942
1.950	3.230144	1.359448	530.197302	-3.484785	-1.172091	-0.569330	0.221067	-0.657262
1.960	3.236458	1.337314	530.197185	-3.491907	-1.157474	-0.573020	0.218310	-0.658605
1.970	3.224445	1.300580	530.260908	-3.497102	-1.140927	-0.576444	0.215163	-0.659506
1.980	3.197363	1.254046	530.370558	-3.503346	-1.125750	-0.579933	0.212257	-0.660547
1.990	3.161387	1.205162	530.492498	-3.512953	-1.114568	-0.583683	0.210101	-0.662206
2.000	3.125103	1.162303	530.582761	-3.526990	-1.109373	-0.587618	0.209086	-0.664739
2.010	3.097839	1.132521	530.597343	-3.545090	-1.111373	-0.591459	0.209457	-0.668132
2.020	3.087268	1.119641	530.505899	-3.565750	-1.120522	-0.594923	0.211218	-0.672141
2.030	3.097163	1.123461	530.304938	-3.586995	-1.135025	-0.597904	0.214033	-0.676402
2.040	3.126043	1.140212	530.025093	-3.607166	-1.151368	-0.600447	0.217229	-0.680565
2.050	3.167130	1.163879	529.727484	-3.625452	-1.165100	-0.602589	0.219943	-0.684399
2.060	3.209834	1.187861	529.487478	-3.641887	-1.172059	-0.604231	0.221357	-0.687814
2.070	3.242589	1.206516	529.370172	-3.656869	-1.169442	-0.605210	0.220912	-0.690796
2.080	3.256223	1.216245	529.407842	-3.670633	-1.156293	-0.605518	0.218413	-0.693347
2.090	3.246619	1.215933	529.589901	-3.683127	-1.133411	-0.605503	0.214017	-0.695468
2.100	3.215742	1.206864	529.869329	-3.694339	-1.102953	-0.605834	0.208156	-0.697217
2.110	3.170886	1.192360	530.180970	-3.704675	-1.068063	-0.607173	0.201453	-0.698757
2.120	3.122683	1.177201	530.462571	-3.714910	-1.032591	-0.609755	0.194659	-0.700315
2.130	3.082543	1.166629	530.670311	-3.725706	-1.000788	-0.613167	0.188589	-0.702075
2.140	3.059985	1.164832	530.784455	-3.737137	-0.976708	-0.616501	0.184012	-0.704078
2.150	3.060209	1.173361	530.805361	-3.748725	-0.963284	-0.618787	0.181476	-0.706233
2.160	3.082518	1.190326	530.744282	-3.760004	-0.961331	-0.619403	0.181129	-0.708440
2.170	3.120312	1.211018	530.615587	-3.771119	-0.968973	-0.618243	0.182613	-0.710706
2.180	3.163037	1.229819	530.435201	-3.782905	-0.981819	-0.615608	0.185097	-0.713170
2.190	3.199597	1.242459	530.224687	-3.796384	-0.993869	-0.611946	0.187443	-0.715995
2.200	3.221928	1.247527	530.015181	-3.812115	-0.998907	-0.607640	0.188468	-0.719246
2.210	3.227161	1.246529	529.844703	-3.829874	-0.992031	-0.602975	0.187231	-0.722830
2.220	3.217440	1.242688	529.747406	-3.848770	-0.970922	-0.598267	0.183280	-0.726529
2.230	3.197769	1.239244	529.740125	-3.867542	-0.936454	-0.594004	0.176776	-0.730083
2.240	3.173306	1.237984	529.814775	-3.884788	-0.892424	-0.590837	0.168441	-0.733235
2.250	3.147647	1.238447	529.941764	-3.899047	-0.844565	-0.589397	0.159369	-0.735750
2.260	3.122708	1.238232	530.082324	-3.908896	-0.799205	-0.590027	0.150770	-0.737413
2.270	3.099676	1.234618	530.202033	-3.913286	-0.761902	-0.592552	0.143700	-0.738075
2.280	3.079795	1.226927	530.278209	-3.912165	-0.736291	-0.596189	0.138850	-0.737757
2.290	3.064156	1.218097	530.299809	-3.907004	-0.723335	-0.599683	0.136401	-0.736754
2.300	3.052676	1.214085	530.264840	-3.900722	-0.721196	-0.601696	0.136007	-0.735618
2.310	3.043291	1.221190	530.181057	-3.896833	-0.725791	-0.601325	0.136895	-0.735001
2.320	3.032301	1.242912	530.069718	-3.898190	-0.731891	-0.598524	0.138075	-0.735411
2.330	3.015847	1.278164	529.965661	-3.905998	-0.734435	-0.594172	0.138582	-0.737029
2.340	2.991545	1.321563	529.907855	-3.919580	-0.729719	-0.589727	0.137707	-0.739672
2.350	2.959296	1.365195	529.923131	-3.936912	-0.716186	-0.586594	0.135149	-0.742921
2.360	2.921082	1.400797	530.012799	-3.955556	-0.694607	-0.585534	0.131055	-0.746313
2.370	2.880236	1.421640	530.150547	-3.973433	-0.667611	-0.586384	0.125928	-0.749491
