Time[s]	Fx[N]	Fy[N]	Fz[N]	Mx[Nm]	My[Nm]	Mz[Nm]	COPx[cm]	COPy[cm]
0.010	1.870029	-2.263694	502.734477	5.426552	8.297183	1.171617	-1.650411	1.079407
0.020	2.003675	-2.290170	502.348126	5.437621	8.105956	1.189282	-1.613613	1.082441
0.030	2.134293	-2.304331	502.048444	5.451192	7.913717	1.204236	-1.576285	1.085790
0.040	2.260522	-2.298800	501.900825	5.467921	7.719869	1.214780	-1.538126	1.089443
0.050	2.383183	-2.273831	501.931687	5.485984	7.524140	1.220667	-1.499037	1.092974
0.060	2.504132	-2.237072	502.121131	5.502215	7.326517	1.223086	-1.459114	1.095794
0.070	2.624911	-2.200213	502.407478	5.514088	7.126879	1.224086	-1.418546	1.097533
0.080	2.746250	-2.174029	502.703260	5.521312	6.924640	1.225702	-1.377481	1.098324
0.090	2.868455	-2.164199	502.919101	5.526136	6.718897	1.229137	-1.335980	1.098812
0.100	2.991951	-2.169627	502.989065	5.532257	6.509163	1.234332	-1.294096	1.099876
0.110	3.117314	-2.183549	502.889558	5.542921	6.296216	1.240080	-1.252008	1.102214
0.120	3.244681	-2.196535	502.645082	5.559220	6.082464	1.244620	-1.210091	1.105993
0.130	3.372985	-2.200086	502.318479	5.579438	5.871630	1.246488	-1.168906	1.110737
0.140	3.499556	-2.189731	501.989520	5.599691	5.667999	1.245257	-1.129107	1.115500
0.150	3.620233	-2.166704	501.730268	5.615505	5.475610	1.241820	-1.091345	1.119228
0.160	3.729751	-2.137653	501.586064	5.623539	5.297646	1.238061	-1.056179	1.121151
0.170	3.822211	-2.112367	501.567253	5.622759	5.136179	1.236054	-1.024026	1.121038
0.180	3.891980	-2.100304	501.651930	5.614641	4.992189	1.237190	-0.995150	1.119230
0.190	3.935386	-2.107194	501.796771	5.602509	4.865718	1.241660	-0.969659	1.116490
0.200	3.952949	-2.132980	501.951963	5.590371	4.755954	1.248529	-0.947492	1.113726
0.210	3.950975	-2.171880	502.075953	5.581744	4.661231	1.256261	-0.928392	1.111733
0.220	3.941311	-2.214535	502.145942	5.578834	4.579138	1.263336	-0.911914	1.110999
0.230	3.938938	-2.251284	502.161361	5.582250	4.506889	1.268642	-0.897498	1.111645
0.240	3.957946	-2.275129	502.140170	5.591250	4.441947	1.271586	-0.884603	1.113484
0.250	4.006981	-2.283395	502.110224	5.604316	4.382653	1.272063	-0.872847	1.116152
0.260	4.085601	-2.277852	502.099028	5.619725	4.328558	1.270434	-0.862092	1.119246
0.270	4.183292	-2.263523	502.125119	5.635812	4.280310	1.267548	-0.852439	1.122392
0.280	4.282206	-2.246452	502.193696	5.650991	4.239156	1.264702	-0.844128	1.125261
0.290	4.362993	-2.231124	502.297480	5.663944	4.206309	1.263431	-0.837414	1.127608
0.300	4.411258	-2.218708	502.421352	5.674252	4.182483	1.265114	-0.832465	1.129381
0.310	4.421845	-2.207065	502.547768	5.683184	4.167814	1.270534	-0.829337	1.130874
0.320	4.399484	-2.192410	502.660303	5.693936	4.162175	1.279552	-0.828029	1.132760
0.330	4.356088	-2.171598	502.744489	5.710879	4.165639	1.291058	-0.828580	1.135941
0.340	4.305960	-2.143835	502.787278	5.738024	4.178750	1.303243	-0.831117	1.141243
0.350	4.260613	-2.111220	502.777893	5.777408	4.202356	1.314113	-0.835828	1.149097
0.360	4.225056	-2.078063	502.711904	5.828167	4.237161	1.322057	-0.842861	1.159345
0.370	4.197125	-2.049331	502.596929	5.886699	4.283323	1.326300	-0.852238	1.171256
0.380	4.170119	-2.028681	502.455181	5.947833	4.340344	1.327119	-0.863827	1.183754
0.390	4.137250	-2.016752	502.319322	6.006470	4.407221	1.325730	-0.877374	1.195747
0.400	4.095424	-2.010647	502.222917	6.059019	4.482688	1.323850	-0.892569	1.206440
0.410	4.046288	-2.005181	502.190438	6.104163	4.565496	1.323104	-0.909117	1.215508
0.420	3.994158	-1.995516	502.230909	6.142823	4.654798	1.324527	-0.926824	1.223107
0.430	3.942254	-1.979678	502.336145	6.177436	4.750612	1.328329	-0.945704	1.229742
0.440	3.889655	-1.959292	502.482821	6.210841	4.854153	1.333919	-0.966034	1.236031
0.450	3.830905	-1.938009	502.637921	6.245149	4.967710	1.340102	-0.988328	1.242475
0.460	3.758479	-1.918705	502.767265	6.281031	5.093939	1.345353	-1.013180	1.249292
0.470	3.666513	-1.901425	502.845492	6.317698	5.234852	1.348142	-1.041046	1.256389
0.480	3.553518	-1.883387	502.863416	6.353519	5.391006	1.347286	-1.072062	1.263468
0.490	3.422555	-1.860929	502.828178	6.386964	5.561326	1.342239	-1.106009	1.270208
0.500	3.278987	-1.832073	502.755347	6.417437	5.743609	1.333245	-1.142426	1.276453
0.510	3.127324	-1.798088	502.658342	6.445678	5.935409	1.321290	-1.180804	1.282318
0.520	2.968977	-1.763129	502.542921	6.473584	6.134857	1.307875	-1.220763	1.288165
0.530	2.801817	-1.732378	502.409987	6.503559	6.341001	1.294659	-1.262117	1.294472
0.540	2.621423	-1.710041	502.262858	6.537657	6.553580	1.283026	-1.304811	1.301640
0.550	2.423347	-1.698251	502.112527	6.576867	6.772439	1.273695	-1.348789	1.309839
0.560	2.205636	-1.696877	501.977399	6.620841	6.996935	1.266539	-1.393875	1.318952
0.570	1.970885	-1.703656	501.878608	6.668136	7.225619	1.260717	-1.439714	1.328635
0.580	1.727071	-1.714306	501.833991	6.716849	7.456345	1.255130	-1.485819	1.338460
0.590	1.486513	-1.722844	501.853127	6.765324	7.686726	1.248979	-1.531668	1.348068
0.600	1.262796	-1.722538	501.934372	6.812639	7.914705	1.242150	-1.576841	1.357277
0.610	1.066442	-1.707504	502.064170	6.858666	8.138992	1.235238	-1.621106	1.366094
0.620	0.901033	-1.674364	502.218704	6.903731	8.359161	1.229246	-1.664446	1.374646
0.630	0.761599	-1.623298	502.367542	6.948125	8.575325	1.225155	-1.706982	1.383076
0.640	0.636180	-1.558242	502.478615	6.991704	8.787519	1.223549	-1.748834	1.391443
0.650	0.510132	-1.486243	502.523897	7.033639	8.995092	1.224426	-1.789983	1.399663
0.660	0.371573	-1.416066	502.485269	7.072312	9.196396	1.227218	-1.830182	1.407467
0.670	0.215875	-1.356374	502.359598	7.105520	9.388813	1.231004	-1.868943	1.414429
0.680	0.047469	-1.314096	502.161496	7.131137	9.568986	1.234848	-1.905559	1.420088
0.690	-0.121760	-1.293469	501.922247	7.148127	9.733095	1.238088	-1.939164	1.424150
0.700	-0.276945	-1.295740	501.684491	7.157338	9.877262	1.240464	-1.968819	1.426661
0.710	-0.405730	-1.319238	501.493634	7.161500	9.998134	1.242055	-1.993671	1.428034
0.720	-0.502457	-1.359755	501.387863	7.164270	10.093553	1.243093	-2.013123	1.428888
0.730	-0.569207	-1.411406	501.388964	7.168767	10.163028	1.243773	-2.026975	1.429782
0.740	-0.613403	-1.467923	501.496397	7.176355	10.207803	1.244116	-2.035469	1.430988
0.750	-0.643300	-1.523866	501.687047	7.186223	10.230490	1.243947	-2.039217	1.432412
0.760	-0.663612	-1.575127	501.921796	7.195884	10.234381	1.242961	-2.039039	1.433666
0.770	-0.673283	-1.618606	502.157125	7.202273	10.222669	1.240863	-2.035751	1.434267
0.780	-0.666125	-1.651587	502.356953	7.202975	10.197821	1.237513	-2.029995	1.433836
0.790	-0.633710	-1.671625	502.499585	7.197191	10.161398	1.233005	-2.022170	1.432278
0.800	-0.569208	-1.677328	502.577772	7.186152	10.114427	1.227630	-2.012510	1.429859
0.810	-0.470886	-1.669566	502.594203	7.172839	10.058161	1.221732	-2.001249	1.427163
0.820	-0.344152	-1.652221	502.556438	7.161121	9.994732	1.215556	-1.988778	1.424939
0.830	-0.201251	-1.631802	502.473802	7.154594	9.927192	1.209208	-1.975664	1.423874
0.840	-0.058444	-1.616036	502.356175	7.155571	9.858818	1.202782	-1.962516	1.424402
0.850	0.068362	-1.611937	502.213829	7.164523	9.792071	1.196556	-1.949781	1.426588
0.860	0.167889	-1.623878	502.058299	7.180058	9.727809	1.191125	-1.937586	1.430124
0.870	0.236138	-1.652032	501.904458	7.199337	9.665183	1.187330	-1.925702	1.434404
0.880	0.276790	-1.691669	501.772331	7.218801	9.602242	1.186012	-1.913665	1.438661
0.890	0.299701	-1.733871	501.685914	7.235005	9.536977	1.187735	-1.900986	1.442138
0.900	0.318386	-1.767915	501.667468	7.245361	9.468214	1.192632	-1.887349	1.444256
0.910	0.347220	-1.784864	501.728994	7.248549	9.395852	1.200412	-1.872695	1.444714
0.920	0.398587	-1.781112	501.865060	7.244573	9.320290	1.210455	-1.857131	1.443530
0.930	0.480213	-1.760284	502.051167	7.234602	9.241484	1.221896	-1.840745	1.441009
0.940	0.593302	-1.732400	502.249241	7.220756	9.158356	1.233707	-1.823468	1.437684
0.950	0.732345	-1.710408	502.418204	7.205835	9.069058	1.244812	-1.805082	1.434230
0.960	0.886846	-1.705288	502.525190	7.192790	8.971938	1.254226	-1.785371	1.431329
0.970	1.044263	-1.721582	502.553264	7.183905	8.866596	1.261157	-1.764310	1.429481
0.980	1.192854	-1.755149	502.503728	7.179945	8.754354	1.265044	-1.742147	1.428834
0.990	1.323504	-1.794238	502.393640	7.179805	8.637864	1.265588	-1.719342	1.429119
1.000	1.430490	-1.823850	502.250667	7.181009	8.520076	1.262848	-1.696379	1.429766
1.010	1.511764	-1.831934	502.107363	7.180857	8.403238	1.257360	-1.673594	1.430144
1.020	1.569081	-1.814724	501.995469	7.177701	8.288508	1.250198	-1.651112	1.429834
1.030	1.607775	-1.778569	501.939849	7.171789	8.176254	1.242839	-1.628931	1.428814
1.040	1.635798	-1.737209	501.952595	7.165373	8.066579	1.236838	-1.607040	1.427500
1.050	1.662103	-1.705754	502.029586	7.161981	7.959530	1.233415	-1.585470	1.426605
1.060	1.694891	-1.694190	502.151707	7.165008	7.854817	1.233133	-1.564232	1.426861
1.070	1.740323	-1.703414	502.290564	7.176153	7.751293	1.235793	-1.543189	1.428686
1.080	1.801956	-1.725442	502.416289	7.194406	7.646606	1.240565	-1.521966	1.431961
1.090	1.880803	-1.747359	502.504499	7.216215	7.537377	1.246266	-1.499962	1.436050
1.100	1.975765	-1.756872	502.540339	7.236853	7.420010	1.251678	-1.476500	1.440054
1.110	2.084248	-1.747009	502.519248	7.252314	7.291823	1.255839	-1.451054	1.443191
1.120	2.202962	-1.718287	502.445895	7.260758	7.151983	1.258265	-1.423433	1.445083
1.130	2.328907	-1.677901	502.333410	7.262828	7.001804	1.259031	-1.393856	1.445818
1.140	2.460333	-1.636538	502.203325	7.260876	6.844394	1.258663	-1.362873	1.445804
1.150	2.597140	-1.604246	502.083947	7.257696	6.683951	1.257861	-1.331242	1.445514
1.160	2.740133	-1.587128	502.004368	7.255467	6.525100	1.257178	-1.299809	1.445300
1.170	2.889107	-1.586127	501.984516	7.255250	6.372363	1.256798	-1.269434	1.445313
1.180	3.040658	-1.597978	502.026154	7.256998	6.229749	1.256504	-1.240921	1.445542
1.190	3.187267	-1.617346	502.111137	7.259887	6.100474	1.255843	-1.214965	1.445873
1.200	3.318728	-1.638911	502.209485	7.262837	5.986954	1.254397	-1.192123	1.446177
1.210	3.425554	-1.658703	502.293267	7.265098	5.891025	1.252040	-1.172826	1.446386
1.220	3.502579	-1.674616	502.348303	7.266626	5.814132	1.249089	-1.157391	1.446531
1.230	3.550703	-1.686238	502.377641	7.267887	5.757197	1.246268	-1.145990	1.446698
1.240	3.575767	-1.694267	502.396370	7.269146	5.720197	1.244461	-1.138583	1.446895
1.250	3.585141	-1.699953	502.421940	7.269762	5.701811	1.244357	-1.134865	1.446943
1.260	3.583866	-1.705055	502.465095	7.268081	5.699500	1.246168	-1.134308	1.446485
1.270	3.572455	-1.712101	502.524852	7.262129	5.710113	1.249582	-1.136285	1.445128
1.280	3.547555	-1.724144	502.588431	7.250653	5.730744	1.253944	-1.140246	1.442662
1.290	3.504978	-1.743443	502.635187	7.233883	5.759396	1.258504	-1.145840	1.439192
1.300	3.443159	-1.769726	502.643094	7.213629	5.795133	1.262583	-1.152932	1.435139
1.310	3.364929	-1.799438	502.596567	7.192645	5.837712	1.265656	-1.161510	1.431097
1.320	3.276751	-1.826816	502.493763	7.173555	5.886964	1.267407	-1.171550	1.427591
1.330	3.186199	-1.846232	502.350254	7.157820	5.942287	1.267743	-1.182897	1.424866
1.340	3.099254	-1.854405	502.196237	7.145261	6.002563	1.266712	-1.195262	1.422803
1.350	3.018650	-1.851439	502.067380	7.134436	6.066554	1.264400	-1.208315	1.421012
1.360	2.943622	-1.840520	501.992828	7.123551	6.133501	1.260891	-1.221830	1.419054
1.370	2.870750	-1.826718	501.985361	7.111276	6.203482	1.256391	-1.235789	1.416630
1.380	2.795533	-1.815312	502.037530	7.097035	6.277246	1.251411	-1.250354	1.413646
1.390	2.714396	-1.810030	502.125197	7.080985	6.355603	1.246860	-1.265741	1.410203
1.400	2.626679	-1.811798	502.217082	7.064072	6.438741	1.243911	-1.282063	1.406577
1.410	2.535813	-1.818719	502.286256	7.048148	6.525850	1.243649	-1.299229	1.403213
1.420	2.448834	-1.827463	502.318529	7.035751	6.615205	1.246627	-1.316934	1.400655
1.430	2.374012	-1.835381	502.314617	7.029293	6.704603	1.252572	-1.334742	1.399381
1.440	2.317292	-1.842066	502.286575	7.029857	6.791914	1.260376	-1.352199	1.399571
1.450	2.279088	-1.849471	502.251527	7.036248	6.875564	1.268399	-1.368948	1.400941
1.460	2.253094	-1.860584	502.225766	7.044952	6.954805	1.274963	-1.384796	1.402746
1.470	2.228116	-1.877395	502.221029	7.051260	7.029719	1.278829	-1.399726	1.404015
1.480	2.192533	-1.899199	502.243193	7.051104	7.100962	1.279472	-1.413849	1.403922
1.490	2.139533	-1.922073	502.292029	7.042618	7.169336	1.277101	-1.427324	1.402096
1.500	2.070688	-1.939873	502.360153	7.026548	7.235336	1.272468	-1.440269	1.398707
1.510	1.996033	-1.946283	502.431114	7.005348	7.298894	1.266610	-1.452715	1.394290
1.520	1.930364	-1.936882	502.479391	6.981648	7.359537	1.260600	-1.464644	1.389440
1.530	1.887028	-1.910428	502.475696	6.957083	7.416991	1.255370	-1.476089	1.384561
1.540	1.871685	-1.869254	502.397924	6.932081	7.471896	1.251613	-1.487247	1.379799
1.550	1.878805	-1.819110	502.243450	6.906462	7.526117	1.249720	-1.498500	1.375122
1.560	1.892902	-1.768407	502.035944	6.880208	7.582337	1.249689	-1.510318	1.370461
1.570	1.894474	-1.726617	501.821594	6.853818	7.643042	1.251024	-1.523060	1.365788
1.580	1.868163	-1.702004	501.654996	6.828085	7.709337	1.252740	-1.536781	1.361112
1.590	1.809275	-1.699512	501.580541	6.803528	7.780143	1.253573	-1.551125	1.356418
1.600	1.725635	-1.719583	501.617588	6.779885	7.852167	1.252370	-1.565369	1.351604
1.610	1.634306	-1.758156	501.755691	6.755994	7.920729	1.248494	-1.578603	1.346471
1.620	1.555110	-1.807628	501.960955	6.730257	7.981207	1.242107	-1.590005	1.340793
1.630	1.503981	-1.858571	502.189452	6.701505	8.030545	1.234235	-1.599107	1.334458
1.640	1.488567	-1.902069	502.400890	6.669787	8.068179	1.226607	-1.605924	1.327583
1.650	1.507115	-1.932251	502.566915	6.636502	8.095920	1.221254	-1.610914	1.320521
1.660	1.550350	-1.948092	502.672636	6.603724	8.116948	1.219895	-1.614758	1.313723
1.670	1.605296	-1.953515	502.714086	6.573135	8.134547	1.223279	-1.618126	1.307529
1.680	1.659694	-1.955593	502.695491	6.545215	8.151307	1.230752	-1.621520	1.302024
1.690	1.705672	-1.961611	502.628278	6.519161	8.169019	1.240325	-1.625261	1.297014
1.700	1.741528	-1.976242	502.530938	6.493554	8.189001	1.249314	-1.629552	1.292170
1.710	1.770980	-1.999973	502.427183	6.467345	8.212424	1.255309	-1.634550	1.287220
1.720	1.800106	-2.029286	502.340948	6.440542	8.240424	1.257048	-1.640405	1.282106
1.730	1.833279	-2.058410	502.289944	6.414204	8.274026	1.254796	-1.647261	1.276992
1.740	1.869996	-2.081700	502.281704	6.389884	8.314007	1.250054	-1.655248	1.272171
1.750	1.904059	-2.095570	502.314600	6.368880	8.360801	1.244807	-1.664455	1.267907
1.760	1.925420	-2.099304	502.382267	6.351661	8.414512	1.240712	-1.674922	1.264308
1.770	1.923914	-2.094810	502.476979	6.337592	8.474962	1.238636	-1.686637	1.261270
1.780	1.893486	-2.085740	502.588663	6.325020	8.541617	1.238618	-1.699524	1.258488
1.790	1.835170	-2.076324	502.700633	6.311759	8.613299	1.240124	-1.713405	1.255570
1.800	1.757334	-2.070084	502.787157	6.295819	8.687927	1.242370	-1.727953	1.252184
1.810	1.672800	-2.068605	502.817685	6.276066	8.762713	1.244589	-1.742722	1.248179
1.820	1.593929	-2.070799	502.767489	6.252508	8.835025	1.246252	-1.757279	1.243618
1.830	1.527753	-2.073134	502.629072	6.226162	8.903588	1.247233	-1.771403	1.238719
1.840	1.473394	-2.071028	502.417963	6.198721	8.969383	1.247859	-1.785243	1.233778
1.850	1.423192	-2.061048	502.170361	6.172192	9.035703	1.248738	-1.799330	1.229103
1.860	1.367104	-2.042979	501.934213	6.148597	9.107261	1.250384	-1.814433	1.224981
1.870	1.297790	-2.020625	501.757133	6.129721	9.188729	1.252851	-1.831310	1.221651
1.880	1.213327	-2.000655	501.675031	6.116859	9.283278	1.255630	-1.850456	1.219287
1.890	1.116221	-1.989840	501.705086	6.110541	9.391741	1.257929	-1.871964	1.217955
1.900	1.010063	-1.992031	501.844547	6.110317	9.512701	1.259152	-1.895547	1.217572
1.910	0.896456	-2.006445	502.073462	6.114724	9.643405	1.259261	-1.920716	1.217894
1.920	0.774192	-2.028074	502.358084	6.121508	9.780909	1.258793	-1.946999	1.218555
1.930	0.640912	-2.049897	502.653749	6.128164	9.922742	1.258498	-1.974071	1.219162
1.940	0.495900	-2.065663	502.909057	6.132732	10.066717	1.258810	-2.001697	1.219451
1.950	0.342170	-2.071914	503.073990	6.134561	10.210159	1.259431	-2.029554	1.219415
1.960	0.186688	-2.068520	503.112274	6.134509	10.349330	1.259292	-2.057062	1.219312
1.970	0.038790	-2.057815	503.014200	6.134260	10.479699	1.256946	-2.083380	1.219500
1.980	-0.092373	-2.043000	502.803286	6.135149	10.597082	1.251273	-2.107600	1.220189
1.990	-0.200334	-2.026736	502.531305	6.137356	10.699068	1.242147	-2.129035	1.221288
2.000	-0.283015	-2.010561	502.261728	6.140095	10.785862	1.230687	-2.147459	1.222489
2.010	-0.343268	-1.995084	502.048548	6.142508	10.860067	1.218898	-2.163151	1.223489
2.020	-0.388099	-1.980319	501.920634	6.144430	10.925496	1.208879	-2.176738	1.224184
2.030	-0.426641	-1.965730	501.878231	6.146477	10.985674	1.202065	-2.188912	1.224695
2.040	-0.467402	-1.950336	501.900786	6.149510	11.042757	1.198870	-2.200187	1.225244
2.050	-0.515843	-1.933467	501.959724	6.153932	11.097233	1.198820	-2.210782	1.225981
2.060	-0.573404	-1.915954	502.029218	6.159208	11.148264	1.200947	-2.220640	1.226863
2.070	-0.638173	-1.900745	502.091081	6.163891	11.194261	1.204231	-2.229528	1.227644
2.080	-0.706214	-1.892162	502.134332	6.166225	11.233376	1.207904	-2.237126	1.228003
2.090	-0.772271	-1.894080	502.153167	6.165141	11.263748	1.211552	-2.243090	1.227741
2.100	-0.829449	-1.908075	502.146712	6.161079	11.283576	1.215043	-2.247068	1.226948
2.110	-0.868828	-1.932522	502.120264	6.156052	11.291194	1.218388	-2.248703	1.226012
2.120	-0.880430	-1.962960	502.084989	6.152829	11.285273	1.221618	-2.247682	1.225456
2.130	-0.856041	-1.993433	502.054366	6.153719	11.265133	1.224705	-2.243807	1.225708
2.140	-0.792781	-2.018141	502.039126	6.159631	11.230992	1.227567	-2.237075	1.226922
2.150	-0.695387	-2.032737	502.043691	6.169825	11.183959	1.230139	-2.227686	1.228942
2.160	-0.575555	-2.035000	502.065576	6.182304	11.125689	1.232504	-2.215983	1.231374
2.170	-0.448303	-2.024968	502.097494	6.194530	11.057787	1.234954	-2.202319	1.233731
2.180	-0.326911	-2.004666	502.131132	6.204150	10.981150	1.237881	-2.186909	1.235564
2.190	-0.218742	-1.977528	502.161070	6.209508	10.895530	1.241501	-2.169728	1.236557
2.200	-0.123671	-1.947629	502.187255	6.209933	10.799523	1.245579	-2.150497	1.236577
2.210	-0.035610	-1.918954	502.215266	6.205843	10.691009	1.249373	-2.128770	1.235694
2.220	0.053744	-1.894947	502.254480	6.198724	10.567894	1.251831	-2.104092	1.234180
2.230	0.150754	-1.878384	502.314593	6.190853	10.428867	1.251970	-2.076162	1.232465
2.240	0.257290	-1.871284	502.401133	6.184668	10.273951	1.249273	-2.044970	1.231022
2.250	0.370883	-1.874537	502.511064	6.181854	10.104720	1.243947	-2.010845	1.230193
2.260	0.487223	-1.887323	502.630389	6.182538	9.924147	1.236943	-1.974442	1.230037
2.270	0.603363	-1.906735	502.736209	6.185115	9.736168	1.229699	-1.936636	1.230290
2.280	0.719631	-1.928090	502.804310	6.186946	9.545011	1.223662	-1.898355	1.230488
2.290	0.839149	-1.946132	502.819605	6.185648	9.354360	1.219767	-1.860381	1.230192
2.300	0.965351	-1.956825	502.784030	6.180309	9.166524	1.218072	-1.823153	1.229217
2.310	1.099148	-1.958893	502.717743	6.172070	8.982022	1.217760	-1.786693	1.227741
2.320	1.237417	-1.954165	502.652932	6.163898	8.799915	1.217520	-1.750694	1.226273
2.330	1.373568	-1.946427	502.622055	6.159737	8.618840	1.216149	-1.714775	1.225521
2.340	1.499706	-1.939396	502.643677	6.163304	8.438176	1.213079	-1.678759	1.226178
2.350	1.609195	-1.934899	502.710979	6.176790	8.258638	1.208604	-1.642820	1.228696
2.360	1.698426	-1.932035	502.789045	6.199865	8.081988	1.203748	-1.607431	1.233095
2.370	1.767209	-1.927469	502.824626	6.229411	7.910221	1.199808	-1.573157	1.238883
2.380	1.817907	-1.916650	502.766069	6.260237	7.744863	1.197727	-1.540451	1.245159
2.390	1.853857	-1.895494	502.585202	6.286623	7.586811	1.197587	-1.509557	1.250857
2.400	1.877720	-1.861977	502.291212	6.304061	7.436647	1.198511	-1.480545	1.255061
2.410	1.890435	-1.816995	501.930004	6.310446	7.295064	1.199091	-1.453403	1.257236
2.420	1.891336	-1.764033	501.569350	6.306293	7.163085	1.198117	-1.428135	1.257312
