Time[s]	Fx[N]	Fy[N]	Fz[N]	Mx[Nm]	My[Nm]	Mz[Nm]	COPx[cm]	COPy[cm]
0.010	1.924847	-3.910245	662.477098	-6.830988	28.576576	0.270112	-4.313594	-1.031128
0.020	2.231222	-3.986277	662.795619	-6.956053	28.462426	0.292932	-4.294299	-1.049502
0.030	2.523542	-4.056415	663.108059	-7.078612	28.346630	0.314108	-4.274813	-1.067490
0.040	2.788594	-4.116980	663.411145	-7.196821	28.229245	0.332362	-4.255166	-1.084821
0.050	3.016109	-4.168295	663.701532	-7.309702	28.112453	0.346910	-4.235707	-1.101354
0.060	3.199477	-4.214509	663.973556	-7.416809	28.000137	0.357556	-4.217056	-1.117034
0.070	3.335786	-4.262011	664.217657	-7.517505	27.896717	0.364606	-4.199936	-1.131783
0.080	3.425302	-4.317148	664.421420	-7.610200	27.805855	0.368561	-4.184973	-1.145387
0.090	3.470837	-4.383944	664.573501	-7.691979	27.729531	0.369703	-4.172530	-1.157431
0.100	3.477701	-4.462312	664.668386	-7.758967	27.667655	0.367746	-4.162625	-1.167344
0.110	3.454438	-4.547319	664.708341	-7.807354	27.618164	0.361821	-4.154930	-1.174553
0.120	3.413641	-4.630043	664.699859	-7.834666	27.577401	0.350922	-4.148850	-1.178677
0.130	3.371482	-4.700088	664.646123	-7.840691	27.540725	0.334671	-4.143668	-1.179679
0.140	3.344939	-4.748774	664.541508	-7.827737	27.503420	0.314026	-4.138706	-1.177915
0.150	3.347030	-4.771490	664.373814	-7.800225	27.461977	0.291454	-4.133513	-1.174072
0.160	3.381903	-4.768226	664.134259	-7.763721	27.415500	0.270409	-4.128006	-1.168999
0.170	3.442211	-4.742468	663.829191	-7.723590	27.366553	0.254327	-4.122529	-1.163491
0.180	3.510474	-4.699438	663.486490	-7.683699	27.320807	0.245580	-4.117764	-1.158079
0.190	3.564358	-4.644575	663.153358	-7.645775	27.285421	0.244816	-4.114496	-1.152942
0.200	3.584005	-4.582640	662.886373	-7.609870	27.266719	0.250856	-4.113332	-1.147990
0.210	3.558549	-4.517427	662.736600	-7.575795	27.268187	0.261078	-4.114483	-1.143108
0.220	3.489451	-4.451970	662.733455	-7.544782	27.289584	0.272109	-4.117731	-1.138434
0.230	3.389792	-4.389148	662.872590	-7.520378	27.327478	0.280590	-4.122584	-1.134513
0.240	3.280235	-4.332396	663.113678	-7.507853	27.376786	0.283827	-4.128521	-1.132212
0.250	3.183158	-4.286151	663.391111	-7.512249	27.432531	0.280235	-4.135197	-1.132401
0.260	3.116608	-4.255621	663.634838	-7.536031	27.491094	0.269541	-4.142503	-1.135569
0.270	3.089661	-4.245725	663.793529	-7.577591	27.550632	0.252794	-4.150482	-1.141558
0.280	3.100543	-4.259399	663.850911	-7.631365	27.610798	0.232193	-4.159187	-1.149560
0.290	3.137939	-4.295823	663.828962	-7.689429	27.672107	0.210658	-4.168560	-1.158345
0.300	3.184657	-4.349495	663.777139	-7.743780	27.735320	0.191125	-4.178408	-1.166623
0.310	3.222114	-4.410983	663.752081	-7.788348	27.801115	0.175683	-4.188479	-1.173382
0.320	3.234255	-4.469431	663.795331	-7.820135	27.870148	0.164901	-4.198606	-1.178094
0.330	3.210164	-4.515750	663.917072	-7.839273	27.943336	0.157720	-4.208859	-1.180761
0.340	3.145203	-4.544939	664.091810	-7.848183	28.022013	0.152011	-4.219599	-1.181792
0.350	3.041017	-4.556633	664.267618	-7.850337	28.107727	0.145562	-4.231386	-1.181803
0.360	2.904801	-4.554215	664.385208	-7.849266	28.201796	0.137037	-4.244796	-1.181433
0.370	2.747836	-4.543488	664.399432	-7.848272	28.304938	0.126540	-4.260229	-1.181258
0.380	2.583095	-4.531534	664.295495	-7.850657	28.417133	0.115614	-4.277785	-1.181802
0.390	2.422290	-4.525517	664.094526	-7.859776	28.537625	0.106721	-4.297223	-1.183533
0.400	2.273580	-4.531060	663.846886	-7.878235	28.664856	0.102447	-4.317992	-1.186755
0.410	2.141172	-4.550543	663.615983	-7.906355	28.796247	0.104733	-4.339294	-1.191405
0.420	2.026974	-4.582247	663.458768	-7.940820	28.927909	0.114372	-4.360167	-1.196882
0.430	1.933197	-4.620923	663.409298	-7.974683	29.054597	0.130786	-4.379589	-1.202076
0.440	1.864259	-4.659371	663.469406	-7.999218	29.170142	0.152046	-4.396607	-1.205665
0.450	1.826778	-4.690212	663.608246	-8.006959	29.268370	0.175140	-4.410489	-1.206579
0.460	1.827432	-4.707269	663.771218	-7.994509	29.344228	0.196540	-4.420835	-1.204407
0.470	1.869578	-4.706465	663.897035	-7.963714	29.394681	0.213041	-4.427596	-1.199541
0.480	1.950169	-4.686239	663.938585	-7.920705	29.419192	0.222589	-4.431011	-1.192988
0.490	2.058686	-4.647410	663.880029	-7.873282	29.419750	0.224749	-4.431486	-1.185950
0.500	2.179029	-4.592480	663.742015	-7.827873	29.400566	0.220668	-4.429517	-1.179355
0.510	2.293871	-4.524687	663.571510	-7.787421	29.367473	0.212569	-4.425668	-1.173562
0.520	2.389532	-4.447348	663.421116	-7.751053	29.327081	0.203033	-4.420583	-1.168346
0.530	2.459152	-4.363849	663.328419	-7.715430	29.285889	0.194258	-4.414991	-1.163139
0.540	2.502964	-4.278142	663.304550	-7.676916	29.249526	0.187523	-4.409668	-1.157374
0.550	2.526019	-4.195145	663.335193	-7.633455	29.222184	0.182982	-4.405342	-1.150769
0.560	2.534786	-4.120495	663.391486	-7.585390	29.206191	0.179860	-4.402557	-1.143426
0.570	2.534230	-4.059594	663.444713	-7.535026	29.201929	0.176937	-4.401562	-1.135743
0.580	2.526463	-4.016160	663.477876	-7.485288	29.208360	0.173100	-4.402311	-1.128190
0.590	2.511165	-3.990619	663.489710	-7.438282	29.224158	0.167728	-4.404614	-1.121085
0.600	2.487068	-3.978878	663.491162	-7.394485	29.248977	0.160772	-4.408345	-1.114481
0.610	2.453439	-3.972250	663.498049	-7.352928	29.284144	0.152567	-4.413599	-1.108206
0.620	2.410655	-3.959249	663.524534	-7.312075	29.332292	0.143561	-4.420679	-1.102005
0.630	2.359659	-3.929059	663.579919	-7.270838	29.395980	0.134181	-4.429908	-1.095699
0.640	2.301067	-3.875391	663.667661	-7.229158	29.475822	0.124907	-4.441353	-1.089274
0.650	2.235168	-3.798876	663.783610	-7.187986	29.568983	0.116457	-4.454612	-1.082881
0.660	2.163357	-3.706930	663.912564	-7.148773	29.668794	0.109850	-4.468780	-1.076764
0.670	2.089925	-3.611235	664.026236	-7.112814	29.765877	0.106190	-4.482636	-1.071165
0.680	2.022291	-3.523989	664.087095	-7.080777	29.850576	0.106207	-4.494979	-1.066242
0.690	1.968583	-3.454289	664.059119	-7.052572	29.915974	0.109834	-4.505017	-1.062040
0.700	1.933523	-3.405813	663.921618	-7.027542	29.960348	0.116108	-4.512633	-1.058490
0.710	1.915014	-3.376460	663.680129	-7.004873	29.988013	0.123487	-4.518444	-1.055459
0.720	1.903535	-3.360112	663.369753	-6.984059	30.008129	0.130409	-4.523590	-1.052815
0.730	1.884798	-3.350021	663.049568	-6.965203	30.031969	0.135782	-4.529370	-1.050480
0.740	1.844555	-3.342487	662.789843	-6.948903	30.069684	0.139225	-4.536835	-1.048432
0.750	1.773706	-3.339083	662.655478	-6.935761	30.127726	0.141056	-4.546514	-1.046662
0.760	1.671869	-3.346088	662.689339	-6.925830	30.207669	0.142146	-4.558345	-1.045110
0.770	1.548091	-3.371191	662.898985	-6.918399	30.306588	0.143703	-4.571826	-1.043658
0.780	1.418368	-3.418807	663.250514	-6.912228	30.418604	0.146949	-4.586292	-1.042174
0.790	1.300814	-3.486167	663.673279	-6.906086	30.536822	0.152689	-4.601183	-1.040585
0.800	1.210282	-3.562252	664.076756	-6.899316	30.654963	0.160887	-4.616178	-1.038934
0.810	1.154238	-3.630702	664.375738	-6.892136	30.768317	0.170498	-4.631162	-1.037385
0.820	1.131034	-3.675949	664.515533	-6.885574	30.874026	0.179722	-4.646095	-1.036180
0.830	1.130935	-3.690003	664.488373	-6.881119	30.970964	0.186625	-4.660874	-1.035552
0.840	1.139583	-3.676481	664.335196	-6.880354	31.059407	0.189840	-4.675261	-1.035675
0.850	1.142941	-3.649495	664.131236	-6.884769	31.140565	0.189005	-4.688917	-1.036658
0.860	1.131952	-3.627532	663.958898	-6.895721	31.215954	0.184791	-4.701489	-1.038576
0.870	1.105046	-3.625179	663.877059	-6.914361	31.286644	0.178565	-4.712717	-1.041512
0.880	1.067512	-3.646840	663.899432	-6.941461	31.352566	0.171887	-4.722487	-1.045559
0.890	1.028142	-3.685506	663.991952	-6.977209	31.412191	0.165973	-4.730809	-1.050797
0.900	0.994817	-3.726992	664.090074	-7.021073	31.462835	0.161339	-4.737736	-1.057247
0.910	0.971183	-3.757273	664.127178	-7.071823	31.501524	0.157763	-4.743297	-1.064830
0.920	0.956030	-3.769025	664.061069	-7.127701	31.526084	0.154607	-4.747468	-1.073350
0.930	0.945517	-3.764192	663.888377	-7.186731	31.535986	0.151339	-4.750194	-1.082521
0.940	0.936684	-3.751891	663.643143	-7.247174	31.532627	0.147958	-4.751443	-1.092029
0.950	0.930093	-3.743545	663.382523	-7.308019	31.518971	0.145041	-4.751251	-1.101630
0.960	0.930204	-3.748107	663.167183	-7.369290	31.498724	0.143397	-4.749741	-1.111227
0.970	0.943433	-3.769367	663.044745	-7.431836	31.475365	0.143561	-4.747095	-1.120865
0.980	0.974950	-3.805919	663.040939	-7.496622	31.451414	0.145423	-4.743510	-1.130642
0.990	1.025766	-3.853202	663.157649	-7.563894	31.428144	0.148162	-4.739166	-1.140588
1.000	1.091423	-3.906432	663.374439	-7.632812	31.405714	0.150508	-4.734236	-1.150604
1.010	1.162797	-3.962977	663.652016	-7.701851	31.383478	0.151191	-4.728906	-1.160525
1.020	1.228557	-4.023045	663.939044	-7.769800	31.360194	0.149375	-4.723354	-1.170258
1.030	1.278285	-4.088512	664.183706	-7.836790	31.334038	0.144927	-4.717676	-1.179913
1.040	1.305395	-4.160847	664.347847	-7.904696	31.302541	0.138421	-4.711770	-1.189843
1.050	1.309250	-4.239613	664.417893	-7.976527	31.262725	0.130936	-4.705280	-1.200529
1.060	1.296105	-4.322448	664.406847	-8.054906	31.211539	0.123697	-4.697655	-1.212345
1.070	1.278519	-4.406249	664.346084	-8.140331	31.146434	0.117729	-4.688284	-1.225315
1.080	1.273002	-4.488364	664.271205	-8.230175	31.065788	0.113644	-4.676672	-1.238978
1.090	1.296046	-4.566701	664.208571	-8.319088	30.969098	0.111615	-4.662556	-1.252481
1.100	1.359440	-4.638564	664.167784	-8.400640	30.857060	0.111463	-4.645974	-1.264837
1.110	1.466411	-4.699223	664.142529	-8.469392	30.731643	0.112748	-4.627266	-1.275237
1.120	1.610165	-4.741719	664.119155	-8.522458	30.596109	0.114814	-4.607021	-1.283272
1.130	1.775530	-4.758778	664.089147	-8.560104	30.454962	0.116826	-4.585975	-1.288999
1.140	1.943110	-4.746349	664.059011	-8.585409	30.313794	0.117886	-4.564925	-1.292868
1.150	2.094417	-4.706908	664.051340	-8.603342	30.178922	0.117254	-4.544667	-1.295584
1.160	2.216163	-4.650471	664.094781	-8.619564	30.056558	0.114630	-4.525944	-1.297942
1.170	2.302468	-4.592368	664.206158	-8.639266	29.951414	0.110379	-4.509355	-1.300690
1.180	2.354716	-4.548748	664.372823	-8.666303	29.865076	0.105619	-4.495228	-1.304434
1.190	2.379615	-4.531915	664.545590	-8.702836	29.794944	0.102121	-4.483506	-1.309592
1.200	2.386466	-4.547323	664.650063	-8.749475	29.734549	0.102046	-4.473715	-1.316403
1.210	2.384600	-4.593017	664.615417	-8.805625	29.675502	0.107526	-4.465064	-1.324920
1.220	2.381741	-4.661394	664.408375	-8.869688	29.610350	0.120132	-4.456649	-1.334975
1.230	2.383612	-4.742451	664.054382	-8.939030	29.535104	0.140363	-4.447694	-1.346129
1.240	2.394310	-4.827096	663.633347	-9.009927	29.450325	0.167344	-4.437740	-1.357666
1.250	2.416570	-4.909048	663.251116	-9.077874	29.360414	0.198884	-4.426742	-1.368693
1.260	2.451472	-4.984724	663.000526	-9.138394	29.271546	0.231859	-4.415011	-1.378339
1.270	2.498038	-5.051858	662.929723	-9.188085	29.189184	0.262818	-4.403059	-1.385982
1.280	2.553482	-5.108200	663.029741	-9.225311	29.116197	0.288612	-4.391386	-1.391387
1.290	2.614327	-5.151091	663.243240	-9.250118	29.052234	0.306891	-4.380329	-1.394680
1.300	2.677787	-5.177679	663.487422	-9.263422	28.994477	0.316364	-4.370012	-1.396171
1.310	2.742340	-5.185431	663.680460	-9.265950	28.939461	0.316856	-4.360451	-1.396146
1.320	2.806820	-5.172985	663.762979	-9.257559	28.885267	0.309221	-4.351744	-1.394709
1.330	2.868474	-5.141452	663.711042	-9.237280	28.833180	0.295194	-4.344237	-1.391762
1.340	2.921389	-5.095610	663.539927	-9.204031	28.788055	0.277201	-4.338557	-1.387110
1.350	2.956509	-5.043892	663.297957	-9.157577	28.757034	0.258109	-4.335462	-1.380613
1.360	2.963522	-4.996509	663.050529	-9.099232	28.746998	0.240876	-4.335567	-1.372329
1.370	2.934134	-4.962281	662.858311	-9.031989	28.761813	0.228082	-4.339059	-1.362582
1.380	2.865820	-4.945689	662.757712	-8.960040	28.800583	0.221425	-4.345567	-1.351933
1.390	2.764798	-4.945519	662.751831	-8.887941	28.857699	0.221327	-4.354224	-1.341066
1.400	2.646635	-4.955410	662.815338	-8.819754	28.924485	0.226847	-4.363883	-1.330650
1.410	2.533376	-4.965788	662.910247	-8.758437	28.991631	0.235937	-4.373387	-1.321210
1.420	2.447523	-4.966505	663.005491	-8.705571	29.051433	0.245953	-4.381779	-1.313047
1.430	2.404945	-4.949534	663.092533	-8.661349	29.099226	0.254260	-4.388411	-1.306205
1.440	2.409713	-4.911046	663.190636	-8.624773	29.133768	0.258755	-4.392970	-1.300497
1.450	2.453132	-4.852267	663.338490	-8.594074	29.156637	0.258210	-4.395439	-1.295579
1.460	2.517394	-4.778912	663.574498	-8.567399	29.170940	0.252342	-4.396031	-1.291098
1.470	2.582129	-4.699495	663.914258	-8.543586	29.179830	0.241674	-4.395120	-1.286851
1.480	2.631107	-4.623040	664.336506	-8.522680	29.185416	0.227270	-4.393168	-1.282886
1.490	2.656671	-4.556858	664.784920	-8.505809	29.188437	0.210481	-4.390659	-1.279483
1.500	2.660649	-4.505038	665.184961	-8.494362	29.188714	0.192733	-4.388060	-1.276992
1.510	2.651728	-4.467981	665.467744	-8.488836	29.186055	0.175326	-4.385796	-1.275619
1.520	2.640437	-4.442840	665.590519	-8.487981	29.181144	0.159255	-4.384249	-1.275256
1.530	2.633881	-4.424513	665.546167	-8.488702	29.175922	0.145066	-4.383756	-1.275449
1.540	2.632548	-4.407011	665.360303	-8.486618	29.173207	0.132815	-4.384573	-1.275492
1.550	2.630534	-4.385180	665.080173	-8.476883	29.175643	0.122165	-4.386786	-1.274566
1.560	2.618849	-4.356478	664.761001	-8.454890	29.184499	0.112644	-4.390224	-1.271869
1.570	2.590236	-4.322136	664.453406	-8.416890	29.198899	0.103995	-4.394424	-1.266739
1.580	2.543476	-4.286908	664.193703	-8.360623	29.215842	0.096454	-4.398693	-1.258763
1.590	2.485357	-4.257152	663.999093	-8.285985	29.230977	0.090768	-4.402262	-1.247891
1.600	2.429279	-4.237968	663.869665	-8.195505	29.239865	0.087863	-4.404459	-1.234505
1.610	2.390916	-4.230847	663.796527	-8.094374	29.239364	0.088292	-4.404868	-1.219406
1.620	2.382735	-4.233123	663.771921	-7.989927	29.228683	0.091783	-4.403423	-1.203716
1.630	2.409643	-4.239604	663.796057	-7.890640	29.209729	0.097173	-4.400407	-1.188714
1.640	2.467397	-4.245472	663.877583	-7.804759	29.186607	0.102790	-4.396384	-1.175632
1.650	2.544180	-4.248702	664.028042	-7.738822	29.164545	0.107107	-4.392065	-1.165436
1.660	2.624623	-4.250481	664.253148	-7.696429	29.148735	0.109388	-4.388197	-1.158659
1.670	2.694789	-4.253540	664.543804	-7.677648	29.143418	0.110015	-4.385477	-1.155326
1.680	2.746216	-4.259731	664.868542	-7.679206	29.151160	0.110380	-4.384500	-1.154996
1.690	2.777401	-4.268444	665.168782	-7.695308	29.172124	0.112386	-4.385673	-1.156896
1.700	2.792181	-4.276468	665.360638	-7.718814	29.203537	0.117752	-4.389129	-1.160095
1.710	2.795867	-4.278825	665.349057	-7.742531	29.239935	0.127359	-4.394676	-1.163680
1.720	2.790909	-4.269935	665.056663	-7.760410	29.274810	0.140844	-4.401852	-1.166879
1.730	2.773925	-4.244987	664.459979	-7.768386	29.303431	0.156660	-4.410112	-1.169128
1.740	2.735432	-4.201702	663.616442	-7.764715	29.325685	0.172624	-4.419071	-1.170061
1.750	2.662718	-4.142102	662.665616	-7.749851	29.347350	0.186734	-4.428682	-1.169496
1.760	2.545078	-4.073308	661.798764	-7.726134	29.378875	0.197893	-4.439246	-1.167445
1.770	2.379490	-4.006421	661.206135	-7.697461	29.431903	0.206221	-4.451245	-1.164154
1.780	2.174336	-3.953586	661.021677	-7.668837	29.514858	0.212847	-4.465036	-1.160149
1.790	1.949508	-3.924414	661.285098	-7.645610	29.629281	0.219339	-4.480561	-1.156175
1.800	1.732622	-3.923389	661.932753	-7.632314	29.768391	0.227067	-4.497193	-1.153035
1.810	1.552497	-3.949429	662.817834	-7.631397	29.918392	0.236726	-4.513818	-1.151357
1.820	1.431847	-3.997622	663.751702	-7.642325	30.061992	0.248126	-4.529102	-1.151383
1.830	1.381330	-4.061988	664.553317	-7.661524	30.182820	0.260269	-4.541821	-1.152883
1.840	1.396784	-4.137666	665.092427	-7.683276	30.269338	0.271682	-4.551148	-1.155219
1.850	1.460744	-4.221564	665.314935	-7.701340	30.317188	0.280965	-4.556818	-1.157548
1.860	1.548022	-4.311566	665.245167	-7.710809	30.329527	0.287342	-4.559150	-1.159093
1.870	1.633493	-4.405093	664.967278	-7.709609	30.315432	0.290921	-4.558936	-1.159397
1.880	1.699216	-4.497879	664.593861	-7.699064	30.286926	0.292452	-4.557208	-1.158462
1.890	1.738354	-4.583509	664.232417	-7.683268	30.255547	0.292649	-4.554964	-1.156714
1.900	1.754865	-4.653963	663.959531	-7.667530	30.229515	0.291516	-4.552915	-1.154819
1.910	1.759775	-4.701101	663.808601	-7.656541	30.212329	0.288108	-4.551361	-1.153426
1.920	1.765967	-4.718747	663.771392	-7.652973	30.203121	0.280936	-4.550229	-1.152953
1.930	1.783433	-4.704802	663.809704	-7.656890	30.198445	0.268793	-4.549262	-1.153477
1.940	1.816179	-4.662643	663.872403	-7.665892	30.194706	0.251533	-4.548270	-1.154724
1.950	1.861302	-4.601079	663.913232	-7.675689	30.190199	0.230377	-4.547311	-1.156128
1.960	1.910306	-4.532591	663.904433	-7.680874	30.185990	0.207546	-4.546737	-1.156925
1.970	1.952105	-4.470249	663.841828	-7.675844	30.185422	0.185409	-4.547081	-1.156276
1.980	1.976536	-4.424258	663.740542	-7.655832	30.192551	0.165591	-4.548848	-1.153437
1.990	1.977178	-4.399250	663.625211	-7.617887	30.210175	0.148531	-4.552295	-1.147920
2.000	1.952793	-4.393292	663.520238	-7.561561	30.238221	0.133687	-4.557242	-1.139613
2.010	1.907314	-4.398996	663.443613	-7.489076	30.273125	0.120190	-4.563029	-1.128819
2.020	1.848673	-4.406200	663.404743	-7.404818	30.308557	0.107507	-4.568637	-1.116184
2.030	1.786942	-4.405021	663.405008	-7.314226	30.337222	0.095767	-4.572956	-1.102528
2.040	1.732158	-4.388117	663.439388	-7.222365	30.352991	0.085652	-4.575096	-1.088625
2.050	1.692059	-4.351728	663.497912	-7.132738	30.352516	0.077944	-4.574621	-1.075020
2.060	1.670147	-4.295737	663.566701	-7.046774	30.335807	0.072979	-4.571629	-1.061954
2.070	1.664811	-4.223089	663.629670	-6.964119	30.305854	0.070247	-4.566682	-1.049398
2.080	1.670042	-4.138617	663.671973	-6.883470	30.267704	0.068410	-4.560642	-1.037180
2.090	1.677544	-4.047371	663.684537	-6.803561	30.227358	0.065779	-4.554477	-1.025120
2.100	1.679436	-3.953004	663.667270	-6.723931	30.190723	0.061074	-4.549075	-1.013148
2.110	1.670572	-3.857095	663.629089	-6.645206	30.162725	0.054084	-4.545118	-1.001343
2.120	1.649676	-3.759905	663.584963	-6.568819	30.146651	0.045888	-4.542998	-0.989899
2.130	1.619038	-3.662240	663.551297	-6.496378	30.143679	0.038554	-4.542780	-0.979032
2.140	1.583164	-3.567314	663.541100	-6.429124	30.152572	0.034470	-4.544191	-0.968911
2.150	1.547231	-3.481316	663.560627	-6.367826	30.169584	0.035639	-4.546621	-0.959645
2.160	1.516169	-3.412159	663.609409	-6.313058	30.188818	0.043206	-4.549185	-0.951321
2.170	1.494618	-3.366915	663.684274	-6.265549	30.203272	0.057320	-4.550849	-0.944056
2.180	1.487298	-3.349135	663.785660	-6.226306	30.206498	0.077247	-4.550640	-0.937999
2.190	1.498902	-3.357237	663.922696	-6.196428	30.194424	0.101624	-4.547882	-0.933306
2.200	1.533019	-3.384689	664.113307	-6.176667	30.166637	0.128698	-4.542393	-0.930062
2.210	1.590545	-3.421994	664.376727	-6.166883	30.126473	0.156541	-4.534547	-0.928221
2.220	1.668673	-3.459788	664.718832	-6.165674	30.079622	0.183233	-4.525165	-0.927561
2.230	1.761249	-3.491801	665.115138	-6.170444	30.031601	0.207077	-4.515248	-0.927726
2.240	1.860320	-3.516326	665.499666	-6.177919	29.985078	0.226853	-4.505649	-0.928313
2.250	1.957755	-3.535451	665.768026	-6.184796	29.938478	0.242049	-4.496833	-0.928972
2.260	2.045771	-3.552553	665.799845	-6.188028	29.886928	0.252944	-4.488876	-0.929413
2.270	2.116252	-3.569523	665.498608	-6.184551	29.825428	0.260421	-4.481666	-0.929311
2.280	2.160238	-3.585222	664.836495	-6.170728	29.752810	0.265495	-4.475207	-0.928157
2.290	2.169244	-3.595746	663.883764	-6.142163	29.674355	0.268786	-4.469812	-0.925187
2.300	2.138525	-3.596123	662.805063	-6.094426	29.601530	0.270231	-4.466099	-0.919490
2.310	2.070307	-3.582447	661.819533	-6.024658	29.548714	0.269189	-4.464769	-0.910317
2.320	1.974595	-3.553410	661.138698	-5.933451	29.528240	0.264866	-4.466270	-0.897459
2.330	1.866713	-3.510728	660.905113	-5.826159	29.545827	0.256779	-4.470510	-0.881542
2.340	1.762850	-3.458522	661.152435	-5.712891	29.598187	0.245020	-4.476757	-0.864081
