Time[s]	Fx[N]	Fy[N]	Fz[N]	Mx[Nm]	My[Nm]	Mz[Nm]	COPx[cm]	COPy[cm]
0.010	5.238342	2.105988	499.796879	3.696243	1.954916	-1.606880	-0.391142	0.739549
0.020	5.015369	1.992847	500.159575	3.684262	1.992312	-1.604979	-0.398335	0.736617
0.030	4.812435	1.896958	500.470913	3.678443	2.029836	-1.601230	-0.405585	0.734996
0.040	4.646461	1.831568	500.695759	3.682379	2.066877	-1.594299	-0.412801	0.735452
0.050	4.526839	1.802047	500.823648	3.696301	2.101354	-1.583645	-0.419580	0.738044
0.060	4.453365	1.805523	500.866807	3.717466	2.129926	-1.569563	-0.425248	0.742207
0.070	4.416827	1.833496	500.850451	3.741811	2.148815	-1.553021	-0.429033	0.747091
0.080	4.402442	1.876102	500.801097	3.765988	2.154898	-1.535351	-0.430290	0.751993
0.090	4.395072	1.925695	500.738172	3.788748	2.146477	-1.517843	-0.428663	0.756632
0.100	4.384342	1.977824	500.671614	3.811063	2.123310	-1.501347	-0.424092	0.761190
0.110	4.367904	2.029492	500.604695	3.835151	2.085924	-1.486036	-0.416681	0.766104
0.120	4.351853	2.076366	500.538882	3.863049	2.034739	-1.471497	-0.406510	0.771778
0.130	4.348241	2.111212	500.477361	3.895411	1.969582	-1.457141	-0.393541	0.778339
0.140	4.370632	2.124992	500.425368	3.930872	1.889895	-1.442733	-0.377658	0.785506
0.150	4.429455	2.110477	500.387212	3.966123	1.795467	-1.428736	-0.358816	0.792611
0.160	4.528893	2.066675	500.361382	3.996699	1.687253	-1.416270	-0.337207	0.798763
0.170	4.665972	2.001635	500.336262	4.018314	1.567809	-1.406724	-0.313351	0.803123
0.180	4.831309	1.931730	500.288693	4.028330	1.441133	-1.401213	-0.288060	0.805201
0.190	5.010827	1.877187	500.186310	4.026785	1.312049	-1.400112	-0.262312	0.805057
0.200	5.188258	1.855530	499.993299	4.016500	1.185465	-1.402844	-0.237096	0.803311
0.210	5.348401	1.875563	499.678342	4.002142	1.065738	-1.407961	-0.213285	0.800944
0.220	5.480520	1.934171	499.223070	3.988539	0.956224	-1.413468	-0.191542	0.798949
0.230	5.580765	2.016896	498.629579	3.978897	0.858985	-1.417291	-0.172269	0.797966
0.240	5.652783	2.101810	497.926028	3.973724	0.774701	-1.417700	-0.155586	0.798055
0.250	5.706346	2.165326	497.168686	3.970933	0.702833	-1.413603	-0.141367	0.798709
0.260	5.754399	2.188341	496.437611	3.967003	0.642014	-1.404738	-0.129324	0.799094
0.270	5.809263	2.161238	495.823765	3.958597	0.590536	-1.391807	-0.119102	0.798388
0.280	5.878911	2.086452	495.409359	3.943912	0.546760	-1.376497	-0.110365	0.796092
0.290	5.964376	1.977695	495.247977	3.923331	0.509295	-1.361265	-0.102836	0.792195
0.300	6.059155	1.855900	495.352572	3.899169	0.476983	-1.348828	-0.096292	0.787150
0.310	6.150777	1.743176	495.695954	3.874741	0.448817	-1.341510	-0.090543	0.781677
0.320	6.223959	1.657008	496.222250	3.853251	0.423942	-1.340705	-0.085434	0.776517
0.330	6.264229	1.606645	496.863103	3.837097	0.401771	-1.346650	-0.080861	0.772264
0.340	6.261078	1.592373	497.551530	3.827826	0.382184	-1.358523	-0.076813	0.769333
0.350	6.210198	1.607071	498.229135	3.826456	0.365689	-1.374741	-0.073398	0.768011
0.360	6.114625	1.638965	498.846873	3.833689	0.353440	-1.393351	-0.070851	0.768510
0.370	5.984582	1.674919	499.363125	3.849761	0.347020	-1.412426	-0.069493	0.770934
0.380	5.835961	1.703869	499.743575	3.874072	0.348017	-1.430396	-0.069639	0.775212
0.390	5.687731	1.719865	499.964977	3.904985	0.357509	-1.446248	-0.071507	0.781052
0.400	5.558765	1.723861	500.020660	3.940154	0.375677	-1.459524	-0.075132	0.787998
0.410	5.464509	1.723439	499.923036	3.977434	0.401673	-1.470142	-0.080347	0.795609
0.420	5.414015	1.730247	499.700099	4.015978	0.433860	-1.478181	-0.086824	0.803678
0.430	5.408134	1.755923	499.387578	4.056810	0.470382	-1.483796	-0.094192	0.812357
0.440	5.439715	1.808053	499.021754	4.102404	0.509880	-1.487252	-0.102176	0.822089
0.450	5.496009	1.887647	498.637085	4.155434	0.551985	-1.488946	-0.110699	0.833358
0.460	5.562488	1.988781	498.268290	4.217411	0.597234	-1.489332	-0.119862	0.846414
0.470	5.626704	2.100110	497.952138	4.287866	0.646396	-1.488778	-0.129811	0.861100
0.480	5.680958	2.207556	497.723958	4.364334	0.699596	-1.487486	-0.140559	0.876858
0.490	5.723052	2.297320	497.608581	4.442996	0.755799	-1.485529	-0.151886	0.892870
0.500	5.754950	2.358548	497.610641	4.519699	0.813023	-1.483027	-0.163385	0.908280
0.510	5.779896	2.385269	497.710610	4.591028	0.869231	-1.480374	-0.174646	0.922429
0.520	5.799207	2.377485	497.869979	4.655155	0.923494	-1.478381	-0.185489	0.935014
0.530	5.810248	2.341292	498.044075	4.712095	0.976864	-1.478214	-0.196140	0.946120
0.540	5.806632	2.287889	498.196852	4.763215	1.032472	-1.481036	-0.207242	0.956091
0.550	5.780626	2.231488	498.310780	4.810230	1.094758	-1.487517	-0.219694	0.965307
0.560	5.726621	2.186535	498.387656	4.854308	1.168187	-1.497442	-0.234393	0.974002
0.570	5.643979	2.164999	498.440795	4.895840	1.256026	-1.509655	-0.251991	0.982231
0.580	5.538013	2.174552	498.483308	4.934925	1.359593	-1.522402	-0.272746	0.989988
0.590	5.418978	2.218150	498.518877	4.972162	1.478111	-1.533966	-0.296501	0.997387
0.600	5.299883	2.294978	498.540000	5.009170	1.609047	-1.543391	-0.322752	1.004768
0.610	5.194170	2.402126	498.534159	5.048437	1.748677	-1.550969	-0.350764	1.012656
0.620	5.113837	2.535990	498.493594	5.092539	1.892724	-1.558190	-0.379689	1.021586
0.630	5.067818	2.692579	498.422505	5.143090	2.037021	-1.567067	-0.408694	1.031874
0.640	5.059976	2.866773	498.337756	5.200004	2.178233	-1.579078	-0.437100	1.043470
0.650	5.086610	3.051296	498.263503	5.261338	2.314629	-1.594202	-0.464539	1.055935
0.660	5.134640	3.236152	498.224086	5.323690	2.446596	-1.610468	-0.491063	1.068533
0.670	5.182334	3.408629	498.240007	5.382867	2.576493	-1.624272	-0.517119	1.080376
0.680	5.203609	3.553742	498.328076	5.434600	2.707606	-1.631419	-0.543338	1.090567
0.690	5.174823	3.655404	498.502317	5.475270	2.842510	-1.628600	-0.570210	1.098344
0.700	5.081352	3.698919	498.771357	5.502597	2.981567	-1.614781	-0.597782	1.103230
0.710	4.921190	3.674865	499.131450	5.516118	3.122326	-1.591912	-0.625552	1.105143
0.720	4.704374	3.583288	499.558718	5.517131	3.260167	-1.564543	-0.652609	1.104401
0.730	4.449023	3.436355	500.006443	5.507994	3.389902	-1.538346	-0.677972	1.101585
0.740	4.175940	3.257699	500.411648	5.491099	3.507550	-1.518082	-0.700933	1.097316
0.750	3.903782	3.077903	500.710408	5.468070	3.611502	-1.505920	-0.721276	1.092062
0.760	3.646022	2.927225	500.856309	5.439499	3.702688	-1.500910	-0.739272	1.086040
0.770	3.410156	2.827966	500.834671	5.405171	3.783794	-1.499809	-0.755498	1.079233
0.780	3.198854	2.789013	500.667450	5.364543	3.857949	-1.498757	-0.770561	1.071478
0.790	3.012228	2.804166	500.407913	5.317258	3.927317	-1.494933	-0.784823	1.062585
0.800	2.850114	2.854559	500.127588	5.263554	3.992026	-1.487462	-0.798201	1.052442
0.810	2.713511	2.914303	499.899532	5.204439	4.049699	-1.477316	-0.810103	1.041097
0.820	2.604846	2.957567	499.781901	5.141642	4.095789	-1.466460	-0.819515	1.028777
0.830	2.527385	2.965017	499.804697	5.077376	4.124733	-1.456785	-0.825269	1.015872
0.840	2.484259	2.927840	499.961716	5.013919	4.131677	-1.449380	-0.826399	1.002861
0.850	2.477304	2.848495	500.210140	4.953038	4.114145	-1.444396	-0.822483	0.990192
0.860	2.505678	2.738476	500.480381	4.895438	4.072878	-1.441416	-0.813794	0.978148
0.870	2.564657	2.614310	500.695985	4.840631	4.011433	-1.439988	-0.801171	0.966780
0.880	2.645540	2.493229	500.797940	4.787465	3.934729	-1.439981	-0.785692	0.955967
0.890	2.737428	2.389482	500.763876	4.735117	3.847294	-1.441593	-0.768285	0.945579
0.900	2.830578	2.311761	500.614103	4.683952	3.752034	-1.445080	-0.749486	0.935641
0.910	2.919953	2.262054	500.402538	4.635615	3.649904	-1.450420	-0.729394	0.926377
0.920	3.007222	2.236086	500.197654	4.592140	3.540301	-1.457136	-0.707780	0.918065
0.930	3.100190	2.225123	500.061971	4.554557	3.421661	-1.464379	-0.684247	0.910799
0.940	3.209999	2.218656	500.036666	4.521857	3.291887	-1.471220	-0.658329	0.904305
0.950	3.347281	2.207395	500.133304	4.490962	3.148608	-1.476967	-0.629554	0.897953
0.960	3.518424	2.185912	500.331369	4.457733	2.989541	-1.481342	-0.597512	0.890956
0.970	3.722726	2.153995	500.580145	4.418498	2.813226	-1.484439	-0.561993	0.882676
0.980	3.951272	2.115971	500.805653	4.371346	2.620019	-1.486529	-0.523161	0.872863
0.990	4.188388	2.078135	500.924400	4.316569	2.412787	-1.487821	-0.481667	0.861721
1.000	4.415810	2.045523	500.863236	4.256089	2.196744	-1.488310	-0.438592	0.849751
1.010	4.618164	2.019547	500.579954	4.192275	1.978352	-1.487781	-0.395212	0.837484
1.020	4.787215	1.997276	500.076618	4.126885	1.763833	-1.485923	-0.352713	0.825250
1.030	4.922962	1.972437	499.399771	4.060618	1.558078	-1.482482	-0.311990	0.813100
1.040	5.031626	1.937832	498.627358	3.993246	1.364366	-1.477356	-0.273624	0.800848
1.050	5.122379	1.888509	497.848076	3.923943	1.184631	-1.470614	-0.237950	0.788181
1.060	5.204753	1.824329	497.142036	3.851599	1.019647	-1.462477	-0.205102	0.774748
1.070	5.287253	1.750440	496.569888	3.775154	0.868806	-1.453326	-0.174962	0.760246
1.080	5.376418	1.675178	496.171005	3.694073	0.729769	-1.443735	-0.147080	0.744516
1.090	5.475368	1.606502	495.965119	3.608854	0.598564	-1.434469	-0.120687	0.727643
1.100	5.581923	1.548923	495.952321	3.521303	0.470518	-1.426344	-0.094872	0.710008
1.110	5.687656	1.502403	496.112127	3.434422	0.341851	-1.419969	-0.068906	0.692267
1.120	5.779511	1.463269	496.405913	3.351968	0.211277	-1.415562	-0.042561	0.675247
1.130	5.844344	1.426128	496.784907	3.277869	0.080749	-1.413000	-0.016254	0.659817
1.140	5.874693	1.385716	497.201364	3.215695	-0.045217	-1.412038	0.009094	0.646759
1.150	5.872790	1.338319	497.618245	3.168193	-0.161455	-1.412504	0.032446	0.636671
1.160	5.850539	1.282904	498.013805	3.136887	-0.264397	-1.414307	0.053090	0.629880
1.170	5.825486	1.221977	498.380383	3.121817	-0.353573	-1.417283	0.070944	0.626392
1.180	5.814956	1.161716	498.719220	3.121556	-0.431777	-1.421008	0.086577	0.625914
1.190	5.831105	1.110888	499.033925	3.133479	-0.504025	-1.424763	0.101000	0.627909
1.200	5.878524	1.078456	499.324112	3.154133	-0.575920	-1.427680	0.115340	0.631681
1.210	5.954339	1.070618	499.579696	3.179569	-0.652012	-1.429034	0.130512	0.636449
1.220	6.049751	1.088656	499.777135	3.205719	-0.734492	-1.428507	0.146964	0.641430
1.230	6.151991	1.128711	499.880411	3.228997	-0.822407	-1.426290	0.164521	0.645954
1.240	6.246490	1.183512	499.849162	3.247146	-0.911638	-1.423024	0.182383	0.649625
1.250	6.319572	1.245012	499.652861	3.260052	-0.995818	-1.419600	0.199302	0.652463
1.260	6.361657	1.306682	499.285407	3.270058	-1.068076	-1.416899	0.213921	0.654948
1.270	6.370195	1.364714	498.772649	3.281378	-1.123116	-1.415516	0.225176	0.657891
1.280	6.351082	1.418049	498.168251	3.298671	-1.158877	-1.415566	0.232628	0.662160
1.290	6.317476	1.467494	497.539482	3.325213	-1.177056	-1.416658	0.236575	0.668331
1.300	6.285919	1.514428	496.949748	3.361469	-1.182189	-1.418082	0.237889	0.676420
1.310	6.270892	1.559824	496.445370	3.404755	-1.179588	-1.419152	0.237607	0.685827
1.320	6.279933	1.604160	496.050652	3.450243	-1.173030	-1.419524	0.236474	0.695542
1.330	6.311239	1.648067	495.770787	3.492818	-1.163179	-1.419365	0.234620	0.704523
1.340	6.354472	1.692937	495.599343	3.528917	-1.147426	-1.419271	0.231523	0.712050
1.350	6.394055	1.740748	495.526426	3.557585	-1.121118	-1.419955	0.226248	0.717941
1.360	6.413528	1.793132	495.544337	3.580523	-1.079488	-1.421829	0.217839	0.722543
1.370	6.399559	1.850260	495.649429	3.601195	-1.019344	-1.424691	0.205658	0.726561
1.380	6.344639	1.910179	495.841205	3.623316	-0.939855	-1.427702	0.189548	0.730741
1.390	6.248096	1.968826	496.120684	3.649260	-0.842376	-1.429709	0.169793	0.735559
1.400	6.115693	2.020643	496.488981	3.679105	-0.729751	-1.429750	0.146982	0.741025
1.410	5.958396	2.059554	496.945657	3.710835	-0.605659	-1.427459	0.121876	0.746729
1.420	5.790669	2.080120	497.486475	3.741525	-0.474318	-1.423169	0.095343	0.752086
1.430	5.628229	2.078777	498.101393	3.768806	-0.340442	-1.417670	0.068348	0.756634
1.440	5.485244	2.055024	498.773881	3.791815	-0.209152	-1.411831	0.041933	0.760227
1.450	5.371322	2.012141	499.481392	3.811251	-0.085536	-1.406317	0.017125	0.763042
1.460	5.289071	1.956987	500.195435	3.828737	0.026145	-1.401519	-0.005227	0.765448
1.470	5.233248	1.898934	500.880459	3.845928	0.123311	-1.397673	-0.024619	0.767834
1.480	5.192366	1.848489	501.493622	3.863901	0.205520	-1.395003	-0.040981	0.770479
1.490	5.152853	1.816033	501.988971	3.883066	0.274220	-1.393774	-0.054627	0.773536
1.500	5.104352	1.810542	502.326914	3.903561	0.331863	-1.394181	-0.066065	0.777096
1.510	5.043765	1.837962	502.484744	3.925799	0.380747	-1.396168	-0.075773	0.781277
1.520	4.975905	1.899514	502.461825	3.950810	0.422094	-1.399287	-0.084005	0.786291
1.530	4.910335	1.990877	502.276245	3.980205	0.455740	-1.402703	-0.090735	0.792433
1.540	4.856136	2.102982	501.955515	4.015784	0.480526	-1.405362	-0.095731	0.800028
1.550	4.817564	2.224098	501.527385	4.058973	0.495162	-1.406246	-0.098731	0.809322
1.560	4.793024	2.342029	501.015866	4.110284	0.499154	-1.404628	-0.099628	0.820390
1.570	4.777629	2.445523	500.443702	4.168983	0.493327	-1.400275	-0.098578	0.833057
1.580	4.767232	2.525125	499.838371	4.232996	0.479745	-1.393579	-0.095980	0.846873
1.590	4.760997	2.574373	499.236279	4.299021	0.461176	-1.385542	-0.092376	0.861119
1.600	4.760934	2.591683	498.680672	4.362866	0.440432	-1.377579	-0.088320	0.874882
1.610	4.769140	2.581890	498.212940	4.420095	0.419777	-1.371147	-0.084257	0.887190
1.620	4.784919	2.555811	497.861835	4.466961	0.400467	-1.367339	-0.080437	0.897229
1.630	4.803793	2.527085	497.636877	4.501336	0.382548	-1.366631	-0.076873	0.904542
1.640	4.818994	2.507316	497.529247	4.523246	0.365110	-1.368827	-0.073385	0.909142
1.650	4.824439	2.501724	497.518642	4.534784	0.347012	-1.373167	-0.069748	0.911480
1.660	4.817368	2.507379	497.582170	4.539510	0.327689	-1.378544	-0.065856	0.912314
1.670	4.799340	2.514854	497.702407	4.541576	0.307482	-1.383784	-0.061780	0.912508
1.680	4.775544	2.512432	497.873120	4.544731	0.287226	-1.387990	-0.057691	0.912829
1.690	4.753196	2.490822	498.100750	4.551296	0.267380	-1.390823	-0.053680	0.913730
1.700	4.739800	2.446310	498.399305	4.561390	0.247286	-1.392648	-0.049616	0.915208
1.710	4.741546	2.381342	498.778928	4.572798	0.225075	-1.394427	-0.045125	0.916799
1.720	4.761864	2.302922	499.232904	4.581638	0.198314	-1.397386	-0.039724	0.917736
1.730	4.800333	2.220070	499.730229	4.583537	0.165116	-1.402547	-0.033041	0.917202
1.740	4.852465	2.141441	500.218331	4.574864	0.125197	-1.410294	-0.025028	0.914573
1.750	4.910735	2.073625	500.634953	4.553734	0.080402	-1.420148	-0.016060	0.909592
1.760	4.966486	2.020199	500.923479	4.520602	0.034402	-1.430892	-0.006868	0.902454
1.770	5.011904	1.981519	501.045245	4.478242	-0.008437	-1.440982	0.001684	0.893780
1.780	5.041634	1.955309	500.985724	4.430973	-0.044689	-1.449083	0.008920	0.884451
1.790	5.054154	1.937873	500.755693	4.383343	-0.073414	-1.454490	0.014661	0.875346
1.800	5.052946	1.925327	500.389735	4.338875	-0.096972	-1.457283	0.019379	0.867099
1.810	5.046709	1.914281	499.942333	4.299473	-0.120701	-1.458193	0.024143	0.859994
1.820	5.047686	1.901982	499.479936	4.265602	-0.151451	-1.458280	0.030322	0.854009
1.830	5.068017	1.886403	499.068751	4.236855	-0.195482	-1.458566	0.039169	0.848952
1.840	5.115465	1.866520	498.761456	4.212450	-0.256515	-1.459751	0.051430	0.844582
1.850	5.190552	1.842434	498.587596	4.191511	-0.334773	-1.462059	0.067144	0.840677
1.860	5.286631	1.815009	498.550021	4.173335	-0.427334	-1.465187	0.085715	0.837094
1.870	5.392834	1.785157	498.626291	4.157771	-0.529394	-1.468373	0.106170	0.833845
1.880	5.498380	1.753367	498.773243	4.145559	-0.635677	-1.470643	0.127448	0.831151
1.890	5.596111	1.719947	498.934640	4.138321	-0.741369	-1.471231	0.148590	0.829432
1.900	5.683839	1.685881	499.052380	4.138034	-0.842497	-1.469955	0.168819	0.829178
1.910	5.763471	1.653599	499.079556	4.146125	-0.935987	-1.467310	0.187543	0.830754
1.920	5.839097	1.626993	498.991452	4.162606	-1.019690	-1.464205	0.204350	0.834204
1.930	5.915314	1.610561	498.790377	4.185671	-1.092422	-1.461505	0.219014	0.839164
1.940	5.996109	1.608046	498.502191	4.212024	-1.153891	-1.459635	0.231472	0.844936
1.950	6.083951	1.621251	498.165469	4.237805	-1.204384	-1.458432	0.241764	0.850682
1.960	6.178860	1.649674	497.817783	4.259737	-1.244285	-1.457293	0.249948	0.855682
1.970	6.277845	1.691095	497.485323	4.275981	-1.273697	-1.455509	0.256027	0.859519
1.980	6.375307	1.742499	497.179893	4.286397	-1.292435	-1.452599	0.259953	0.862142
1.990	6.464567	1.800547	496.902917	4.292200	-1.300390	-1.448481	0.261699	0.863791
2.000	6.539928	1.861341	496.653104	4.295239	-1.297991	-1.443416	0.261348	0.864837
2.010	6.598117	1.919837	496.434200	4.297302	-1.286411	-1.437769	0.259130	0.865634
2.020	6.638226	1.969575	496.260021	4.299743	-1.267293	-1.431775	0.255369	0.866429
2.030	6.660261	2.003397	496.154538	4.303381	-1.242126	-1.425435	0.250351	0.867347
2.040	6.663541	2.015281	496.146101	4.308386	-1.211575	-1.418559	0.244197	0.868370
2.050	6.646321	2.002458	496.257275	4.313936	-1.175146	-1.410885	0.236802	0.869294
2.060	6.606971	1.966530	496.494400	4.317904	-1.131344	-1.402181	0.227866	0.869678
2.070	6.545758	1.912866	496.841936	4.317037	-1.078361	-1.392359	0.217043	0.868896
2.080	6.465998	1.848733	497.265156	4.307926	-1.015030	-1.381599	0.204123	0.866324
2.090	6.373822	1.781312	497.720633	4.288488	-0.941714	-1.370425	0.189205	0.861626
2.100	6.276729	1.716453	498.169653	4.259320	-0.860736	-1.359650	0.172780	0.854994
2.110	6.181684	1.658295	498.588412	4.224234	-0.776142	-1.350197	0.155668	0.847239
2.120	6.093786	1.609306	498.971272	4.189596	-0.692782	-1.342873	0.138842	0.839647
2.130	6.016144	1.570436	499.326963	4.162533	-0.615069	-1.338164	0.123180	0.833629
2.140	5.950738	1.541369	499.670004	4.148598	-0.545907	-1.336068	0.109253	0.830268
2.150	5.899299	1.520914	500.010648	4.149932	-0.486197	-1.336056	0.097237	0.829969
2.160	5.863369	1.507387	500.347062	4.164818	-0.434980	-1.337206	0.086936	0.832386
2.170	5.843647	1.498762	500.662915	4.188859	-0.390002	-1.338495	0.077897	0.836663
2.180	5.839465	1.492672	500.931137	4.217146	-0.348427	-1.339141	0.069556	0.841861
2.190	5.849015	1.486685	501.121055	4.246357	-0.307544	-1.338867	0.061371	0.847372
2.200	5.870153	1.479273	501.204817	4.275862	-0.265374	-1.337968	0.052947	0.853117
2.210	5.901125	1.471292	501.161588	4.307430	-0.221106	-1.337167	0.044119	0.859489
2.220	5.940789	1.467104	500.980921	4.343897	-0.175274	-1.337320	0.034986	0.867078
2.230	5.988389	1.474250	500.666172	4.387697	-0.129625	-1.339102	0.025890	0.876372
2.240	6.042987	1.501122	500.235949	4.440153	-0.086661	-1.342821	0.017324	0.887612
2.250	6.102491	1.553301	499.720770	4.501861	-0.048798	-1.348408	0.009765	0.900875
2.260	6.162258	1.630476	499.154718	4.573718	-0.017058	-1.355550	0.003417	0.916293
2.270	6.213926	1.726074	498.565591	4.657802	0.010395	-1.363903	-0.002085	0.934241
2.280	6.245581	1.830301	497.968772	4.757384	0.039203	-1.373282	-0.007873	0.955358
2.290	6.243984	1.935040	497.368654	4.875852	0.078491	-1.383772	-0.015781	0.980330
2.300	6.198436	2.037793	496.767562	5.014908	0.138992	-1.395696	-0.027979	1.009508
2.310	6.105041	2.142537	496.178193	5.172830	0.230109	-1.409403	-0.046376	1.042535
2.320	5.969940	2.257126	495.633953	5.343673	0.356895	-1.424930	-0.072008	1.078149
2.330	5.810329	2.388442	495.192361	5.517926	0.518018	-1.441663	-0.104609	1.114299
2.340	5.652337	2.537349	494.928665	5.684531	0.705435	-1.458237	-0.142533	1.148556
2.350	5.525380	2.695826	494.919615	5.833591	0.906023	-1.472780	-0.183065	1.178695
2.360	5.453634	2.847948	495.221214	5.958781	1.104798	-1.483452	-0.223092	1.203256
2.370	5.446903	2.974629	495.847965	6.058654	1.288761	-1.489065	-0.259910	1.221877
2.380	5.494487	3.059927	496.761604	6.136502	1.450113	-1.489515	-0.291913	1.235301
2.390	5.565500	3.095870	497.873797	6.198930	1.587673	-1.485839	-0.318891	1.245081
2.400	5.616828	3.083797	499.062118	6.253676	1.705973	-1.479853	-0.341836	1.253086
2.410	5.606578	3.032291	500.194893	6.307354	1.812535	-1.473479	-0.362366	1.260979
2.420	5.508128	2.953483	501.158277	6.363729	1.914688	-1.468066	-0.382053	1.269804
2.430	5.319301	2.859912	501.877886	6.422918	2.017247	-1.464036	-0.401940	1.279777
