Time[s]	Fx[N]	Fy[N]	Fz[N]	Mx[Nm]	My[Nm]	Mz[Nm]	COPx[cm]	COPy[cm]
0.010	6.367322	-3.217669	677.599963	-1.106981	-0.390259	-1.359972	0.057594	-0.163368
0.020	6.029196	-3.353941	677.665711	-1.186883	-0.027888	-1.351575	0.004115	-0.175143
0.030	5.687801	-3.471422	677.720685	-1.262002	0.345379	-1.345402	-0.050962	-0.186213
0.040	5.329745	-3.555993	677.762594	-1.328888	0.742170	-1.343297	-0.109503	-0.196070
0.050	4.931583	-3.601128	677.800947	-1.386745	1.177289	-1.346212	-0.173692	-0.204595
0.060	4.465549	-3.608924	677.852426	-1.438022	1.664186	-1.353451	-0.245509	-0.212144
0.070	3.912359	-3.589338	677.932252	-1.488184	2.209326	-1.362272	-0.325892	-0.219518
0.080	3.276120	-3.558147	678.046327	-1.544574	2.807143	-1.368369	-0.414005	-0.227798
0.090	2.593940	-3.533886	678.186900	-1.614581	3.438213	-1.367304	-0.506971	-0.238073
0.100	1.933936	-3.533890	678.332468	-1.703695	4.071814	-1.356429	-0.600268	-0.251159
0.110	1.379884	-3.570108	678.451457	-1.814060	4.672156	-1.336445	-0.688650	-0.267382
0.120	1.006562	-3.646194	678.508466	-1.944098	5.206114	-1.311868	-0.767288	-0.286525
0.130	0.854374	-3.757361	678.471204	-2.089412	5.649880	-1.290052	-0.832737	-0.307959
0.140	0.913096	-3.893283	678.316328	-2.244650	5.992487	-1.279008	-0.883435	-0.330915
0.150	1.122173	-4.042587	678.033774	-2.405435	6.235330	-1.284762	-0.919619	-0.354766
0.160	1.389257	-4.196729	677.630885	-2.569371	6.388224	-1.309228	-0.942729	-0.379170
0.170	1.621410	-4.351707	677.137583	-2.735616	6.463758	-1.349393	-0.954571	-0.403997
0.180	1.757459	-4.507327	676.611368	-2.903351	6.472092	-1.397995	-0.956545	-0.429102
0.190	1.788797	-4.664805	676.137790	-3.070057	6.417964	-1.445334	-0.949209	-0.454058
0.200	1.760612	-4.823923	675.820954	-3.230609	6.300619	-1.481558	-0.932291	-0.478027
0.210	1.753667	-4.981047	675.761543	-3.377771	6.116326	-1.498796	-0.905101	-0.499847
0.220	1.853899	-5.128921	676.026192	-3.503828	5.862275	-1.492684	-0.867167	-0.518298
0.230	2.120761	-5.258188	676.618729	-3.602443	5.540131	-1.463023	-0.818797	-0.532418
0.240	2.565086	-5.359577	677.466486	-3.669700	5.157524	-1.413522	-0.761296	-0.541680
0.250	3.144186	-5.425388	678.430904	-3.703778	4.726477	-1.350782	-0.696678	-0.545933
0.260	3.776378	-5.449697	679.341819	-3.703465	4.259226	-1.282890	-0.626964	-0.545155
0.270	4.370344	-5.427762	680.044135	-3.666449	3.763334	-1.218016	-0.553396	-0.539149
0.280	4.858729	-5.355629	680.439438	-3.588515	3.238790	-1.163287	-0.475985	-0.527382
0.290	5.222651	-5.230615	680.506641	-3.464389	2.679134	-1.123999	-0.393697	-0.509090
0.300	5.496485	-5.052763	680.294846	-3.290006	2.076715	-1.103075	-0.305267	-0.483615
0.310	5.750402	-4.826786	679.894702	-3.065127	1.429707	-1.100776	-0.210284	-0.450824
0.320	6.058388	-4.563467	679.404026	-2.794888	0.746991	-1.114747	-0.109948	-0.411373
0.330	6.466328	-4.279192	678.902949	-2.489311	0.047679	-1.140501	-0.007023	-0.366667
0.340	6.974235	-3.992785	678.444720	-2.160823	-0.645263	-1.172318	0.095109	-0.318497
0.350	7.539315	-3.720323	678.058856	-1.820782	-1.314561	-1.204330	0.193871	-0.268529
0.360	8.096749	-3.470313	677.759736	-1.476429	-1.956839	-1.231535	0.288722	-0.217840
0.370	8.587856	-3.241975	677.555024	-1.129395	-2.585553	-1.250557	0.381600	-0.166687
0.380	8.983492	-3.027679	677.450353	-0.776159	-3.227150	-1.260034	0.476367	-0.114571
0.390	9.293846	-2.817985	677.448731	-0.410153	-3.911838	-1.260578	0.577437	-0.060544
0.400	9.561988	-2.606268	677.545976	-0.024826	-4.662452	-1.254268	0.688138	-0.003664
0.410	9.845042	-2.390581	677.725765	0.383295	-5.485509	-1.243775	0.809399	0.056556
0.420	10.191263	-2.172514	677.957813	0.812489	-6.367575	-1.231396	0.939229	0.119844
0.430	10.622314	-1.954644	678.201317	1.255295	-7.278024	-1.218353	1.073136	0.185092
0.440	11.127452	-1.738707	678.414271	1.699598	-8.176855	-1.204586	1.205289	0.250525
0.450	11.671010	-1.525749	678.566364	2.130898	-9.024434	-1.189034	1.329927	0.314029
0.460	12.208675	-1.317953	678.649721	2.535043	-9.789601	-1.170196	1.442512	0.373542
0.470	12.704386	-1.120458	678.681387	2.900680	-10.453595	-1.146777	1.540280	0.427399
0.480	13.140153	-0.941279	678.695772	3.220860	-11.009178	-1.118304	1.622108	0.474566
0.490	13.515067	-0.788691	678.730852	3.493577	-11.456132	-1.085641	1.687876	0.514722
0.500	13.834952	-0.667407	678.814615	3.721241	-11.795477	-1.051245	1.737658	0.548197
0.510	14.098106	-0.575905	678.956358	3.909159	-12.024921	-1.018965	1.771089	0.575760
0.520	14.284370	-0.506523	679.143370	4.063227	-12.137477	-0.993265	1.787175	0.598287
0.530	14.354099	-0.448221	679.341062	4.187558	-12.123903	-0.977971	1.784656	0.616415
0.540	14.259869	-0.390795	679.495754	4.283070	-11.978095	-0.974931	1.762792	0.630331
0.550	13.967573	-0.329113	679.542161	4.347734	-11.703067	-0.983109	1.722199	0.639803
0.560	13.477464	-0.265916	679.418374	4.378323	-11.314465	-0.998547	1.665316	0.644422
0.570	12.833685	-0.211815	679.086856	4.372822	-10.839348	-1.015348	1.596165	0.643927
0.580	12.115083	-0.181815	678.552956	4.332441	-10.310010	-1.027464	1.519411	0.638482
0.590	11.408814	-0.189350	677.869966	4.262303	-9.755108	-1.030698	1.439082	0.628779
0.600	10.777262	-0.240458	677.126551	4.170347	-9.191904	-1.024210	1.357487	0.615889
0.610	10.233477	-0.331088	676.423351	4.064892	-8.623226	-1.010927	1.274827	0.600939
0.620	9.737881	-0.449000	675.850716	3.952169	-8.040711	-0.996689	1.189717	0.584769
0.630	9.219332	-0.579225	675.475941	3.835220	-7.432841	-0.988330	1.100386	0.567780
0.640	8.611354	-0.710272	675.340462	3.714664	-6.793901	-0.991338	1.005997	0.550043
0.650	7.886242	-0.838071	675.461097	3.590519	-6.129603	-1.007879	0.907469	0.531566
0.660	7.070899	-0.965784	675.827928	3.463691	-5.457049	-1.036018	0.807461	0.512511
0.670	6.237911	-1.099727	676.396330	3.336321	-4.799743	-1.070555	0.709605	0.493249
0.680	5.477552	-1.243580	677.079247	3.211314	-4.180537	-1.105186	0.617437	0.474289
0.690	4.864658	-1.393920	677.751206	3.091980	-3.615899	-1.135051	0.533514	0.456212
0.700	4.434937	-1.539397	678.271912	2.982342	-3.113658	-1.158481	0.459058	0.439697
0.710	4.179374	-1.664072	678.525319	2.887861	-2.674512	-1.177179	0.394165	0.425609
0.720	4.056608	-1.753307	678.457994	2.815918	-2.295990	-1.194832	0.338413	0.415047
0.730	4.015769	-1.799217	678.097999	2.775404	-1.976709	-1.214971	0.291508	0.409292
0.740	4.018643	-1.802963	677.545038	2.775233	-1.718750	-1.239195	0.253673	0.409601
0.750	4.051129	-1.773035	676.937377	2.822078	-1.526796	-1.266574	0.225545	0.416889
0.760	4.119474	-1.720827	676.410880	2.918130	-1.404233	-1.294282	0.207601	0.431414
0.770	4.234625	-1.655964	676.065740	3.059904	-1.348166	-1.318908	0.199413	0.452605
0.780	4.394356	-1.583513	675.950187	3.238805	-1.346352	-1.337680	0.199179	0.479148
0.790	4.573796	-1.503807	676.062481	3.443326	-1.378502	-1.349074	0.203902	0.509321
0.800	4.730320	-1.414100	676.365673	3.661965	-1.422286	-1.352702	0.210284	0.541418
0.810	4.821249	-1.310576	676.806077	3.885716	-1.461731	-1.348771	0.215975	0.574125
0.820	4.826416	-1.189775	677.328013	4.109380	-1.494124	-1.337608	0.220591	0.606705
0.830	4.765009	-1.049464	677.882184	4.331583	-1.531986	-1.319589	0.225996	0.638988
0.840	4.698040	-0.889610	678.428593	4.553720	-1.598842	-1.295417	0.235668	0.671216
0.850	4.713275	-0.714046	678.935393	4.778207	-1.720253	-1.266475	0.253375	0.703779
0.860	4.896255	-0.532560	679.374648	5.006455	-1.913586	-1.234992	0.281669	0.736921
0.870	5.297150	-0.361955	679.717270	5.237116	-2.180435	-1.203932	0.320786	0.770484
0.880	5.906160	-0.224165	679.931365	5.465244	-2.504491	-1.176610	0.368345	0.803794
0.890	6.648170	-0.140673	679.987729	5.682876	-2.855547	-1.156105	0.419941	0.835732
0.900	7.400423	-0.124740	679.872033	5.881042	-3.198195	-1.144577	0.470411	0.865022
0.910	8.027895	-0.174900	679.597753	6.052546	-3.502209	-1.142728	0.515336	0.890607
0.920	8.424046	-0.273220	679.211953	6.194421	-3.751088	-1.149591	0.552271	0.912001
0.930	8.542604	-0.389826	678.789149	6.309181	-3.945848	-1.162727	0.581307	0.929476
0.940	8.409439	-0.492098	678.414417	6.404521	-4.102841	-1.178745	0.604769	0.944043
0.950	8.111051	-0.554629	678.161678	6.491608	-4.246622	-1.193992	0.626196	0.957236
0.960	7.764763	-0.565723	678.074298	6.582381	-4.400726	-1.205216	0.649003	0.970746
0.970	7.481921	-0.528038	678.153324	6.686643	-4.579886	-1.210074	0.675347	0.986008
0.980	7.336836	-0.453753	678.356203	6.809951	-4.786463	-1.207445	0.705597	1.003890
0.990	7.350704	-0.357018	678.607021	6.953089	-5.012068	-1.197544	0.738582	1.024612
1.000	7.493530	-0.247342	678.816917	7.113258	-5.243306	-1.181851	0.772418	1.047891
1.010	7.701113	-0.126762	678.909789	7.286391	-5.468986	-1.162864	0.805554	1.073249
1.020	7.900316	0.008515	678.845469	7.469570	-5.685764	-1.143685	0.837564	1.100334
1.030	8.034394	0.163697	678.632396	7.662585	-5.899981	-1.127482	0.869393	1.129122
1.040	8.080726	0.341074	678.325002	7.868002	-6.125151	-1.116889	0.902982	1.159916
1.050	8.055706	0.538124	678.006285	8.089702	-6.376354	-1.113444	0.940456	1.193160
1.060	8.005760	0.748485	677.761466	8.330351	-6.664028	-1.117260	0.983241	1.229098
1.070	7.988463	0.964450	677.651543	8.588709	-6.989848	-1.127037	1.031481	1.267423
1.080	8.051491	1.178972	677.695155	8.857880	-7.346307	-1.140364	1.084014	1.307060
1.090	8.217607	1.386049	677.864436	9.125442	-7.719850	-1.154090	1.138849	1.346205
1.100	8.480529	1.579910	678.096249	9.375674	-8.095675	-1.164651	1.193883	1.382646
1.110	8.811070	1.754335	678.314571	9.593109	-8.461730	-1.168441	1.247464	1.414257
1.120	9.168514	1.903049	678.455195	9.765986	-8.810102	-1.162424	1.298553	1.439444
1.130	9.511210	2.020819	678.483577	9.888249	-9.135656	-1.144997	1.346482	1.457404
1.140	9.802785	2.104079	678.400694	9.959564	-9.433299	-1.116774	1.390520	1.468095
1.150	10.014213	2.150335	678.236859	9.983591	-9.695917	-1.080778	1.429577	1.471992
1.160	10.124601	2.156741	678.037347	9.965329	-9.914613	-1.041697	1.462252	1.469732
1.170	10.123449	2.119085	677.846185	9.908620	-10.081498	-1.004402	1.487284	1.461780
1.180	10.014565	2.032246	677.694604	9.814809	-10.193726	-0.972422	1.504177	1.448264
1.190	9.818902	1.892388	677.597082	9.683002	-10.256510	-0.947189	1.513659	1.429021
1.200	9.572896	1.700187	677.552898	9.511577	-10.283164	-0.928409	1.517692	1.403813
1.210	9.320991	1.463632	677.548923	9.300042	-10.291659	-0.915228	1.518954	1.372601
1.220	9.104306	1.198688	677.561730	9.050319	-10.298967	-0.907424	1.520004	1.335719
1.230	8.949641	0.926825	677.561126	8.767049	-10.315660	-0.905889	1.522469	1.293913
1.240	8.863192	0.669894	677.518621	8.457186	-10.343275	-0.912145	1.526641	1.248259
1.250	8.831489	0.444156	677.420869	8.129458	-10.375691	-0.927165	1.531646	1.200060
1.260	8.829037	0.255865	677.282104	7.793981	-10.403973	-0.950181	1.536136	1.150773
1.270	8.829393	0.100213	677.146889	7.461861	-10.422602	-0.978191	1.539194	1.101956
1.280	8.815564	-0.035864	677.078591	7.144476	-10.434613	-1.006579	1.541123	1.055192
1.290	8.786538	-0.168285	677.136890	6.852200	-10.453691	-1.030648	1.543808	1.011937
1.300	8.758541	-0.310223	677.353533	6.592640	-10.502307	-1.047274	1.550491	0.973294
1.310	8.761069	-0.468627	677.716573	6.368807	-10.606302	-1.055821	1.565006	0.939745
1.320	8.829045	-0.644059	678.169666	6.178053	-10.787709	-1.057907	1.590709	0.910989
1.330	8.993573	-0.833269	678.627049	6.012634	-11.058507	-1.056246	1.629541	0.886000
1.340	9.274204	-1.032489	678.999022	5.862123	-11.417718	-1.053200	1.681551	0.863348
1.350	9.674938	-1.239159	679.219058	5.716910	-11.852698	-1.049697	1.745048	0.841689
1.360	10.184502	-1.451094	679.263024	5.571316	-12.343560	-1.044937	1.817199	0.820200
1.370	10.779513	-1.664075	679.154482	5.425027	-12.868439	-1.036956	1.894773	0.798791
1.380	11.428458	-1.869890	678.956308	5.282473	-13.407371	-1.023858	1.974703	0.778028
1.390	12.095178	-2.056402	678.753582	5.150758	-13.943638	-1.005160	2.054300	0.758855
1.400	12.741897	-2.209937	678.632994	5.037223	-14.462816	-0.982632	2.131169	0.742260
1.410	13.332247	-2.319078	678.662354	4.947524	-14.950767	-0.960159	2.202976	0.729011
1.420	13.834488	-2.378344	678.873274	4.884565	-15.392128	-0.942605	2.267305	0.719511
1.430	14.224606	-2.390275	679.250359	4.848212	-15.770448	-0.934142	2.321743	0.713759
1.440	14.488767	-2.365116	679.729293	4.835569	-16.070335	-0.936719	2.364226	0.711396
1.450	14.624513	-2.318204	680.204527	4.841638	-16.280866	-0.949257	2.393525	0.711791
1.460	14.640462	-2.265948	680.546158	4.860187	-16.398712	-0.967848	2.409640	0.714160
1.470	14.554757	-2.221791	680.625040	4.884691	-16.429344	-0.986869	2.413861	0.717677
1.480	14.392760	-2.193455	680.343844	4.909196	-16.385489	-1.000628	2.408413	0.721576
1.490	14.184106	-2.182304	679.668666	4.929015	-16.283235	-1.005028	2.395761	0.725209
1.500	13.958793	-2.184859	678.651702	4.941133	-16.137233	-0.998708	2.377837	0.728081
1.510	13.742091	-2.195799	677.434043	4.944152	-15.956827	-0.983276	2.355480	0.729835
1.520	13.548910	-2.211215	676.222766	4.937789	-15.744621	-0.962570	2.328319	0.730202
1.530	13.379484	-2.230774	675.246527	4.922171	-15.497945	-0.941270	2.295154	0.728944
1.540	13.218943	-2.257743	674.702403	4.897414	-15.212541	-0.923446	2.254704	0.725863
1.550	13.042403	-2.296516	674.709355	4.863911	-14.886932	-0.911544	2.206422	0.720890
1.560	12.824720	-2.348409	675.280732	4.823294	-14.525777	-0.906072	2.151072	0.714265
1.570	12.551609	-2.407697	676.322006	4.779460	-14.140961	-0.905955	2.090862	0.706684
1.580	12.228049	-2.460400	677.652521	4.738728	-13.750044	-0.909322	2.029070	0.699286
1.590	11.880803	-2.487424	679.043867	4.708632	-13.372567	-0.914374	1.969323	0.693421
1.600	11.553578	-2.471512	680.264513	4.695686	-13.025436	-0.919990	1.914760	0.690274
1.610	11.295574	-2.405187	681.121449	4.703214	-12.718896	-0.925820	1.867346	0.690510
1.620	11.146735	-2.295763	681.492515	4.730316	-12.454404	-0.931875	1.827519	0.694111
1.630	11.124979	-2.164450	681.345114	4.772462	-12.224962	-0.937949	1.794239	0.700447
1.640	11.220461	-2.039115	680.738103	4.823445	-12.017378	-0.943297	1.765345	0.708561
1.650	11.398692	-1.943414	679.806440	4.877846	-11.815096	-0.946878	1.738009	0.717535
1.660	11.609818	-1.887106	678.732381	4.933037	-11.600238	-0.948056	1.709103	0.726802
1.670	11.798741	-1.862138	677.709875	4.989851	-11.354280	-0.947309	1.675389	0.736281
1.680	11.911851	-1.846495	676.909050	5.051566	-11.057883	-0.946414	1.633585	0.746270
1.690	11.899933	-1.814211	676.446804	5.121526	-10.691064	-0.947870	1.580474	0.757122
1.700	11.720520	-1.747239	676.368547	5.200408	-10.234921	-0.953727	1.513217	0.768872
1.710	11.343859	-1.643950	676.644393	5.284435	-9.675394	-0.964330	1.429908	0.780977
1.720	10.763604	-1.520423	677.180271	5.365583	-9.008351	-0.977598	1.330274	0.792342
1.730	10.008225	-1.403829	677.841069	5.434017	-8.244082	-0.989327	1.216226	0.801665
1.740	9.145729	-1.320826	678.480194	5.481987	-7.408909	-0.994655	1.091986	0.807980
1.750	8.275339	-1.285985	678.968936	5.507580	-6.542307	-0.990259	0.963565	0.811168
1.760	7.505086	-1.295152	679.220064	5.516546	-5.689605	-0.976323	0.837667	0.812188
1.770	6.921227	-1.326455	679.201849	5.521129	-4.892147	-0.957213	0.720279	0.812885
1.780	6.560850	-1.348588	678.940008	5.536193	-4.178063	-0.940343	0.615380	0.815417
1.790	6.399816	-1.332979	678.506957	5.574240	-3.556890	-0.933525	0.524223	0.821545
1.800	6.362741	-1.264774	678.001438	5.641395	-3.020022	-0.941944	0.445430	0.832062
1.810	6.351969	-1.148045	677.525197	5.735908	-2.546623	-0.966068	0.375871	0.846597
1.820	6.283536	-1.003226	677.163513	5.849497	-2.112396	-1.001428	0.311948	0.863823
1.830	6.114696	-0.858351	676.972638	5.970608	-1.697518	-1.040289	0.250751	0.881957
1.840	5.851671	-0.738319	676.973308	6.088091	-1.290888	-1.074440	0.190685	0.899310
1.850	5.535870	-0.656700	677.148936	6.193996	-0.889888	-1.097932	0.131417	0.914717
1.860	5.217349	-0.612973	677.449156	6.284870	-0.497171	-1.108719	0.073389	0.927726
1.870	4.929991	-0.595497	677.800165	6.361437	-0.117060	-1.108738	0.017271	0.938542
1.880	4.680528	-0.588227	678.121065	6.427045	0.246363	-1.102610	-0.036330	0.947772
1.890	4.454659	-0.577891	678.341986	6.485671	0.589081	-1.095710	-0.086841	0.956106
1.900	4.233988	-0.558496	678.418390	6.540440	0.906005	-1.092417	-0.133547	0.964072
1.910	4.012818	-0.531547	678.337792	6.593239	1.190483	-1.095112	-0.175500	0.971970
1.920	3.805628	-0.502453	678.118916	6.645339	1.435298	-1.104094	-0.211659	0.979967
1.930	3.642198	-0.475428	677.805934	6.698341	1.634871	-1.118207	-0.241200	0.988239
1.940	3.553932	-0.449919	677.460061	6.754597	1.787483	-1.135704	-0.263851	0.997047
1.950	3.559043	-0.420681	677.148927	6.816621	1.896305	-1.154887	-0.280042	1.006665
1.960	3.654039	-0.381336	676.934023	6.885713	1.968684	-1.174276	-0.290824	1.017191
1.970	3.814955	-0.328924	676.858550	6.960698	2.014160	-1.192452	-0.297575	1.028383
1.980	4.006489	-0.266291	676.939018	7.037782	2.042246	-1.207888	-0.301688	1.039648
1.990	4.193722	-0.200810	677.162309	7.111887	2.060859	-1.219085	-0.304337	1.050248
2.000	4.351202	-0.140495	677.487622	7.178795	2.075641	-1.225027	-0.306373	1.059620
2.010	4.466643	-0.090139	677.852484	7.236881	2.089877	-1.225742	-0.308309	1.067619
2.020	4.539552	-0.049710	678.183272	7.287438	2.104566	-1.222606	-0.310324	1.074553
2.030	4.577209	-0.015488	678.410356	7.333508	2.118421	-1.218162	-0.312262	1.080984
2.040	4.590946	0.017270	678.484867	7.378007	2.127916	-1.215480	-0.313628	1.087424
2.050	4.594602	0.051918	678.391555	7.422239	2.127650	-1.217257	-0.313632	1.094094
2.060	4.604950	0.089364	678.153141	7.465489	2.111143	-1.224968	-0.311308	1.100856
2.070	4.642212	0.128604	677.824957	7.505765	2.071779	-1.238327	-0.305651	1.107331
2.080	4.728666	0.168348	677.481720	7.541251	2.003363	-1.255284	-0.295707	1.113130
2.090	4.884770	0.208903	677.200048	7.571850	1.899952	-1.272602	-0.280560	1.118111
2.100	5.124170	0.253299	677.041201	7.600094	1.755057	-1.286858	-0.259225	1.122545
2.110	5.450187	0.306831	677.038863	7.630952	1.560714	-1.295489	-0.230521	1.127107
2.120	5.856221	0.374851	677.195898	7.670613	1.306956	-1.297509	-0.192995	1.132702
2.130	6.330663	0.459504	677.490471	7.724790	0.982215	-1.293662	-0.144978	1.140207
2.140	6.863695	0.556952	677.886605	7.797158	0.575093	-1.286009	-0.084836	1.150216
2.150	7.451307	0.656971	678.341613	7.888211	0.077587	-1.277145	-0.011438	1.162867
2.160	8.093203	0.746012	678.806525	7.994704	-0.510880	-1.269318	0.075261	1.177759
2.170	8.785576	0.812985	679.223127	8.109868	-1.179978	-1.263830	0.173725	1.193992
2.180	9.513314	0.855086	679.526027	8.224646	-1.906947	-1.260967	0.280629	1.210350
2.190	10.246530	0.880452	679.655684	8.329681	-2.657766	-1.260462	0.391046	1.225574
2.200	10.943440	0.905697	679.579864	8.417327	-3.390827	-1.262125	0.498959	1.238608
2.210	11.557985	0.948877	679.312410	8.482806	-4.062265	-1.266256	0.597997	1.248734
2.220	12.048430	1.020909	678.916716	8.524089	-4.631713	-1.273591	0.682221	1.255543
2.230	12.383593	1.119630	678.488938	8.540796	-5.067363	-1.284819	0.746860	1.258797
2.240	12.545757	1.229408	678.127571	8.532821	-5.349500	-1.299908	0.788863	1.258291
2.250	12.531451	1.326326	677.903319	8.499377	-5.472186	-1.317629	0.807222	1.253774
2.260	12.351425	1.386309	677.841739	8.438752	-5.443005	-1.335595	0.802991	1.244944
2.270	12.029791	1.392521	677.923110	8.348658	-5.280933	-1.350848	0.778987	1.231505
2.280	11.601482	1.339372	678.095341	8.226905	-5.012580	-1.360712	0.739215	1.213237
2.290	11.107800	1.232475	678.292118	8.072110	-4.667547	-1.363460	0.688132	1.190064
2.300	10.590801	1.085738	678.450645	7.884219	-4.273909	-1.358583	0.629951	1.162092
2.310	10.087740	0.917239	678.527252	7.664608	-3.854792	-1.346759	0.568112	1.129595
2.320	9.626569	0.745017	678.509385	7.415724	-3.426570	-1.329759	0.505014	1.092944
2.330	9.223098	0.583238	678.419360	7.140420	-2.998643	-1.310428	0.442004	1.052508
2.340	8.880155	0.439120	678.304750	6.841197	-2.574457	-1.292564	0.379543	1.008573
2.350	8.588639	0.311020	678.216207	6.519594	-2.153363	-1.280445	0.317504	0.961285
2.360	8.330340	0.188059	678.181703	6.175953	-1.732906	-1.277869	0.255522	0.910664
2.370	8.082708	0.051655	678.189784	5.809877	-1.311059	-1.286936	0.193317	0.856674
2.380	7.825673	-0.120570	678.190599	5.421518	-0.887891	-1.307055	0.130921	0.799409
