Time[s]	Fx[N]	Fy[N]	Fz[N]	Mx[Nm]	My[Nm]	Mz[Nm]	COPx[cm]	COPy[cm]
0.010	3.852987	-0.516501	666.970350	1.640457	33.656576	-0.939222	-5.046188	0.245956
0.020	3.819698	-0.414182	666.625319	1.606840	33.672905	-0.926973	-5.051249	0.241041
0.030	3.799482	-0.331198	666.346510	1.576479	33.687723	-0.916943	-5.055586	0.236585
0.040	3.800811	-0.282682	666.181833	1.552087	33.701299	-0.910485	-5.058874	0.232983
0.050	3.824708	-0.275361	666.148647	1.534975	33.716302	-0.907787	-5.061378	0.230425
0.060	3.863980	-0.306154	666.232297	1.525106	33.736947	-0.908085	-5.063841	0.228915
0.070	3.905165	-0.363285	666.393515	1.521493	33.767044	-0.910219	-5.067133	0.228318
0.080	3.932922	-0.429748	666.581401	1.522654	33.808097	-0.913199	-5.071863	0.228427
0.090	3.935615	-0.488237	666.748356	1.527009	33.858363	-0.916494	-5.078132	0.229023
0.100	3.910064	-0.525989	666.862643	1.533215	33.913142	-0.920035	-5.085476	0.229915
0.110	3.863344	-0.537988	666.914429	1.540396	33.965887	-0.924049	-5.092990	0.230974
0.120	3.810680	-0.527676	666.913697	1.548170	34.009731	-0.928864	-5.099570	0.232139
0.130	3.770036	-0.505115	666.882031	1.556411	34.039107	-0.934742	-5.104217	0.233386
0.140	3.755426	-0.483291	666.842410	1.564861	34.051189	-0.941755	-5.106332	0.234667
0.150	3.771686	-0.473787	666.811064	1.572850	34.046713	-0.949719	-5.105901	0.235876
0.160	3.813111	-0.483330	666.793924	1.579412	34.029715	-0.958193	-5.103483	0.236867
0.170	3.866695	-0.512295	666.787691	1.583798	34.006071	-0.966579	-5.099985	0.237527
0.180	3.918293	-0.555298	666.783378	1.586077	33.981331	-0.974329	-5.096307	0.237870
0.190	3.958547	-0.603196	666.769866	1.587422	33.958781	-0.981164	-5.093029	0.238077
0.200	3.985858	-0.645717	666.736823	1.589962	33.938594	-0.987164	-5.090253	0.238469
0.210	4.005618	-0.674197	666.677955	1.596311	33.918390	-0.992624	-5.087672	0.239443
0.220	4.026957	-0.683942	666.594758	1.608806	33.894827	-0.997779	-5.084773	0.241347
0.230	4.059072	-0.675656	666.498561	1.628440	33.865383	-1.002613	-5.081089	0.244328
0.240	4.108651	-0.655342	666.408273	1.653820	33.829571	-1.006926	-5.076403	0.248169
0.250	4.178641	-0.632433	666.344086	1.680912	33.789218	-1.010601	-5.070836	0.252259
0.260	4.267759	-0.616500	666.320644	1.704150	33.747937	-1.013816	-5.064819	0.255755
0.270	4.370308	-0.613532	666.343663	1.718665	33.710126	-1.017035	-5.058970	0.257925
0.280	4.476607	-0.623240	666.411753	1.722573	33.679923	-1.020761	-5.053921	0.258485
0.290	4.574623	-0.638682	666.521603	1.718056	33.660442	-1.025286	-5.050165	0.257764
0.300	4.652836	-0.648756	666.671683	1.710605	33.653389	-1.030626	-5.047970	0.256589
0.310	4.703529	-0.642750	666.859864	1.706771	33.658943	-1.036662	-5.047379	0.255941
0.320	4.725314	-0.615076	667.074850	1.711554	33.675700	-1.043347	-5.048264	0.256576
0.330	4.723857	-0.568054	667.287114	1.726663	33.700586	-1.050825	-5.050388	0.258759
0.340	4.710393	-0.511338	667.447538	1.750217	33.728973	-1.059371	-5.053427	0.262225
0.350	4.698292	-0.458116	667.498605	1.777708	33.755319	-1.069208	-5.056987	0.266324
0.360	4.698666	-0.419809	667.395624	1.803587	33.774565	-1.080271	-5.060651	0.270243
0.370	4.716427	-0.401679	667.128612	1.822816	33.784023	-1.092028	-5.064094	0.273233
0.380	4.748194	-0.401163	666.733575	1.832036	33.785017	-1.103465	-5.067244	0.274778
0.390	4.782885	-0.409384	666.286401	1.830229	33.783258	-1.113365	-5.070381	0.274691
0.400	4.804998	-0.414900	665.880912	1.818818	33.787427	-1.120826	-5.074095	0.273145
0.410	4.799773	-0.407935	665.600085	1.801120	33.806339	-1.125738	-5.079077	0.270601
0.420	4.758607	-0.383508	665.492095	1.781238	33.845841	-1.128882	-5.085837	0.267657
0.430	4.682813	-0.342615	665.559752	1.762807	33.906807	-1.131505	-5.094480	0.264861
0.440	4.584248	-0.291488	665.765582	1.748108	33.985112	-1.134592	-5.104666	0.262571
0.450	4.482481	-0.239430	666.048700	1.737875	34.073514	-1.138237	-5.115769	0.260923
0.460	4.399290	-0.196099	666.346205	1.731697	34.164498	-1.141449	-5.127139	0.259879
0.470	4.352032	-0.169124	666.611472	1.728625	34.252738	-1.142451	-5.138336	0.259315
0.480	4.347902	-0.162661	666.823799	1.727623	34.336234	-1.139305	-5.149221	0.259082
0.490	4.381164	-0.177129	666.987586	1.727796	34.415912	-1.130615	-5.159903	0.259045
0.500	4.434751	-0.210021	667.123014	1.728520	34.494141	-1.116091	-5.170582	0.259101
0.510	4.486040	-0.257336	667.252386	1.729602	34.572967	-1.096774	-5.181393	0.259213
0.520	4.514810	-0.314813	667.386803	1.731335	34.652877	-1.074795	-5.192323	0.259420
0.530	4.510338	-0.378271	667.517839	1.734361	34.732578	-1.052759	-5.203243	0.259822
0.540	4.474788	-0.442999	667.618258	1.739411	34.809842	-1.033000	-5.214034	0.260540
0.550	4.421527	-0.503045	667.652902	1.747044	34.883025	-1.017019	-5.224725	0.261669
0.560	4.369087	-0.551524	667.595738	1.757422	34.952615	-1.005205	-5.235596	0.263246
0.570	4.333279	-0.582368	667.444670	1.770142	35.022118	-0.996819	-5.247194	0.265212
0.580	4.320590	-0.592779	667.225940	1.784179	35.097726	-0.990207	-5.260246	0.267403
0.590	4.325391	-0.584830	666.985652	1.798061	35.186645	-0.983310	-5.275473	0.269580
0.600	4.332022	-0.564993	666.773300	1.810325	35.294562	-0.974406	-5.293338	0.271505
0.610	4.320810	-0.541564	666.625756	1.820161	35.423323	-0.962880	-5.313824	0.273041
0.620	4.275394	-0.521262	666.558247	1.827950	35.569939	-0.949585	-5.336359	0.274237
0.630	4.188235	-0.506724	666.564153	1.835367	35.727409	-0.936548	-5.359935	0.275347
0.640	4.062393	-0.496187	666.621096	1.844864	35.886985	-0.926091	-5.383416	0.276749
0.650	3.909563	-0.485285	666.699225	1.858752	36.040871	-0.919844	-5.405867	0.278799
0.660	3.745969	-0.469742	666.768941	1.878377	36.184248	-0.918160	-5.426805	0.281713
0.670	3.588203	-0.447520	666.807517	1.903746	36.315966	-0.920177	-5.446244	0.285502
0.680	3.450473	-0.419779	666.804366	1.933583	36.437864	-0.924379	-5.464551	0.289978
0.690	3.343350	-0.390756	666.763176	1.965558	36.553280	-0.929285	-5.482198	0.294791
0.700	3.273095	-0.366877	666.698657	1.996538	36.665540	-0.933911	-5.499567	0.299466
0.710	3.240708	-0.355193	666.628566	2.022950	36.777046	-0.937905	-5.516872	0.303460
0.720	3.240786	-0.361299	666.565523	2.041452	36.889128	-0.941434	-5.534209	0.306264
0.730	3.261178	-0.387116	666.513526	2.049852	37.002404	-0.945005	-5.551636	0.307548
0.740	3.284616	-0.429308	666.470423	2.047925	37.117245	-0.949340	-5.569226	0.307279
0.750	3.292592	-0.479168	666.433809	2.037666	37.234021	-0.955264	-5.587055	0.305757
0.760	3.270318	-0.524472	666.406360	2.022748	37.353068	-0.963559	-5.605149	0.303531
0.770	3.210691	-0.553048	666.397196	2.007338	37.474481	-0.974720	-5.623445	0.301222
0.780	3.115614	-0.556979	666.417660	1.994720	37.597968	-0.988671	-5.641802	0.299320
0.790	2.994449	-0.535750	666.473328	1.986308	37.722960	-1.004586	-5.660085	0.298033
0.800	2.860700	-0.496724	666.557542	1.981499	37.848983	-1.020927	-5.678277	0.297274
0.810	2.728442	-0.452567	666.651864	1.978413	37.976035	-1.035773	-5.696532	0.296769
0.820	2.609604	-0.416913	666.734172	1.975203	38.104647	-1.047332	-5.715118	0.296250
0.830	2.512421	-0.400236	666.789255	1.971303	38.235479	-1.054487	-5.734267	0.295641
0.840	2.440745	-0.407211	666.814687	1.968015	38.368532	-1.057229	-5.754002	0.295137
0.850	2.393953	-0.435852	666.818440	1.968119	38.502385	-1.056841	-5.774043	0.295151
0.860	2.367486	-0.478244	666.810436	1.974684	38.633944	-1.055677	-5.793842	0.296139
0.870	2.354280	-0.522520	666.793790	1.989686	38.758970	-1.056480	-5.812737	0.298396
0.880	2.346901	-0.555628	666.761055	2.013146	38.873199	-1.061428	-5.830154	0.301929
0.890	2.339558	-0.566353	666.697700	2.043084	38.973521	-1.071300	-5.845756	0.306448
0.900	2.328998	-0.548017	666.591110	2.076152	39.058782	-1.085175	-5.859481	0.311458
0.910	2.313921	-0.500016	666.440536	2.108534	39.130005	-1.100807	-5.871492	0.316387
0.920	2.293483	-0.427590	666.262849	2.136841	39.190032	-1.115556	-5.882068	0.320720
0.930	2.265892	-0.339917	666.090855	2.158822	39.242723	-1.127466	-5.891497	0.324103
0.940	2.227958	-0.247476	665.964481	2.173835	39.291989	-1.136017	-5.900013	0.326419
0.950	2.176008	-0.159759	665.918519	2.182932	39.340938	-1.142185	-5.907770	0.327808
0.960	2.108082	-0.083903	665.971569	2.188483	39.391272	-1.147850	-5.914858	0.328615
0.970	2.026682	-0.024193	666.119103	2.193397	39.442954	-1.154914	-5.921307	0.329280
0.980	1.940739	0.017759	666.331740	2.200062	39.494199	-1.164573	-5.927108	0.330175
0.990	1.865362	0.042263	666.559560	2.209300	39.541887	-1.176958	-5.932236	0.331448
1.000	1.818668	0.050394	666.743233	2.219798	39.582423	-1.191141	-5.936682	0.332931
1.010	1.816267	0.042931	666.830824	2.228556	39.612836	-1.205395	-5.940463	0.334201
1.020	1.865210	0.020109	666.795983	2.232378	39.631835	-1.217616	-5.943622	0.334792
1.030	1.960051	-0.017435	666.650785	2.229720	39.640558	-1.225803	-5.946225	0.334466
1.040	2.083176	-0.066896	666.446424	2.221829	39.642783	-1.228507	-5.948383	0.333384
1.050	2.209695	-0.121794	666.258742	2.212424	39.644402	-1.225179	-5.950301	0.332067
1.060	2.314879	-0.171951	666.162553	2.206106	39.652086	-1.216354	-5.952314	0.331166
1.070	2.381015	-0.205561	666.205035	2.206364	39.671380	-1.203608	-5.954830	0.331184
1.080	2.401248	-0.212906	666.389515	2.214198	39.704849	-1.189228	-5.958204	0.332268
1.090	2.379612	-0.190172	666.675513	2.227891	39.750964	-1.175629	-5.962565	0.334179
1.100	2.328008	-0.141557	666.993164	2.243852	39.804166	-1.164727	-5.967702	0.336413
1.110	2.261663	-0.078621	667.264976	2.258091	39.856115	-1.157541	-5.973057	0.338410
1.120	2.194686	-0.017047	667.427302	2.267803	39.897742	-1.154136	-5.977841	0.339783
1.130	2.136968	0.027927	667.445706	2.272569	39.921481	-1.153848	-5.981233	0.340487
1.140	2.093143	0.045597	667.320975	2.274742	39.922959	-1.155625	-5.982572	0.340877
1.150	2.063560	0.031971	667.085330	2.278731	39.901694	-1.158330	-5.981498	0.341595
1.160	2.046652	-0.010278	666.791217	2.289246	39.860681	-1.160940	-5.977985	0.343323
1.170	2.041677	-0.073281	666.496967	2.309180	39.805110	-1.162664	-5.972287	0.346465
1.180	2.050590	-0.146000	666.253731	2.338103	39.740510	-1.163061	-5.964771	0.350933
1.190	2.078004	-0.216515	666.096427	2.372107	39.670771	-1.162170	-5.955710	0.356121
1.200	2.129198	-0.274646	666.039423	2.404973	39.596625	-1.160593	-5.945087	0.361086
1.210	2.207424	-0.314564	666.076569	2.430104	39.515214	-1.159371	-5.932533	0.364838
1.220	2.312283	-0.336345	666.185005	2.442460	39.421124	-1.159629	-5.917444	0.366634
1.230	2.439979	-0.345388	666.331659	2.439922	39.308647	-1.162046	-5.899261	0.366172
1.240	2.584976	-0.349693	666.480859	2.423766	39.174441	-1.166353	-5.877804	0.363666
1.250	2.741834	-0.356329	666.601683	2.398237	39.019512	-1.171122	-5.853497	0.359771
1.260	2.906268	-0.368830	666.674313	2.369374	38.849723	-1.174059	-5.827392	0.355402
1.270	3.074984	-0.386544	666.694421	2.343431	38.674680	-1.172812	-5.800961	0.351500
1.280	3.244415	-0.405803	666.673888	2.325320	38.505477	-1.165993	-5.775759	0.348794
1.290	3.409050	-0.421946	666.636637	2.317568	38.352158	-1.153923	-5.753083	0.347651
1.300	3.560467	-0.431167	666.610548	2.320112	38.221738	-1.138661	-5.733743	0.348046
1.310	3.687904	-0.431541	666.618189	2.330949	38.117328	-1.123276	-5.718015	0.349668
1.320	3.780340	-0.423075	666.669175	2.347293	38.038478	-1.110635	-5.705750	0.352093
1.330	3.829109	-0.407053	666.756328	2.366785	37.982422	-1.102297	-5.696597	0.354970
1.340	3.829919	-0.385137	666.857279	2.388303	37.945627	-1.098007	-5.690217	0.358143
1.350	3.783845	-0.358674	666.941777	2.412218	37.925034	-1.096048	-5.686408	0.361683
1.360	3.697573	-0.328464	666.982489	2.440109	37.918580	-1.094231	-5.685094	0.365843
1.370	3.582995	-0.295009	666.965231	2.474103	37.924979	-1.090966	-5.686200	0.370949
1.380	3.455562	-0.259066	666.894813	2.516013	37.943159	-1.085839	-5.689527	0.377273
1.390	3.330892	-0.222088	666.794197	2.566487	37.971817	-1.079527	-5.694683	0.384899
1.400	3.220335	-0.186064	666.696448	2.624424	38.009227	-1.073301	-5.701129	0.393646
1.410	3.127546	-0.152593	666.631182	2.686860	38.053062	-1.068538	-5.708263	0.403050
1.420	3.048229	-0.121705	666.610216	2.749372	38.100031	-1.066429	-5.715489	0.412441
1.430	2.973700	-0.091242	666.619109	2.806872	38.145547	-1.067827	-5.722240	0.421061
1.440	2.896583	-0.057332	666.619950	2.854502	38.183882	-1.073091	-5.727984	0.428205
1.450	2.815350	-0.015844	666.566213	2.888428	38.209096	-1.081911	-5.732228	0.433330
1.460	2.735040	0.035743	666.424719	2.906437	38.216468	-1.093255	-5.734551	0.436124
1.470	2.664017	0.096785	666.195192	2.908244	38.203794	-1.105555	-5.734625	0.436545
1.480	2.609257	0.162717	665.917309	2.895381	38.171834	-1.117064	-5.732218	0.434796
1.490	2.573518	0.225304	665.660221	2.870599	38.123573	-1.126245	-5.727182	0.431241
1.500	2.556210	0.273959	665.498386	2.837038	38.062554	-1.132033	-5.719406	0.426303
1.510	2.557037	0.298187	665.484564	2.797627	37.991030	-1.133956	-5.708777	0.420390
1.520	2.579459	0.290831	665.631495	2.755009	37.908795	-1.132142	-5.695162	0.413894
1.530	2.631247	0.251016	665.908773	2.711785	37.813181	-1.127266	-5.678433	0.407231
1.540	2.721440	0.185324	666.254594	2.670666	37.700187	-1.120448	-5.658526	0.400848
1.550	2.855363	0.106396	666.596795	2.634200	37.566208	-1.113040	-5.635522	0.395171
1.560	3.030645	0.029439	666.875074	2.604124	37.409652	-1.106283	-5.609694	0.390497
1.570	3.236681	-0.031929	667.056657	2.580701	37.231883	-1.100873	-5.581517	0.386879
1.580	3.457969	-0.069039	667.140538	2.562491	37.037247	-1.096619	-5.551641	0.384101
1.590	3.679344	-0.079824	667.150006	2.546869	36.832327	-1.092405	-5.520846	0.381754
1.600	3.890056	-0.068593	667.117806	2.531146	36.624809	-1.086555	-5.490006	0.379415
1.610	4.084670	-0.044196	667.071234	2.513854	36.422310	-1.077483	-5.460033	0.376849
1.620	4.261116	-0.017117	667.023894	2.495544	36.231467	-1.064357	-5.431809	0.374131
1.630	4.417900	0.003642	666.976503	2.478611	36.057386	-1.047472	-5.406095	0.371619
1.640	4.552450	0.012769	666.923373	2.466024	35.903450	-1.028201	-5.383445	0.369761
1.650	4.661178	0.008985	666.858763	2.459443	35.771290	-1.008585	-5.364148	0.368810
1.660	4.740565	-0.006401	666.780152	2.457618	35.660694	-0.990766	-5.348194	0.368580
1.670	4.788462	-0.031672	666.689625	2.456071	35.569388	-0.976478	-5.335224	0.368398
1.680	4.805306	-0.066288	666.595030	2.448432	35.492996	-0.966709	-5.324521	0.367304
1.690	4.795137	-0.111106	666.509943	2.428888	35.425635	-0.961561	-5.315095	0.364419
1.700	4.765826	-0.167304	666.450476	2.394531	35.361336	-0.960301	-5.305921	0.359296
1.710	4.727878	-0.234773	666.429220	2.346356	35.295803	-0.961591	-5.296257	0.352079
1.720	4.691855	-0.311029	666.449167	2.288455	35.227685	-0.963855	-5.285877	0.343380
1.730	4.665513	-0.391254	666.501001	2.225945	35.158775	-0.965724	-5.275127	0.333975
1.740	4.652078	-0.469364	666.565661	2.162788	35.093198	-0.966444	-5.264777	0.324467
1.750	4.650394	-0.539446	666.621768	2.100610	35.036091	-0.966075	-5.255768	0.315113
1.760	4.656509	-0.597071	666.655102	2.038920	34.992198	-0.965392	-5.248921	0.305843
1.770	4.665560	-0.640323	666.665943	1.976307	34.964637	-0.965526	-5.244701	0.296446
1.780	4.672984	-0.670403	666.670464	1.911771	34.954034	-0.967477	-5.243075	0.286764
1.790	4.674869	-0.691465	666.694538	1.845394	34.958208	-0.971690	-5.243512	0.276798
1.800	4.667873	-0.709459	666.761586	1.778146	34.972565	-0.977867	-5.245138	0.266684
1.810	4.649358	-0.730356	666.879335	1.711177	34.991211	-0.985072	-5.247008	0.256595
1.820	4.617913	-0.758452	667.032019	1.645142	35.008653	-0.992034	-5.248422	0.246636
1.830	4.573872	-0.795268	667.183168	1.579982	35.021585	-0.997526	-5.249171	0.236814
1.840	4.519091	-0.839222	667.288809	1.515238	35.030047	-1.000678	-5.249608	0.227074
1.850	4.455770	-0.886095	667.314757	1.450728	35.037340	-1.001189	-5.250497	0.217398
1.860	4.384908	-0.930282	667.249391	1.387298	35.048612	-0.999378	-5.252700	0.207913
1.870	4.305503	-0.966585	667.106591	1.327243	35.068637	-0.996081	-5.256827	0.198955
1.880	4.215322	-0.991991	666.919272	1.274017	35.099699	-0.992380	-5.262961	0.191030
1.890	4.113119	-1.006834	666.727585	1.231206	35.140408	-0.989282	-5.270580	0.184664
1.900	4.001401	-1.014881	666.566572	1.201251	35.185925	-0.987458	-5.278681	0.180215
1.910	3.888378	-1.022164	666.457796	1.184660	35.229556	-0.987160	-5.286090	0.177755
1.920	3.787793	-1.034718	666.408470	1.180103	35.265190	-0.988298	-5.291828	0.177084
1.930	3.715787	-1.055947	666.417622	1.185232	35.289700	-0.990588	-5.295433	0.177851
1.940	3.685276	-1.084749	666.483317	1.197689	35.304276	-0.993766	-5.297098	0.179703
1.950	3.699851	-1.115284	666.603493	1.215806	35.314001	-0.997816	-5.297602	0.182388
1.960	3.750229	-1.138548	666.768554	1.238786	35.325691	-1.003099	-5.298044	0.185790
1.970	3.815638	-1.145198	666.951636	1.266450	35.344880	-1.010225	-5.299467	0.189886
1.980	3.870338	-1.128713	667.106058	1.298787	35.373265	-1.019651	-5.302495	0.194690
1.990	3.892746	-1.087878	667.176149	1.335507	35.407741	-1.031225	-5.307105	0.200173
2.000	3.873152	-1.027602	667.119453	1.375712	35.441438	-1.043980	-5.312608	0.206217
2.010	3.816733	-0.957508	666.929752	1.417846	35.466282	-1.056347	-5.317844	0.212593
2.020	3.740882	-0.888638	666.647221	1.460021	35.475896	-1.066726	-5.321540	0.219010
2.030	3.668623	-0.829674	666.347820	1.500550	35.467654	-1.074075	-5.322694	0.225190
2.040	3.621272	-0.784408	666.115993	1.538398	35.443173	-1.078176	-5.320871	0.230951
2.050	3.612896	-0.751495	666.014468	1.573364	35.407315	-1.079450	-5.316298	0.236236
2.060	3.647483	-0.726325	666.065659	1.606009	35.366346	-1.078498	-5.309739	0.241119
2.070	3.718710	-0.703778	666.250962	1.637458	35.326045	-1.075728	-5.302213	0.245772
2.080	3.812015	-0.680384	666.524147	1.669010	35.290272	-1.071286	-5.294673	0.250405
2.090	3.908522	-0.654999	666.829831	1.701551	35.260207	-1.065280	-5.287737	0.255170
2.100	3.989937	-0.628192	667.118956	1.734915	35.234326	-1.058091	-5.281566	0.260061
2.110	4.043233	-0.601294	667.357102	1.767562	35.209113	-1.050565	-5.275903	0.264860
2.120	4.063963	-0.575922	667.525147	1.796858	35.180351	-1.043951	-5.270266	0.269182
2.130	4.057215	-0.553970	667.614611	1.819950	35.144598	-1.039580	-5.264204	0.272605
2.140	4.035784	-0.537382	667.622096	1.834898	35.100308	-1.038382	-5.257511	0.274841
2.150	4.015972	-0.527315	667.547214	1.841569	35.048156	-1.040439	-5.250289	0.275871
2.160	4.012417	-0.523180	667.395443	1.841943	34.990525	-1.044802	-5.242848	0.275990
2.170	4.033764	-0.522386	667.182980	1.839685	34.930581	-1.049731	-5.235532	0.275739
2.180	4.080503	-0.521127	666.938586	1.839109	34.871468	-1.053303	-5.228588	0.275754
2.190	4.145356	-0.515758	666.699241	1.843895	34.815911	-1.054116	-5.222132	0.276571
2.200	4.215665	-0.503867	666.500635	1.856131	34.766093	-1.051796	-5.216213	0.278489
2.210	4.276900	-0.484439	666.366913	1.876077	34.723597	-1.047102	-5.210883	0.281538
2.220	4.316459	-0.457120	666.304792	1.902627	34.689355	-1.041624	-5.206229	0.285549
2.230	4.326987	-0.421435	666.304736	1.934016	34.663608	-1.037232	-5.202366	0.290260
2.240	4.308484	-0.376921	666.347949	1.968276	34.645883	-1.035499	-5.199368	0.295383
2.250	4.268517	-0.324492	666.415221	2.003406	34.634995	-1.037286	-5.197210	0.300624
2.260	4.220243	-0.268154	666.493754	2.037510	34.629160	-1.042550	-5.195722	0.305706
2.270	4.178650	-0.215566	666.579915	2.069095	34.626300	-1.050439	-5.194621	0.310405
2.280	4.156119	-0.176436	666.677256	2.097259	34.624458	-1.059623	-5.193586	0.314584
2.290	4.158735	-0.159177	666.790134	2.121485	34.622107	-1.068778	-5.192354	0.318164
2.300	4.184569	-0.167447	666.915384	2.141097	34.618203	-1.077016	-5.190794	0.321045
2.310	4.224691	-0.198377	667.037313	2.154898	34.611959	-1.084019	-5.188909	0.323055
2.320	4.266748	-0.243405	667.131390	2.161387	34.602507	-1.089821	-5.186760	0.323982
2.330	4.299841	-0.291368	667.176981	2.159545	34.588702	-1.094378	-5.184337	0.323684
2.340	4.318766	-0.332535	667.172157	2.149677	34.569233	-1.097247	-5.181456	0.322207
2.350	4.325911	-0.361880	667.140119	2.133727	34.543039	-1.097592	-5.177779	0.319832
2.360	4.330214	-0.380158	667.120830	2.114810	34.509775	-1.094517	-5.172942	0.317006
2.370	4.343842	-0.392425	667.150892	2.096249	34.470110	-1.087524	-5.166764	0.314209
