Time[s]	Fx[N]	Fy[N]	Fz[N]	Mx[Nm]	My[Nm]	Mz[Nm]	COPx[cm]	COPy[cm]
0.010	10.866919	-3.924498	669.186501	1.509307	7.240380	-1.725567	-1.081967	0.225544
0.020	11.236129	-3.923866	668.638941	1.431049	6.930245	-1.718762	-1.036470	0.214024
0.030	11.557766	-3.917397	668.174182	1.363538	6.645350	-1.712470	-0.994553	0.204069
0.040	11.793870	-3.901111	667.855810	1.315761	6.406337	-1.707409	-0.959240	0.197013
0.050	11.922783	-3.873727	667.715185	1.294013	6.226276	-1.704443	-0.932475	0.193797
0.060	11.942079	-3.836840	667.746741	1.300940	6.109426	-1.704452	-0.914932	0.194825
0.070	11.866489	-3.793892	667.912411	1.335417	6.052180	-1.708030	-0.906134	0.199939
0.080	11.721547	-3.748449	668.153497	1.393336	6.045590	-1.715121	-0.904821	0.208535
0.090	11.535223	-3.702598	668.406608	1.468988	6.078537	-1.724788	-0.909407	0.219775
0.100	11.330520	-3.656002	668.619085	1.556599	6.140660	-1.735241	-0.918409	0.232808
0.110	11.121407	-3.605689	668.759497	1.651709	6.224459	-1.744191	-0.930747	0.246981
0.120	10.912922	-3.546362	668.820575	1.752233	6.326205	-1.749476	-0.945875	0.261989
0.130	10.704478	-3.471064	668.814657	1.859025	6.445557	-1.749768	-0.963728	0.277958
0.140	10.494261	-3.372183	668.764126	1.975731	6.584135	-1.745073	-0.984523	0.295430
0.150	10.282359	-3.242946	668.690816	2.107668	6.743682	-1.736795	-1.008490	0.315193
0.160	10.071193	-3.079468	668.608454	2.259738	6.924643	-1.727318	-1.035680	0.337976
0.170	9.863415	-2.882916	668.520930	2.434038	7.125745	-1.719298	-1.065897	0.364093
0.180	9.659047	-2.660727	668.426968	2.628295	7.344560	-1.714923	-1.098783	0.393206
0.190	9.454228	-2.425845	668.328917	2.835888	7.578306	-1.715393	-1.133919	0.424325
0.200	9.242982	-2.193874	668.240230	3.047204	7.824064	-1.720720	-1.170846	0.456004
0.210	9.021445	-1.979271	668.185521	3.251402	8.078130	-1.729810	-1.208965	0.486602
0.220	8.792107	-1.792301	668.191242	3.437883	8.335129	-1.740721	-1.247417	0.514506
0.230	8.565045	-1.637986	668.271564	3.597423	8.587878	-1.751001	-1.285088	0.538318
0.240	8.354389	-1.516910	668.417720	3.723216	8.828594	-1.758138	-1.320820	0.557019
0.250	8.170986	-1.426804	668.597579	3.811884	9.051124	-1.760117	-1.353748	0.570131
0.260	8.014766	-1.363868	668.767002	3.864231	9.253089	-1.756007	-1.383604	0.577814
0.270	7.871230	-1.323353	668.888159	3.885418	9.436612	-1.746373	-1.410791	0.580877
0.280	7.715003	-1.299373	668.945803	3.884230	9.606792	-1.733335	-1.436109	0.580649
0.290	7.519973	-1.284400	668.953220	3.871272	9.768205	-1.720197	-1.460222	0.578706
0.300	7.271976	-1.269299	668.944766	3.856332	9.920983	-1.710691	-1.483080	0.576480
0.310	6.978229	-1.244672	668.958247	3.845688	10.058493	-1.708021	-1.503605	0.574877
0.320	6.668995	-1.203398	669.014805	3.840419	10.168094	-1.713989	-1.519861	0.574041
0.330	6.390285	-1.143284	669.104993	3.836452	10.234987	-1.728519	-1.529653	0.573371
0.340	6.190175	-1.068494	669.187437	3.826228	10.247641	-1.749708	-1.531356	0.571772
0.350	6.103807	-0.989227	669.201920	3.801113	10.202533	-1.774403	-1.524582	0.568007
0.360	6.142584	-0.919984	669.093071	3.753527	10.106193	-1.799095	-1.510432	0.560987
0.370	6.291275	-0.877050	668.836024	3.678263	9.973651	-1.820892	-1.491195	0.549950
0.380	6.513728	-0.875591	668.453678	3.573071	9.823761	-1.838215	-1.469625	0.534528
0.390	6.764835	-0.926757	668.017647	3.438798	9.673159	-1.850952	-1.448039	0.514777
0.400	7.004406	-1.035412	667.630675	3.279155	9.531186	-1.860012	-1.427614	0.491163
0.410	7.208132	-1.199040	667.395001	3.099949	9.397698	-1.866521	-1.408116	0.464485
0.420	7.372335	-1.407985	667.377126	2.907756	9.264385	-1.871112	-1.388178	0.435699
0.430	7.511614	-1.646909	667.582556	2.708357	9.118787	-1.873655	-1.365941	0.405696
0.440	7.650879	-1.897369	667.951767	2.505475	8.949293	-1.873550	-1.339811	0.375098
0.450	7.814667	-2.141358	668.380105	2.300290	8.749361	-1.870320	-1.309040	0.344159
0.460	8.017246	-2.365282	668.753355	2.091895	8.519710	-1.864115	-1.273969	0.312805
0.470	8.256785	-2.563291	668.983899	1.878487	8.268063	-1.855732	-1.235914	0.280797
0.480	8.515697	-2.738684	669.033822	1.658783	8.006739	-1.846113	-1.196761	0.247937
0.490	8.767159	-2.902481	668.919310	1.433172	7.749050	-1.835657	-1.158443	0.214252
0.500	8.985243	-3.069220	668.699706	1.204355	7.505756	-1.823841	-1.122440	0.180104
0.510	9.154494	-3.251147	668.459294	0.977535	7.282789	-1.809506	-1.089489	0.146237
0.520	9.275179	-3.452929	668.288344	0.760235	7.080890	-1.791652	-1.059556	0.113759
0.530	9.362661	-3.669016	668.264881	0.561718	6.897018	-1.770284	-1.032078	0.084056
0.540	9.441894	-3.884796	668.435913	0.391804	6.726705	-1.746786	-1.006335	0.058615
0.550	9.539623	-4.081139	668.799890	0.259002	6.566243	-1.723590	-0.981795	0.038726
0.560	9.676910	-4.240662	669.297641	0.168339	6.413959	-1.703277	-0.958312	0.025152
0.570	9.863689	-4.353286	669.820372	0.119679	6.270502	-1.687528	-0.936147	0.017867
0.580	10.096191	-4.418840	670.237401	0.107355	6.138508	-1.676425	-0.915871	0.016017
0.590	10.357553	-4.445608	670.436471	0.121427	6.022047	-1.668445	-0.898228	0.018112
0.600	10.621334	-4.445618	670.361717	0.150239	5.926069	-1.661181	-0.884011	0.022412
0.610	10.857053	-4.429055	670.033284	0.183458	5.855835	-1.652420	-0.873962	0.027380
0.620	11.036490	-4.400521	669.539605	0.214600	5.816274	-1.641115	-0.868698	0.032052
0.630	11.139447	-4.358693	669.005534	0.242160	5.811148	-1.627832	-0.868625	0.036197
0.640	11.157732	-4.298992	668.550274	0.269002	5.842142	-1.614516	-0.873852	0.040237
0.650	11.096269	-4.217491	668.252112	0.300433	5.908176	-1.603694	-0.884124	0.044958
0.660	10.970843	-4.114071	668.131769	0.341883	6.005369	-1.597473	-0.898830	0.051170
0.670	10.803144	-3.993573	668.156891	0.397049	6.127794	-1.596768	-0.917119	0.059424
0.680	10.614730	-3.864669	668.262259	0.466913	6.268864	-1.601069	-0.938084	0.069870
0.690	10.421849	-3.737044	668.376490	0.549624	6.422920	-1.608698	-0.960973	0.082233
0.700	10.232713	-3.618211	668.446190	0.641057	6.586529	-1.617329	-0.985349	0.095903
0.710	10.047966	-3.511423	668.451094	0.735851	6.759085	-1.624532	-1.011156	0.110083
0.720	9.863884	-3.415605	668.406995	0.828699	6.942422	-1.628268	-1.038652	0.123981
0.730	9.676582	-3.327126	668.356610	0.915662	7.139511	-1.627359	-1.068219	0.137002
0.740	9.485265	-3.242258	668.351953	0.995215	7.352802	-1.621877	-1.100139	0.148906
0.750	9.293251	-3.158936	668.434360	1.068704	7.583007	-1.613292	-1.134443	0.159882
0.760	9.106610	-3.076914	668.618682	1.140023	7.828785	-1.604267	-1.170889	0.170504
0.770	8.931205	-2.996407	668.886294	1.214502	8.087156	-1.598039	-1.209048	0.181571
0.780	8.769479	-2.916214	669.188889	1.297263	8.354041	-1.597541	-1.248383	0.193856
0.790	8.618568	-2.832718	669.462379	1.391440	8.624554	-1.604486	-1.288281	0.207844
0.800	8.470893	-2.740798	669.647043	1.496743	8.893092	-1.618805	-1.328027	0.223512
0.810	8.317187	-2.636517	669.706732	1.608846	9.153592	-1.638693	-1.366806	0.240231
0.820	8.150466	-2.520122	669.639234	1.719997	9.400173	-1.661284	-1.403767	0.256854
0.830	7.968716	-2.397465	669.473671	1.820811	9.628060	-1.683641	-1.438154	0.271976
0.840	7.774801	-2.278897	669.257005	1.902669	9.834420	-1.703682	-1.469453	0.284296
0.850	7.573931	-2.176212	669.036178	1.959771	10.018816	-1.720673	-1.497500	0.292925
0.860	7.370522	-2.099143	668.843274	1.990113	10.183137	-1.735179	-1.522500	0.297546
0.870	7.166471	-2.052707	668.688834	1.995286	10.331039	-1.748510	-1.544970	0.298388
0.880	6.961768	-2.036005	668.564548	1.979496	10.467056	-1.761964	-1.565601	0.296081
0.890	6.756834	-2.042498	668.452922	1.948410	10.595659	-1.776231	-1.585102	0.291480
0.900	6.554907	-2.061447	668.339197	1.908239	10.720553	-1.791244	-1.604059	0.285520
0.910	6.362691	-2.080277	668.220214	1.865087	10.844373	-1.806482	-1.622874	0.279113
0.920	6.188369	-2.087609	668.106378	1.824359	10.968683	-1.821455	-1.641757	0.273064
0.930	6.037650	-2.076435	668.016667	1.790037	11.094076	-1.836006	-1.660748	0.267963
0.940	5.909888	-2.046489	667.970253	1.763970	11.220168	-1.850229	-1.679741	0.264079
0.950	5.796846	-2.004802	667.979092	1.745504	11.345461	-1.864121	-1.698476	0.261311
0.960	5.685635	-1.963992	668.043885	1.731710	11.467185	-1.877235	-1.716532	0.259221
0.970	5.565187	-1.938812	668.153837	1.718135	11.581303	-1.888575	-1.733329	0.257147
0.980	5.433433	-1.942387	668.289788	1.699856	11.682864	-1.896783	-1.748173	0.254359
0.990	5.301601	-1.983511	668.429378	1.672587	11.766818	-1.900526	-1.760368	0.250226
1.000	5.193079	-2.065510	668.552080	1.633676	11.829129	-1.898905	-1.769365	0.244360
1.010	5.136569	-2.186025	668.642616	1.582863	11.867794	-1.891737	-1.774908	0.236728
1.020	5.155756	-2.336949	668.693124	1.522614	11.883253	-1.879651	-1.777086	0.227700
1.030	5.259566	-2.504518	668.704789	1.457781	11.878062	-1.864039	-1.776279	0.218001
1.040	5.437230	-2.670296	668.687620	1.394500	11.856087	-1.846855	-1.773038	0.208543
1.050	5.660585	-2.813644	668.656309	1.338589	11.821629	-1.830269	-1.767968	0.200191
1.060	5.892776	-2.915591	668.623181	1.294048	11.778848	-1.816257	-1.761657	0.193539
1.070	6.099589	-2.963282	668.592873	1.262229	11.731501	-1.806211	-1.754655	0.188789
1.080	6.258667	-2.953728	668.562827	1.241932	11.682891	-1.800740	-1.747463	0.185761
1.090	6.363454	-2.895425	668.529031	1.230239	11.635732	-1.799698	-1.740498	0.184022
1.100	6.421404	-2.806948	668.492294	1.223638	11.591766	-1.802404	-1.734016	0.183045
1.110	6.448325	-2.712731	668.460296	1.218986	11.551159	-1.807894	-1.728025	0.182357
1.120	6.461652	-2.637256	668.444620	1.213999	11.512023	-1.815082	-1.722210	0.181615
1.130	6.475112	-2.599328	668.456454	1.207201	11.470499	-1.822792	-1.715968	0.180595
1.140	6.496130	-2.607913	668.505344	1.197419	11.421571	-1.829776	-1.708524	0.179119
1.150	6.526273	-2.660544	668.601317	1.183172	11.360303	-1.834851	-1.699115	0.176962
1.160	6.564230	-2.744724	668.755927	1.162421	11.282897	-1.837203	-1.687147	0.173818
1.170	6.610031	-2.842016	668.977363	1.132934	11.187143	-1.836691	-1.672275	0.169353
1.180	6.668294	-2.933531	669.259727	1.093058	11.072252	-1.833925	-1.654403	0.163323
1.190	6.748392	-3.004832	669.572671	1.042396	10.938432	-1.830008	-1.633644	0.155681
1.200	6.860985	-3.048573	669.859863	0.981999	10.786643	-1.826090	-1.610284	0.146598
1.210	7.012653	-3.064518	670.051231	0.914113	10.618726	-1.822992	-1.584763	0.136424
1.220	7.201581	-3.057960	670.085891	0.841773	10.437703	-1.821025	-1.557666	0.125622
1.230	7.416568	-3.037746	669.935168	0.768413	10.247952	-1.820017	-1.529693	0.114700
1.240	7.639691	-3.014347	669.613884	0.697422	10.055098	-1.819476	-1.501626	0.104153
1.250	7.851021	-2.997671	669.174835	0.631482	9.865619	-1.818890	-1.474296	0.094367
1.260	8.033205	-2.994573	668.690952	0.571845	9.686291	-1.818078	-1.448545	0.085517
1.270	8.174298	-3.006840	668.234868	0.518050	9.523569	-1.817439	-1.425183	0.077525
1.280	8.268376	-3.030854	667.864029	0.468533	9.383018	-1.817912	-1.404929	0.070154
1.290	8.314457	-3.059322	667.614160	0.422028	9.268839	-1.820564	-1.388353	0.063214
1.300	8.314849	-3.084304	667.499324	0.379006	9.183500	-1.825992	-1.375807	0.056780
1.310	8.274044	-3.100171	667.514744	0.342192	9.127475	-1.833884	-1.367382	0.051264
1.320	8.198670	-3.105414	667.639275	0.315748	9.099129	-1.843034	-1.362881	0.047293
1.330	8.097914	-3.102855	667.837272	0.303546	9.094843	-1.851791	-1.361835	0.045452
1.340	7.983153	-3.098339	668.062785	0.307520	9.109475	-1.858686	-1.363566	0.046032
1.350	7.866100	-3.098399	668.269109	0.326913	9.137133	-1.862952	-1.367283	0.048919
1.360	7.756245	-3.107617	668.422404	0.358568	9.172013	-1.864802	-1.372188	0.053644
1.370	7.659458	-3.126640	668.513257	0.397850	9.208936	-1.865348	-1.377525	0.059513
1.380	7.579015	-3.151730	668.559357	0.439590	9.243386	-1.866156	-1.382583	0.065752
1.390	7.518534	-3.176241	668.596739	0.478766	9.271196	-1.868543	-1.386665	0.071608
1.400	7.484952	-3.193435	668.663106	0.511029	9.288280	-1.872954	-1.389082	0.076425
1.410	7.489444	-3.199431	668.780810	0.533250	9.290769	-1.878683	-1.389210	0.079735
1.420	7.545073	-3.194935	668.946963	0.544039	9.275569	-1.884075	-1.386593	0.081328
1.430	7.661532	-3.184949	669.134249	0.544022	9.241037	-1.887076	-1.381044	0.081302
1.440	7.838874	-3.176550	669.301350	0.535674	9.187400	-1.885885	-1.372685	0.080035
1.450	8.063023	-3.175949	669.408460	0.522665	9.116810	-1.879467	-1.361920	0.078079
1.460	8.305551	-3.186436	669.431455	0.508825	9.033121	-1.867809	-1.349372	0.076009
1.470	8.528807	-3.208063	669.368909	0.497027	8.941478	-1.851958	-1.335807	0.074253
1.480	8.695209	-3.238698	669.239736	0.488364	8.847632	-1.833846	-1.322042	0.072973
1.490	8.777453	-3.275362	669.073830	0.481912	8.756984	-1.815919	-1.308822	0.072027
1.500	8.765780	-3.315033	668.900637	0.475031	8.673586	-1.800562	-1.296693	0.071017
1.510	8.669689	-3.354845	668.740648	0.463979	8.599530	-1.789519	-1.285929	0.069381
1.520	8.513759	-3.392129	668.602893	0.444635	8.534977	-1.783516	-1.276539	0.066502
1.530	8.329671	-3.424665	668.488709	0.413358	8.478693	-1.782193	-1.268338	0.061835
1.540	8.147785	-3.451027	668.398989	0.367975	8.428723	-1.784319	-1.261032	0.055053
1.550	7.991308	-3.470747	668.340157	0.308669	8.382921	-1.788165	-1.254290	0.046184
1.560	7.874216	-3.484253	668.324394	0.238364	8.339309	-1.791961	-1.247794	0.035666
1.570	7.802106	-3.492786	668.362918	0.162316	8.296344	-1.794319	-1.241293	0.024286
1.580	7.774222	-3.498430	668.456085	0.086991	8.253131	-1.794540	-1.234656	0.013014
1.590	7.785365	-3.504179	668.587238	0.018634	8.209498	-1.792704	-1.227887	0.002787
1.600	7.827271	-3.513746	668.725463	-0.037959	8.165823	-1.789481	-1.221103	-0.005676
1.610	7.889603	-3.530857	668.836444	-0.080203	8.122591	-1.785765	-1.214436	-0.011991
1.620	7.960745	-3.558002	668.895439	-0.107976	8.079917	-1.782287	-1.207949	-0.016142
1.630	8.028596	-3.595101	668.895803	-0.123417	8.037349	-1.779361	-1.201585	-0.018451
1.640	8.081623	-3.638953	668.849938	-0.130207	7.994120	-1.776830	-1.195204	-0.019467
1.650	8.110396	-3.684067	668.783332	-0.132380	7.949707	-1.774211	-1.188682	-0.019794
1.660	8.109381	-3.724596	668.724766	-0.132904	7.904410	-1.770966	-1.182012	-0.019874
1.670	8.078320	-3.756285	668.696843	-0.132525	7.859732	-1.766817	-1.175380	-0.019818
1.680	8.022402	-3.777313	668.710682	-0.129371	7.818429	-1.761983	-1.169180	-0.019346
1.690	7.951042	-3.787748	668.766237	-0.119466	7.784054	-1.757238	-1.163942	-0.017864
1.700	7.875831	-3.788209	668.856319	-0.097977	7.759824	-1.753776	-1.160163	-0.014648
1.710	7.808576	-3.778742	668.970326	-0.060732	7.747023	-1.752890	-1.158052	-0.009078
1.720	7.760042	-3.758638	669.094608	-0.005566	7.743648	-1.755553	-1.157332	-0.000832
1.730	7.739411	-3.727142	669.209940	0.066891	7.744207	-1.761967	-1.157216	0.009995
1.740	7.753991	-3.684349	669.290216	0.153331	7.741143	-1.771277	-1.156620	0.022910
1.750	7.808492	-3.631467	669.306783	0.248892	7.727488	-1.781583	-1.154551	0.037186
1.760	7.903529	-3.570198	669.238531	0.348899	7.699541	-1.790382	-1.150493	0.052134
1.770	8.033832	-3.501741	669.082479	0.450440	7.658305	-1.795332	-1.144598	0.067322
1.780	8.187323	-3.426189	668.858601	0.552985	7.609050	-1.795076	-1.137617	0.082676
1.790	8.346021	-3.342731	668.606850	0.657877	7.559426	-1.789776	-1.130623	0.098395
1.800	8.488823	-3.250405	668.379349	0.767138	7.517109	-1.781086	-1.124677	0.114776
1.810	8.595521	-3.148799	668.231511	0.882316	7.487819	-1.771580	-1.120543	0.132037
1.820	8.651307	-3.038449	668.212445	1.003852	7.474043	-1.763811	-1.118513	0.150229
1.830	8.650806	-2.921269	668.352515	1.131014	7.474421	-1.759426	-1.118335	0.169224
1.840	8.600475	-2.801283	668.648459	1.262038	7.483754	-1.758654	-1.119236	0.188745
1.850	8.518219	-2.685142	669.052627	1.394258	7.493680	-1.760337	-1.120043	0.208393
1.860	8.429792	-2.581263	669.475909	1.524401	7.494017	-1.762410	-1.119386	0.227701
1.870	8.362678	-2.497102	669.808986	1.649316	7.474567	-1.762639	-1.115925	0.246237
1.880	8.339176	-2.435631	669.955828	1.766996	7.427056	-1.759386	-1.108589	0.263748
1.890	8.370857	-2.393154	669.864966	1.877276	7.346875	-1.752199	-1.096770	0.280247
1.900	8.456184	-2.360080	669.544646	1.981683	7.234309	-1.742025	-1.080482	0.295975
1.910	8.581936	-2.324499	669.056613	2.082378	7.094893	-1.730947	-1.060432	0.311241
1.920	8.727572	-2.276787	668.493603	2.180725	6.938645	-1.721489	-1.037952	0.326215
1.930	8.870665	-2.213012	667.951953	2.276266	6.778296	-1.715741	-1.014788	0.340783
1.940	8.991688	-2.135792	667.510378	2.366856	6.626960	-1.714634	-0.992788	0.354580
1.950	9.077497	-2.052633	667.220276	2.450025	6.495818	-1.717636	-0.973564	0.367199
1.960	9.123521	-1.972803	667.105843	2.524858	6.392216	-1.722917	-0.958201	0.378479
1.970	9.134536	-1.904128	667.168455	2.593248	6.318499	-1.727920	-0.947062	0.388695
1.980	9.123557	-1.850847	667.390454	2.659643	6.271820	-1.730181	-0.939753	0.398514
1.990	9.108784	-1.812910	667.737095	2.729318	6.245125	-1.728186	-0.935267	0.408741
2.000	9.109251	-1.786402	668.158654	2.806050	6.229299	-1.721971	-0.932308	0.419968
2.010	9.140180	-1.764504	668.595795	2.890453	6.215979	-1.713197	-0.929707	0.432317
2.020	9.208847	-1.738734	668.989691	2.979768	6.200064	-1.704599	-0.926780	0.445413
2.030	9.311819	-1.700562	669.294951	3.068970	6.180937	-1.698990	-0.923500	0.458538
2.040	9.434670	-1.643526	669.490209	3.152473	6.162046	-1.698248	-0.920409	0.470877
2.050	9.555026	-1.565653	669.580718	3.225682	6.149231	-1.702702	-0.918370	0.481747
2.060	9.648596	-1.471507	669.591083	3.285950	6.148570	-1.711134	-0.918257	0.490740
2.070	9.696326	-1.372839	669.552085	3.332805	6.164432	-1.721291	-0.920680	0.497766
2.080	9.690170	-1.286806	669.488759	3.367564	6.198250	-1.730659	-0.925818	0.503005
2.090	9.635283	-1.231678	669.415136	3.392626	6.248284	-1.737243	-0.933394	0.506804
2.100	9.547752	-1.221272	669.336485	3.410875	6.310380	-1.740179	-0.942781	0.509590
2.110	9.448777	-1.260166	669.255737	3.425357	6.379369	-1.739978	-0.953203	0.511816
2.120	9.357710	-1.341361	669.178948	3.439063	6.450547	-1.738303	-0.963949	0.513923
2.130	9.286560	-1.447130	669.116020	3.454466	6.520785	-1.737288	-0.974537	0.516273
2.140	9.237588	-1.552971	669.076373	3.472723	6.589065	-1.738705	-0.984800	0.519032
2.150	9.204093	-1.634000	669.062264	3.492842	6.656357	-1.743386	-0.994879	0.522050
2.160	9.173518	-1.672318	669.063579	3.511363	6.724858	-1.751098	-1.005115	0.524818
2.170	9.131572	-1.662888	669.057614	3.523024	6.796791	-1.760836	-1.015875	0.526565
2.180	9.066166	-1.615478	669.015670	3.522329	6.873223	-1.771294	-1.027364	0.526494
2.190	8.970378	-1.551669	668.914933	3.505402	6.953363	-1.781301	-1.039499	0.524043
2.200	8.844132	-1.497998	668.750267	3.471238	7.034612	-1.790135	-1.051904	0.519063
2.210	8.694569	-1.477673	668.539123	3.421770	7.113325	-1.797634	-1.064010	0.511828
2.220	8.534991	-1.503748	668.315829	3.360889	7.185969	-1.804067	-1.075235	0.502889
2.230	8.382237	-1.576114	668.117966	3.293095	7.250232	-1.809797	-1.085172	0.492891
2.240	8.252918	-1.683100	667.972739	3.222511	7.305639	-1.814936	-1.093703	0.482432
2.250	8.159618	-1.806457	667.890801	3.152400	7.353419	-1.819197	-1.100991	0.471993
2.260	8.108324	-1.927294	667.869298	3.084871	7.395717	-1.822022	-1.107360	0.461897
2.270	8.097782	-2.030862	667.899850	3.020553	7.434610	-1.822882	-1.113133	0.452246
2.280	8.120557	-2.109270	667.975189	2.958370	7.471555	-1.821610	-1.118538	0.442886
2.290	8.165040	-2.162245	668.090662	2.895712	7.507597	-1.818629	-1.123739	0.433431
2.300	8.217589	-2.196279	668.240974	2.829159	7.544062	-1.815001	-1.128943	0.423374
2.310	8.264448	-2.222387	668.415696	2.755582	7.583086	-1.812183	-1.134487	0.412256
2.320	8.293556	-2.252759	668.597577	2.673210	7.627510	-1.811526	-1.140822	0.399824
2.330	8.296565	-2.297098	668.765640	2.582202	7.680135	-1.813689	-1.148405	0.386115
2.340	8.271166	-2.359891	668.901528	2.484417	7.742710	-1.818269	-1.157526	0.371417
2.350	8.223090	-2.439703	668.995077	2.382513	7.815110	-1.823888	-1.168186	0.356133
2.360	8.166387	-2.530746	669.045894	2.278877	7.895068	-1.828710	-1.180049	0.340616
2.370	8.120607	-2.625800	669.061118	2.174891	7.978652	-1.831146	-1.192515	0.325066
2.380	8.104933	-2.718883	669.051915	2.070815	8.061420	-1.830414	-1.204902	0.309515
