Time[s]	Fx[N]	Fy[N]	Fz[N]	Mx[Nm]	My[Nm]	Mz[Nm]	COPx[cm]	COPy[cm]
0.010	8.285956	0.000416	519.143439	-1.610455	11.019838	0.981350	-2.122696	-0.310214
0.020	8.505364	0.199230	520.527701	-1.597548	10.710253	0.981537	-2.057576	-0.306909
0.030	8.792207	0.356241	521.767779	-1.600171	10.380821	0.982739	-1.989548	-0.306683
0.040	9.173826	0.431349	522.708572	-1.633211	10.021368	0.985859	-1.917200	-0.312452
0.050	9.612089	0.393061	523.195934	-1.709383	9.637169	0.991545	-1.841981	-0.326719
0.060	10.005447	0.223469	523.110295	-1.838042	9.248749	1.000248	-1.768030	-0.351368
0.070	10.220495	-0.076758	522.411713	-2.024029	8.885610	1.012271	-1.700883	-0.387439
0.080	10.143349	-0.484837	521.171829	-2.266546	8.576296	1.027636	-1.645579	-0.434894
0.090	9.730302	-0.955827	519.572336	-2.558499	8.338853	1.045578	-1.604946	-0.492424
0.100	9.034229	-1.427557	517.866499	-2.887072	8.175682	1.063879	-1.578724	-0.557493
0.110	8.192684	-1.830772	516.318408	-3.236092	8.074688	1.078541	-1.563897	-0.626763
0.120	7.382273	-2.103527	515.143269	-3.589999	8.015602	1.084325	-1.555995	-0.696893
0.130	6.760553	-2.207444	514.468058	-3.938352	7.978136	1.076181	-1.550754	-0.765519
0.140	6.420989	-2.141397	514.320692	-4.279272	7.948340	1.050980	-1.545405	-0.832024
0.150	6.376802	-1.946870	514.644720	-4.620406	7.921015	1.008729	-1.539123	-0.897786
0.160	6.573745	-1.700778	515.329675	-4.976841	7.898162	0.952770	-1.532643	-0.965759
0.170	6.919779	-1.496109	516.245451	-5.366712	7.885033	0.888979	-1.527381	-1.039566
0.180	7.316714	-1.416011	517.271201	-5.806068	7.885996	0.824459	-1.524538	-1.122442
0.190	7.683547	-1.510040	518.313525	-6.304619	7.901916	0.766223	-1.524544	-1.216372
0.200	7.968133	-1.780874	519.313001	-6.863350	7.929648	0.720181	-1.526950	-1.321621
0.210	8.148680	-2.186220	520.241119	-7.474229	7.963028	0.690479	-1.530642	-1.436686
0.220	8.228343	-2.654899	521.090770	-8.121700	7.994356	0.679095	-1.534158	-1.558596
0.230	8.226511	-3.110610	521.863714	-8.785438	8.015542	0.685650	-1.535945	-1.683474
0.240	8.170139	-3.494416	522.559305	-9.443698	8.018600	0.707419	-1.534486	-1.807201
0.250	8.087733	-3.778582	523.169246	-10.076517	7.995613	0.739675	-1.528303	-1.926053
0.260	8.006914	-3.968757	523.680611	-10.668129	7.938529	0.776436	-1.515910	-2.037144
0.270	7.954365	-4.096097	524.083944	-11.208335	7.839311	0.811646	-1.495812	-2.138653
0.280	7.955567	-4.203804	524.378745	-11.692892	7.690910	0.840555	-1.466671	-2.229856
0.290	8.031811	-4.333030	524.569683	-12.123082	7.489236	0.860882	-1.427691	-2.311053
0.300	8.193691	-4.512009	524.653853	-12.504603	7.235646	0.873285	-1.379128	-2.383401
0.310	8.433291	-4.750650	524.607447	-12.845881	6.938886	0.880884	-1.322682	-2.448665
0.320	8.719867	-5.041188	524.382839	-13.156101	6.615250	0.887967	-1.261531	-2.508873
0.330	9.003974	-5.363830	523.921660	-13.443424	6.286221	0.898310	-1.199840	-2.565923
0.340	9.231569	-5.694918	523.179731	-13.713896	5.974013	0.913737	-1.141866	-2.621259
0.350	9.363927	-6.014435	522.152395	-13.971238	5.696531	0.933397	-1.090971	-2.675701
0.360	9.394411	-6.310031	520.888284	-14.217254	5.463687	0.953928	-1.048917	-2.729425
0.370	9.352993	-6.576104	519.485966	-14.452254	5.276386	0.970426	-1.015694	-2.782030
0.380	9.295108	-6.808599	518.076873	-14.674992	5.128297	0.977920	-0.989872	-2.832590
0.390	9.279941	-6.998562	516.802992	-14.882058	5.009307	0.972970	-0.969288	-2.879638
0.400	9.348638	-7.128602	515.796037	-15.067173	4.909119	0.954879	-0.951756	-2.921149
0.410	9.511827	-7.175278	515.160403	-15.221275	4.819753	0.926145	-0.935583	-2.954667
0.420	9.749727	-7.117391	514.960133	-15.334004	4.736620	0.891998	-0.919803	-2.977707
0.430	10.021896	-6.947015	515.210501	-15.396556	4.658511	0.859201	-0.904196	-2.988401
0.440	10.280861	-6.678356	515.875337	-15.405023	4.586975	0.834482	-0.889163	-2.986191
0.450	10.484615	-6.350083	516.871522	-15.362979	4.525272	0.823082	-0.875512	-2.972301
0.460	10.605115	-6.019302	518.081962	-15.282175	4.476875	0.827769	-0.864125	-2.949760
0.470	10.631857	-5.748554	519.376281	-15.180867	4.443662	0.848559	-0.855577	-2.922903
0.480	10.570926	-5.589700	520.634646	-15.080177	4.424305	0.883077	-0.849791	-2.896499
0.490	10.441041	-5.569743	521.767580	-14.999626	4.413565	0.927363	-0.845887	-2.874772
0.500	10.268526	-5.683229	522.725275	-14.953232	4.402881	0.976820	-0.842293	-2.860629
0.510	10.082503	-5.893952	523.493480	-14.947261	4.382100	1.027035	-0.837088	-2.855291
0.520	9.910462	-6.145526	524.078695	-14.980117	4.341746	1.074336	-0.828453	-2.858372
0.530	9.773863	-6.377146	524.491188	-15.044221	4.275001	1.115988	-0.815076	-2.868346
0.540	9.683941	-6.539095	524.735828	-15.129228	4.178724	1.150129	-0.796348	-2.883209
0.550	9.638845	-6.603227	524.815030	-15.225501	4.053194	1.175581	-0.772309	-2.901118
0.560	9.623735	-6.566215	524.739067	-15.326611	3.900904	1.191756	-0.743399	-2.920806
0.570	9.614852	-6.446129	524.533638	-15.429986	3.725196	1.198733	-0.710192	-2.941658
0.580	9.586946	-6.274797	524.236606	-15.535781	3.529516	1.197420	-0.673268	-2.963506
0.590	9.521582	-6.088896	523.883433	-15.644955	3.317584	1.189620	-0.633268	-2.986343
0.600	9.413105	-5.921988	523.489377	-15.757782	3.094088	1.177868	-0.591051	-3.010144
0.610	9.269906	-5.798588	523.040475	-15.873495	2.865104	1.165048	-0.547779	-3.034850
0.620	9.110673	-5.730603	522.501331	-15.990892	2.637683	1.153952	-0.504818	-3.060450
0.630	8.957533	-5.716284	521.837302	-16.109094	2.418704	1.146965	-0.463498	-3.086996
0.640	8.829177	-5.741729	521.039069	-16.227705	2.213568	1.145863	-0.424837	-3.114489
0.650	8.736675	-5.784753	520.136026	-16.346256	2.025306	1.151614	-0.389380	-3.142689
0.660	8.682854	-5.820672	519.192210	-16.463424	1.854490	1.164125	-0.357188	-3.170969
0.670	8.664389	-5.828907	518.288375	-16.576604	1.700005	1.182082	-0.328004	-3.198336
0.680	8.674946	-5.798655	517.499664	-16.682081	1.560436	1.203055	-0.301534	-3.223593
0.690	8.707907	-5.731669	516.878349	-16.775701	1.435448	1.223954	-0.277715	-3.245580
0.700	8.757739	-5.641096	516.447684	-16.853834	1.326441	1.241642	-0.256839	-3.263416
0.710	8.819791	-5.546833	516.207745	-16.914375	1.236040	1.253498	-0.239446	-3.276660
0.720	8.889216	-5.469139	516.148849	-16.957485	1.166519	1.257778	-0.226004	-3.285387
0.730	8.960248	-5.422669	516.265267	-16.985767	1.117828	1.253836	-0.216522	-3.290124
0.740	9.026688	-5.412719	516.563036	-17.003627	1.086146	1.242249	-0.210264	-3.291685
0.750	9.083496	-5.434657	517.058947	-17.015822	1.063747	1.224839	-0.205730	-3.290886
0.760	9.128645	-5.476235	517.770953	-17.025525	1.040405	1.204451	-0.200939	-3.288235
0.770	9.164365	-5.521508	518.703357	-17.032557	1.005798	1.184383	-0.193906	-3.283680
0.780	9.197208	-5.554798	519.833203	-17.032454	0.951892	1.167492	-0.183115	-3.276523
0.790	9.236644	-5.563591	521.104493	-17.016765	0.874342	1.155282	-0.167786	-3.265519
0.800	9.292374	-5.539862	522.432548	-16.974656	0.772557	1.147393	-0.147877	-3.249157
0.810	9.371237	-5.479657	523.715485	-16.895411	0.648815	1.141824	-0.123887	-3.226067
0.820	9.475042	-5.381212	524.847734	-16.771053	0.507130	1.135851	-0.096624	-3.195413
0.830	9.600362	-5.242720	525.732219	-16.598197	0.352326	1.127229	-0.067016	-3.157158
0.840	9.740495	-5.061328	526.290402	-16.378653	0.189364	1.115104	-0.035981	-3.112094
0.850	9.888642	-4.834574	526.470665	-16.118828	0.022783	1.100228	-0.004328	-3.061676
0.860	10.040705	-4.564114	526.254897	-15.828436	-0.143715	1.084496	0.027309	-3.007751
0.870	10.196163	-4.260041	525.661448	-15.519141	-0.307401	1.070180	0.058479	-2.952307
0.880	10.356579	-3.943228	524.741817	-15.203510	-0.466244	1.059260	0.088852	-2.897332
0.890	10.522734	-3.643683	523.570238	-14.894266	-0.618359	1.053076	0.118104	-2.844750
0.900	10.692300	-3.394635	522.229116	-14.603531	-0.761516	1.052253	0.145820	-2.796384
0.910	10.859569	-3.224043	520.796005	-14.341914	-0.893029	1.056749	0.171474	-2.753845
0.920	11.017449	-3.146427	519.337744	-14.117656	-1.010115	1.065911	0.194501	-2.718396
0.930	11.160594	-3.158024	517.914034	-13.936250	-1.110498	1.078566	0.214418	-2.690842
0.940	11.287787	-3.237361	516.587145	-13.800614	-1.192854	1.093209	0.230911	-2.671498
0.950	11.401947	-3.351475	515.429586	-13.711562	-1.256788	1.108315	0.243833	-2.660220
0.960	11.507463	-3.465991	514.521579	-13.668179	-1.302262	1.122689	0.253102	-2.656483
0.970	11.606038	-3.555580	513.936142	-13.667896	-1.328692	1.135689	0.258533	-2.659454
0.980	11.693007	-3.610909	513.717177	-13.706386	-1.334071	1.147193	0.259690	-2.668080
0.990	11.755532	-3.639282	513.860151	-13.777572	-1.314375	1.157406	0.255785	-2.681191
1.000	11.773151	-3.658779	514.304592	-13.874080	-1.263329	1.166647	0.245638	-2.697639
1.010	11.720403	-3.688633	514.944029	-13.988183	-1.172643	1.175208	0.227722	-2.716447
1.020	11.571251	-3.740292	515.653171	-14.113014	-1.032983	1.183303	0.200325	-2.736920
1.030	11.305336	-3.813097	516.325165	-14.243672	-0.835967	1.191051	0.161907	-2.758663
1.040	10.915880	-3.896049	516.906162	-14.377807	-0.577125	1.198465	0.111650	-2.781512
1.050	10.417495	-3.974187	517.412980	-14.515405	-0.258944	1.205393	0.050046	-2.805381
1.060	9.850178	-4.036116	517.924124	-14.657744	0.107398	1.211415	-0.020736	-2.830095
1.070	9.275382	-4.078857	518.544742	-14.805838	0.502930	1.215776	-0.096989	-2.855267
1.080	8.762985	-4.107531	519.358684	-14.958934	0.904655	1.217470	-0.174187	-2.880270
1.090	8.372939	-4.130058	520.388345	-15.113586	1.290980	1.215500	-0.248080	-2.904290
1.100	8.138932	-4.149930	521.579320	-15.263599	1.646642	1.209217	-0.315703	-2.926419
1.110	8.060762	-4.161453	522.814538	-15.400818	1.965109	1.198525	-0.375871	-2.945752
1.120	8.107893	-4.150545	523.949798	-15.516522	2.247738	1.183866	-0.428999	-2.961452
1.130	8.231824	-4.101195	524.855727	-15.603117	2.500432	1.166033	-0.476404	-2.972839
1.140	8.382068	-4.004572	525.450966	-15.655913	2.729512	1.145962	-0.519461	-2.979519
1.150	8.520258	-3.866261	525.716301	-15.674636	2.938612	1.124650	-0.558973	-2.981577
1.160	8.628255	-3.707842	525.687195	-15.664159	3.127642	1.103191	-0.594963	-2.979749
1.170	8.708140	-3.561611	525.430323	-15.633918	3.293836	1.082792	-0.626884	-2.975450
1.180	8.774491	-3.460529	525.014822	-15.595906	3.434012	1.064657	-0.654079	-2.970565
1.190	8.842205	-3.427563	524.489026	-15.561784	3.546990	1.049680	-0.676275	-2.967037
1.200	8.915337	-3.468784	523.869597	-15.540075	3.635266	1.038055	-0.693926	-2.966401
1.210	8.982191	-3.572639	523.145243	-15.534368	3.705488	1.028959	-0.708310	-2.969418
1.220	9.018883	-3.715180	522.293079	-15.543110	3.767572	1.020535	-0.721352	-2.975936
1.230	8.999359	-3.868693	521.301948	-15.560933	3.832714	1.010267	-0.735220	-2.985013
1.240	8.906893	-4.010239	520.194175	-15.580945	3.910883	0.995673	-0.751812	-2.995217
1.250	8.741863	-4.127007	519.036407	-15.597091	4.008588	0.975109	-0.772313	-3.005009
1.260	8.522841	-4.216877	517.933140	-15.605781	4.127669	0.948362	-0.796950	-3.013088
1.270	8.281039	-4.284556	517.003477	-15.606398	4.265469	0.916811	-0.825037	-3.018625
1.280	8.050603	-4.335693	516.350084	-15.600806	4.416287	0.883103	-0.855289	-3.021362
1.290	7.858402	-4.372426	516.033597	-15.592391	4.573543	0.850491	-0.886288	-3.021585
1.300	7.716881	-4.392885	516.062674	-15.585164	4.731830	0.822046	-0.916910	-3.020014
1.310	7.622498	-4.394587	516.401555	-15.583209	4.888013	0.799918	-0.946553	-3.017653
1.320	7.560263	-4.379261	516.988769	-15.590380	5.041016	0.784800	-0.975073	-3.015613
1.330	7.512398	-4.355979	517.756753	-15.609969	5.190561	0.775792	-1.002510	-3.014923
1.340	7.467073	-4.340545	518.644092	-15.644168	5.335687	0.770800	-1.028776	-3.016359
1.350	7.423131	-4.351016	519.598129	-15.693376	5.473925	0.767396	-1.053492	-3.020291
1.360	7.388893	-4.401139	520.571515	-15.755464	5.601535	0.763795	-1.076036	-3.026571
1.370	7.376313	-4.494570	521.518353	-15.825283	5.714523	0.759507	-1.095747	-3.034463
1.380	7.393882	-4.622512	522.393252	-15.894767	5.809742	0.755331	-1.112140	-3.042682
1.390	7.441761	-4.765801	523.152823	-15.953914	5.885534	0.752757	-1.125012	-3.049570
1.400	7.510988	-4.900437	523.757508	-15.992564	5.941866	0.753098	-1.134469	-3.053429
1.410	7.586402	-5.004282	524.173047	-16.002489	5.980250	0.756803	-1.140892	-3.052902
1.420	7.651506	-5.062664	524.372547	-15.979122	6.003635	0.763275	-1.144918	-3.047284
1.430	7.693279	-5.071209	524.339695	-15.922398	6.016143	0.771243	-1.147375	-3.036657
1.440	7.705662	-5.035264	524.072268	-15.836394	6.022482	0.779458	-1.149170	-3.021796
1.450	7.691050	-4.966449	523.585207	-15.727779	6.027056	0.787342	-1.151113	-3.003862
1.460	7.659495	-4.877972	522.913398	-15.603565	6.033105	0.795289	-1.153748	-2.983967
1.470	7.625667	-4.780536	522.113512	-15.469011	6.042287	0.804540	-1.157275	-2.962768
1.480	7.604414	-4.679961	521.261940	-15.326555	6.054862	0.816671	-1.161578	-2.940279
1.490	7.606432	-4.576714	520.445748	-15.176200	6.070276	0.832946	-1.166361	-2.916000
1.500	7.635677	-4.467147	519.746871	-15.017010	6.087770	0.853760	-1.171295	-2.889293
1.510	7.689125	-4.346313	519.224108	-14.848824	6.106757	0.878403	-1.176131	-2.859810
1.520	7.758278	-4.211902	518.899403	-14.673308	6.126966	0.905238	-1.180762	-2.827775
1.530	7.831211	-4.067821	518.753784	-14.493986	6.148387	0.932223	-1.185223	-2.794001
1.540	7.894565	-3.925259	518.735413	-14.315536	6.171063	0.957524	-1.189636	-2.759699
1.550	7.935709	-3.799916	518.778356	-14.142860	6.194748	0.979904	-1.194103	-2.726185
1.560	7.945458	-3.706205	518.826042	-13.980329	6.218579	0.998726	-1.198586	-2.694608
1.570	7.920894	-3.650934	518.849935	-13.831412	6.240948	1.013684	-1.202843	-2.665783
1.580	7.866950	-3.629279	518.854690	-13.698692	6.259766	1.024493	-1.206458	-2.640179
1.590	7.795338	-3.624945	518.867163	-13.584021	6.273177	1.030702	-1.209014	-2.618015
1.600	7.720440	-3.614922	518.914787	-13.488530	6.280578	1.031675	-1.210329	-2.599373
1.610	7.653402	-3.577560	519.004386	-13.412471	6.283488	1.026723	-1.210681	-2.584269
1.620	7.596950	-3.501239	519.112558	-13.355175	6.285730	1.015372	-1.210861	-2.572694
1.630	7.543719	-3.390043	519.193724	-13.315384	6.292621	0.997692	-1.211999	-2.564627
1.640	7.479591	-3.263564	519.203630	-13.291816	6.309451	0.974536	-1.215217	-2.560039
1.650	7.391236	-3.150341	519.127488	-13.283620	6.339857	0.947572	-1.221252	-2.558836
1.660	7.274735	-3.077471	518.997353	-13.290441	6.384748	0.919126	-1.230208	-2.560792
1.670	7.141165	-3.060780	518.887073	-13.312095	6.442140	0.891892	-1.241530	-2.565509
1.680	7.015847	-3.099684	518.884387	-13.347997	6.507935	0.868554	-1.254217	-2.572441
1.690	6.930459	-3.178617	519.052010	-13.396536	6.577411	0.851279	-1.267197	-2.580962
1.700	6.910358	-3.273885	519.395319	-13.454597	6.646946	0.841138	-1.279747	-2.590435
1.710	6.961905	-3.362725	519.851481	-13.517524	6.715435	0.837675	-1.291799	-2.600266
1.720	7.065287	-3.431067	520.306000	-13.579783	6.784925	0.838859	-1.304026	-2.609961
1.730	7.177034	-3.477647	520.631552	-13.636380	6.860188	0.841576	-1.317667	-2.619200
1.740	7.243215	-3.513465	520.734274	-13.684659	6.947216	0.842551	-1.334119	-2.627954
1.750	7.219653	-3.557007	520.588877	-13.725764	7.050940	0.839378	-1.354416	-2.636584
1.760	7.091354	-3.627024	520.248498	-13.764837	7.172866	0.831267	-1.378738	-2.645820
1.770	6.882214	-3.735521	519.825980	-13.809484	7.309503	0.819193	-1.406144	-2.656559
1.780	6.649542	-3.883338	519.454889	-13.866902	7.452338	0.805399	-1.434646	-2.669510
1.790	6.464917	-4.059524	519.246062	-13.940950	7.589502	0.792508	-1.461639	-2.684845
1.800	6.389507	-4.244242	519.255768	-14.030514	7.708613	0.782632	-1.484550	-2.702043
1.810	6.454556	-4.413967	519.475401	-14.129750	7.799762	0.776818	-1.501469	-2.720004
1.820	6.654552	-4.547506	519.843367	-14.229784	7.857654	0.774984	-1.511543	-2.737321
1.830	6.953913	-4.631427	520.271876	-14.320929	7.882221	0.776330	-1.515020	-2.752586
1.840	7.301873	-4.663559	520.677008	-14.394548	7.877651	0.779988	-1.512963	-2.764583
1.850	7.647876	-4.653323	521.001029	-14.444206	7.850422	0.785563	-1.506796	-2.772395
1.860	7.951826	-4.618355	521.220674	-14.466228	7.807345	0.793262	-1.497896	-2.775452
1.870	8.187616	-4.578350	521.341592	-14.459929	7.754441	0.803505	-1.487401	-2.773600
1.880	8.341690	-4.548614	521.384380	-14.427612	7.696866	0.816275	-1.476236	-2.767174
1.890	8.409651	-4.536196	521.369770	-14.374129	7.639425	0.830624	-1.465260	-2.756993
1.900	8.393495	-4.540106	521.309103	-14.305788	7.586898	0.844693	-1.455355	-2.744205
1.910	8.300809	-4.554762	521.202831	-14.228725	7.543608	0.856275	-1.447346	-2.729979
1.920	8.145628	-4.574146	521.046430	-14.147340	7.512368	0.863724	-1.441785	-2.715178
1.930	7.949184	-4.594325	520.840151	-14.063411	7.493503	0.866795	-1.438734	-2.700140
1.940	7.738458	-4.613516	520.597032	-13.976180	7.484697	0.866986	-1.437714	-2.684645
1.950	7.541654	-4.630555	520.344353	-13.883159	7.481905	0.867118	-1.437876	-2.668071
1.960	7.381655	-4.643326	520.117733	-13.781179	7.480830	0.870198	-1.438295	-2.649627
1.970	7.269962	-4.648242	519.951425	-13.667282	7.478131	0.878095	-1.438237	-2.628569
1.980	7.203786	-4.640991	519.869990	-13.539382	7.471789	0.890693	-1.437242	-2.604378
1.990	7.167707	-4.618167	519.884577	-13.396695	7.460599	0.905958	-1.435049	-2.576859
2.000	7.139295	-4.579133	519.993687	-13.239879	7.443307	0.920843	-1.431423	-2.546161
2.010	7.096528	-4.527042	520.185994	-13.070782	7.417953	0.932501	-1.426019	-2.512713
2.020	7.024416	-4.467800	520.442900	-12.891780	7.381780	0.939204	-1.418365	-2.477079
2.030	6.918830	-4.406695	520.740375	-12.704816	7.331657	0.940662	-1.407929	-2.439760
2.040	6.786701	-4.344124	521.051196	-12.510318	7.264709	0.937820	-1.394241	-2.400977
2.050	6.643147	-4.272952	521.348429	-12.306326	7.178859	0.932391	-1.376979	-2.360480
2.060	6.507030	-4.179393	521.609631	-12.088254	7.073131	0.926289	-1.356020	-2.317491
2.070	6.396609	-4.047388	521.820437	-11.849588	6.947672	0.921049	-1.331430	-2.270817
2.080	6.326610	-3.864545	521.976568	-11.583383	6.803452	0.917313	-1.303402	-2.219138
2.090	6.307404	-3.627160	522.084065	-11.284223	6.641703	0.914614	-1.272152	-2.161380
2.100	6.345856	-3.342702	522.158006	-10.950164	6.463238	0.911643	-1.237793	-2.097098
2.110	6.446374	-3.029228	522.219670	-10.584284	6.267936	0.906989	-1.200249	-2.026788
2.120	6.610711	-2.711757	522.291626	-10.195380	6.054632	0.900009	-1.159244	-1.952047
2.130	6.836358	-2.416125	522.390745	-9.797296	5.821493	0.891364	-1.114394	-1.875473
2.140	7.114951	-2.161805	522.520405	-9.406678	5.566752	0.882939	-1.065365	-1.800251
2.150	7.432269	-1.956420	522.663864	-9.039671	5.289606	0.877160	-1.012047	-1.729538
2.160	7.770126	-1.794746	522.780761	-8.708725	4.991062	0.876060	-0.954714	-1.665847
2.170	8.108934	-1.663131	522.808699	-8.420579	4.674609	0.880477	-0.894134	-1.610642
2.180	8.429634	-1.547101	522.671881	-8.175905	4.346570	0.889688	-0.831606	-1.564252
2.190	8.714896	-1.437987	522.297321	-7.970388	4.015953	0.901599	-0.768902	-1.526025
2.200	8.950336	-1.335300	521.636125	-7.796661	3.693633	0.913389	-0.708086	-1.494655
2.210	9.126108	-1.244471	520.683857	-7.646568	3.390874	0.922353	-0.651235	-1.468563
2.220	9.238402	-1.172198	519.492793	-7.513315	3.117394	0.926597	-0.600084	-1.446279
2.230	9.290332	-1.122372	518.170978	-7.393212	2.879353	0.925438	-0.555676	-1.426790
2.240	9.292214	-1.094570	516.867222	-7.286571	2.677783	0.919483	-0.518079	-1.409757
2.250	9.261329	-1.085377	515.745116	-7.197431	2.508069	0.910456	-0.486300	-1.395540
2.260	9.220774	-1.091311	514.951719	-7.132090	2.360919	0.900812	-0.458474	-1.385002
2.270	9.196457	-1.111633	514.588164	-7.097019	2.224758	0.893186	-0.432338	-1.379165
2.280	9.211758	-1.149688	514.689701	-7.096936	2.088888	0.889762	-0.405854	-1.378877
2.290	9.280941	-1.212063	515.220619	-7.133632	1.946396	0.891761	-0.377779	-1.384578
2.300	9.403866	-1.305419	516.084833	-7.205655	1.795947	0.899179	-0.347995	-1.396215
2.310	9.564646	-1.431870	517.147908	-7.308609	1.641991	0.910854	-0.317509	-1.413253
2.320	9.735217	-1.584974	518.263542	-7.435720	1.493422	0.924808	-0.288159	-1.434737
2.330	9.882557	-1.748697	519.297849	-7.578481	1.361113	0.938769	-0.262106	-1.459371
2.340	9.977003	-1.900514	520.147565	-7.727355	1.254937	0.950737	-0.241266	-1.485608
