Time[s]	Fx[N]	Fy[N]	Fz[N]	Mx[Nm]	My[Nm]	Mz[Nm]	COPx[cm]	COPy[cm]
0.010	-0.589449	-0.929288	651.850663	12.409834	-7.673113	-1.102431	1.177127	1.903785
0.020	-0.471167	-0.841029	653.346946	12.501308	-7.731259	-1.095758	1.183331	1.913426
0.030	-0.364487	-0.761058	654.841793	12.586592	-7.788721	-1.091430	1.189405	1.922081
0.040	-0.281772	-0.701223	656.307848	12.659824	-7.844023	-1.090459	1.195174	1.928946
0.050	-0.235231	-0.675401	657.680968	12.715088	-7.894420	-1.092132	1.200342	1.933322
0.060	-0.234199	-0.695453	658.873467	12.747373	-7.936179	-1.094556	1.204507	1.934722
0.070	-0.281667	-0.765434	659.801137	12.753805	-7.965409	-1.095801	1.207244	1.932977
0.080	-0.372059	-0.877441	660.408734	12.734501	-7.979160	-1.094894	1.208215	1.928276
0.090	-0.491842	-1.011768	660.682758	12.692605	-7.976501	-1.092054	1.207312	1.921135
0.100	-0.623181	-1.141581	660.649473	12.633478	-7.959242	-1.088142	1.204760	1.912282
0.110	-0.749080	-1.239992	660.363095	12.563389	-7.931954	-1.083811	1.201150	1.902497
0.120	-0.857507	-1.286838	659.890939	12.488157	-7.901185	-1.079045	1.197347	1.892458
0.130	-0.942632	-1.273354	659.300568	12.412192	-7.874096	-1.073345	1.194310	1.882630
0.140	-1.003053	-1.204061	658.651416	12.338197	-7.856997	-1.066301	1.192892	1.873251
0.150	-1.038617	-1.095652	657.991078	12.267701	-7.854288	-1.058009	1.193677	1.864417
0.160	-1.047873	-0.972914	657.354908	12.202239	-7.868027	-1.049034	1.196922	1.856263
0.170	-1.027451	-0.862212	656.767291	12.144567	-7.898066	-1.040025	1.202567	1.849143
0.180	-0.973519	-0.784169	656.243771	12.099124	-7.942431	-1.031343	1.210287	1.843694
0.190	-0.884818	-0.748184	655.793987	12.071318	-7.997657	-1.022953	1.219538	1.840718
0.200	-0.766432	-0.751125	655.425404	12.065901	-8.059069	-1.014623	1.229594	1.840927
0.210	-0.632798	-0.780647	655.147116	12.085208	-8.121275	-1.006203	1.239611	1.844656
0.220	-0.507710	-0.821197	654.972543	12.128153	-8.179187	-0.997845	1.248783	1.851704
0.230	-0.419416	-0.859600	654.920201	12.190549	-8.229580	-0.990069	1.256578	1.861379
0.240	-0.391134	-0.887934	655.012529	12.266639	-8.272647	-0.983733	1.262975	1.872733
0.250	-0.430611	-0.903227	655.272858	12.351034	-8.312767	-0.979962	1.268596	1.884869
0.260	-0.524302	-0.905014	655.720201	12.440184	-8.357902	-0.979979	1.274614	1.897179
0.270	-0.640292	-0.892279	656.361633	12.532803	-8.417636	-0.984715	1.282469	1.909436
0.280	-0.739423	-0.861187	657.183475	12.629205	-8.500521	-0.994278	1.293478	1.921717
0.290	-0.789323	-0.804750	658.144378	12.729917	-8.611748	-1.007600	1.308489	1.934213
0.300	-0.774649	-0.714963	659.173823	12.834199	-8.752046	-1.022634	1.327730	1.947013
0.310	-0.699603	-0.586853	660.177769	12.939159	-8.918083	-1.037094	1.350861	1.959951
0.320	-0.583067	-0.422471	661.050595	13.039833	-9.104019	-1.049347	1.377205	1.972592
0.330	-0.449632	-0.232391	661.691290	13.130311	-9.303451	-1.058899	1.406011	1.984356
0.340	-0.320232	-0.033355	662.021817	13.205564	-9.511101	-1.066200	1.436675	1.994732
0.350	-0.205344	0.156991	662.004336	13.263239	-9.723864	-1.071931	1.468852	2.003497
0.360	-0.102629	0.325357	661.651544	13.304534	-9.941125	-1.076322	1.502471	2.010807
0.370	0.000474	0.465261	661.024592	13.333690	-10.164378	-1.078960	1.537670	2.017125
0.380	0.120666	0.575811	660.217952	13.356401	-10.396304	-1.079206	1.574678	2.023029
0.390	0.272164	0.658394	659.336619	13.377936	-10.639568	-1.076887	1.613678	2.028999
0.400	0.462276	0.713810	658.473021	13.401664	-10.895671	-1.072754	1.654687	2.035264
0.410	0.689958	0.741547	657.689251	13.428254	-11.164121	-1.068417	1.697477	2.041732
0.420	0.946366	0.741137	657.008219	13.455586	-11.442058	-1.065770	1.741540	2.048009
0.430	1.216286	0.714268	656.416102	13.479407	-11.724381	-1.066252	1.786120	2.053485
0.440	1.480505	0.666340	655.875769	13.494706	-12.004438	-1.070295	1.830291	2.057509
0.450	1.720021	0.606868	655.346680	13.497390	-12.275196	-1.077210	1.873084	2.059580
0.460	1.922228	0.548533	654.803657	13.485625	-12.530596	-1.085507	1.913642	2.059491
0.470	2.087053	0.504698	654.246995	13.460247	-12.766575	-1.093460	1.951339	2.057365
0.480	2.229044	0.485597	653.699673	13.424119	-12.981253	-1.099675	1.985813	2.053561
0.490	2.371885	0.494318	653.192892	13.380667	-13.174175	-1.103465	2.016889	2.048502
0.500	2.535775	0.524346	652.747265	13.332122	-13.344967	-1.104933	2.044431	2.042463
0.510	2.723496	0.560177	652.360527	13.278119	-13.492119	-1.104736	2.068200	2.035396
0.520	2.913679	0.581378	652.010212	13.215451	-13.612635	-1.103654	2.087795	2.026878
0.530	3.066741	0.569187	651.671186	13.139393	-13.702847	-1.102180	2.102724	2.016261
0.540	3.141732	0.513576	651.338920	13.046276	-13.760060	-1.100371	2.112581	2.002994
0.550	3.115584	0.418105	651.046063	12.936133	-13.784176	-1.097994	2.117235	1.986977
0.560	2.994769	0.300172	650.863211	12.814053	-13.778468	-1.094843	2.116953	1.968778
0.570	2.813778	0.185808	650.882087	12.689460	-13.749231	-1.091002	2.112400	1.949579
0.580	2.621899	0.100556	651.187200	12.573430	-13.704580	-1.086978	2.104553	1.930847
0.590	2.465255	0.059990	651.827270	12.475030	-13.652925	-1.083663	2.094562	1.913855
0.600	2.372248	0.063831	652.796968	12.398114	-13.601541	-1.082116	2.083579	1.899230
0.610	2.347813	0.096111	654.033574	12.339858	-13.555434	-1.083157	2.072590	1.886732
0.620	2.377088	0.130981	655.426996	12.291686	-13.516568	-1.086931	2.062254	1.875371
0.630	2.434857	0.141455	656.838761	12.242228	-13.483581	-1.092707	2.052799	1.863810
0.640	2.495350	0.107845	658.125117	12.181116	-13.452245	-1.099093	2.044025	1.850882
0.650	2.538475	0.023805	659.159627	12.102164	-13.416858	-1.104565	2.035449	1.835999
0.660	2.551942	-0.101070	659.851470	12.004858	-13.372296	-1.108054	2.026561	1.819327
0.670	2.531222	-0.242825	660.156634	11.893879	-13.315916	-1.109254	2.017084	1.801675
0.680	2.479025	-0.369208	660.079793	11.777020	-13.248399	-1.108529	2.007090	1.784181
0.690	2.404123	-0.449243	659.666360	11.662221	-13.173030	-1.106505	1.996923	1.767897
0.700	2.318411	-0.463502	658.987586	11.554678	-13.093742	-1.103593	1.986948	1.753398
0.710	2.232276	-0.411280	658.124321	11.455003	-13.012914	-1.099687	1.977273	1.740553
0.720	2.150449	-0.311720	657.154749	11.359151	-12.930185	-1.094186	1.967601	1.728535
0.730	2.071165	-0.198295	656.148533	11.260192	-12.842925	-1.086322	1.957320	1.716104
0.740	1.989719	-0.108820	655.166114	11.151132	-12.748015	-1.075691	1.945768	1.702031
0.750	1.904367	-0.074775	654.259342	11.027512	-12.643720	-1.062729	1.932524	1.685495
0.760	1.820551	-0.113644	653.469611	10.888642	-12.530456	-1.048899	1.917527	1.666281
0.770	1.750039	-0.226242	652.822641	10.737136	-12.409945	-1.036374	1.900967	1.644725
0.780	1.704738	-0.398568	652.322870	10.577270	-12.283186	-1.027291	1.882992	1.621478
0.790	1.688542	-0.606155	651.951908	10.413146	-12.148311	-1.022910	1.863375	1.597226
0.800	1.692006	-0.818970	651.673661	10.247472	-11.999484	-1.023108	1.841333	1.572485
0.810	1.692770	-1.006121	651.445495	10.081257	-11.827507	-1.026438	1.815579	1.547521
0.820	1.660948	-1.140488	651.232372	9.914267	-11.621947	-1.030601	1.784608	1.522385
0.830	1.566323	-1.203353	651.020026	9.745903	-11.373954	-1.033013	1.747097	1.497021
0.840	1.384561	-1.188542	650.823889	9.576195	-11.078761	-1.031297	1.702267	1.471396
0.850	1.101737	-1.105147	650.692166	9.406689	-10.737153	-1.023752	1.650113	1.445643
0.860	0.718015	-0.977687	650.702712	9.241032	-10.355684	-1.009897	1.591462	1.420162
0.870	0.250813	-0.842813	650.953163	9.084913	-9.945744	-0.990976	1.527874	1.395632
0.880	-0.264040	-0.742485	651.542976	8.945015	-9.521808	-0.970091	1.461424	1.372897
0.890	-0.775854	-0.714828	652.547286	8.827042	-9.099242	-0.951654	1.394419	1.352705
0.900	-1.228881	-0.785006	653.987230	8.733433	-8.692061	-0.940128	1.329087	1.335413
0.910	-1.576860	-0.958769	655.807403	8.661797	-8.311029	-0.938460	1.267297	1.320784
0.920	-1.797574	-1.220766	657.872623	8.604851	-7.962486	-0.946865	1.210339	1.307981
0.930	-1.901262	-1.538250	659.989883	8.551977	-7.648220	-0.962577	1.158839	1.295774
0.940	-1.928071	-1.869011	661.950205	8.491983	-7.366558	-0.980778	1.112857	1.282873
0.950	-1.933709	-2.171042	663.576214	8.416301	-7.114477	-0.996382	1.072142	1.268325
0.960	-1.967677	-2.410952	664.759721	8.321766	-6.890083	-1.005908	1.036477	1.251846
0.970	-2.052597	-2.569044	665.478291	8.211951	-6.694542	-1.008658	1.005975	1.233992
0.980	-2.173810	-2.640569	665.786626	8.096155	-6.532589	-1.006790	0.981184	1.216028
0.990	-2.284520	-2.634203	665.785739	7.986021	-6.411250	-1.004351	0.962960	1.199488
1.000	-2.324790	-2.569007	665.580327	7.890962	-6.337185	-1.005743	0.952129	1.185576
1.010	-2.246188	-2.470624	665.240285	7.814424	-6.313734	-1.014261	0.949091	1.174677
1.020	-2.031371	-2.366947	664.781688	7.752673	-6.338978	-1.031195	0.953543	1.166198
1.030	-1.700807	-2.283573	664.173941	7.696499	-6.405546	-1.055692	0.964438	1.158808
1.040	-1.305044	-2.239520	663.367200	7.634847	-6.502062	-1.085182	0.980160	1.150923
1.050	-0.907084	-2.243920	662.325281	7.558767	-6.615503	-1.116081	0.998830	1.141247
1.060	-0.562643	-2.294293	661.049560	7.464227	-6.733566	-1.144516	1.018617	1.129148
1.070	-0.305853	-2.376885	659.587157	7.352962	-6.846455	-1.166983	1.037991	1.114782
1.080	-0.144775	-2.469255	658.024920	7.231280	-6.947854	-1.180886	1.055865	1.098937
1.090	-0.066353	-2.545020	656.474614	7.107514	-7.035184	-1.184908	1.071661	1.082679
1.100	-0.046412	-2.580336	655.054380	6.989221	-7.109244	-1.179161	1.085291	1.066968
1.110	-0.059269	-2.561033	653.869818	6.881177	-7.173375	-1.165111	1.097065	1.052377
1.120	-0.083614	-2.488510	652.997299	6.784641	-7.232258	-1.145275	1.107548	1.039000
1.130	-0.104246	-2.381918	652.472739	6.697848	-7.290503	-1.122756	1.117365	1.026533
1.140	-0.111246	-2.274751	652.289372	6.617336	-7.351310	-1.100715	1.127001	1.014479
1.150	-0.098591	-2.205876	652.405497	6.539511	-7.415467	-1.081940	1.136635	1.002369
1.160	-0.063650	-2.207617	652.758587	6.461797	-7.481035	-1.068559	1.146065	0.989921
1.170	-0.007701	-2.295161	653.279598	6.383074	-7.543899	-1.061855	1.154773	0.977082
1.180	0.063577	-2.461190	653.903383	6.303693	-7.599070	-1.062119	1.162109	0.964010
1.190	0.140938	-2.677503	654.575115	6.225629	-7.642333	-1.068552	1.167526	0.951095
1.200	0.214111	-2.902719	655.254344	6.152937	-7.671677	-1.079308	1.170794	0.939015
1.210	0.275198	-3.093257	655.917198	6.091983	-7.687995	-1.091839	1.172098	0.928773
1.220	0.321430	-3.214284	656.555939	6.050721	-7.694805	-1.103592	1.171995	0.921585
1.230	0.356126	-3.247832	657.175169	6.036716	-7.697144	-1.112923	1.171247	0.918586
1.240	0.387790	-3.196276	657.784914	6.054438	-7.700164	-1.119753	1.170620	0.920428
1.250	0.428096	-3.080458	658.391623	6.102956	-7.707972	-1.125521	1.170727	0.926949
1.260	0.489322	-2.933082	658.988880	6.175240	-7.722930	-1.132232	1.171936	0.937078
1.270	0.581043	-2.789456	659.550170	6.259668	-7.745299	-1.141045	1.174331	0.949081
1.280	0.705953	-2.678507	660.026334	6.343375	-7.773000	-1.151264	1.177680	0.961079
1.290	0.855925	-2.616600	660.349846	6.416184	-7.801526	-1.160421	1.181423	0.971634
1.300	1.010651	-2.605250	660.446293	6.473506	-7.824245	-1.165442	1.184691	0.980172
1.310	1.140849	-2.632484	660.251327	6.517118	-7.833391	-1.164165	1.186426	0.987066
1.320	1.215827	-2.676940	659.729596	6.553608	-7.821701	-1.156301	1.185592	0.993378
1.330	1.212856	-2.713702	658.890862	6.591305	-7.784238	-1.143401	1.181415	1.000364
1.340	1.124702	-2.720667	657.797331	6.636934	-7.719778	-1.128004	1.173580	1.008963
1.350	0.962602	-2.683951	656.557320	6.693240	-7.631211	-1.112537	1.162307	1.019445
1.360	0.753878	-2.600989	655.304966	6.758283	-7.524758	-1.098460	1.148283	1.031319
1.370	0.535246	-2.480667	654.171448	6.826428	-7.408185	-1.085979	1.132453	1.043523
1.380	0.343625	-2.340673	653.256512	6.890449	-7.288553	-1.074276	1.115726	1.054785
1.390	0.206215	-2.202788	652.608744	6.943911	-7.170159	-1.062059	1.098692	1.064024
1.400	0.131937	-2.087045	652.219936	6.983088	-7.053207	-1.048115	1.081415	1.070665
1.410	0.107100	-2.006136	652.034627	7.008071	-6.933532	-1.031654	1.063369	1.074800
1.420	0.098107	-1.961973	651.972128	7.023001	-6.803498	-1.012465	1.043526	1.077193
1.430	0.061800	-1.946203	651.955271	7.035422	-6.653972	-0.990967	1.020618	1.079127
1.440	-0.039644	-1.945011	651.937991	7.054930	-6.477012	-0.968256	0.993501	1.082147
1.450	-0.225024	-1.946314	651.923223	7.091515	-6.268577	-0.946083	0.961551	1.087784
1.460	-0.487148	-1.945856	651.964695	7.154098	-6.030457	-0.926683	0.924967	1.097314
1.470	-0.795020	-1.948958	652.150993	7.249447	-5.770730	-0.912411	0.884876	1.111621
1.480	-1.103801	-1.966791	652.576813	7.381337	-5.502526	-0.905256	0.843200	1.131106
1.490	-1.368498	-2.008985	653.311648	7.549684	-5.241371	-0.906346	0.802277	1.155602
1.500	-1.556498	-2.076389	654.377190	7.749695	-5.001990	-0.915580	0.764389	1.184286
1.510	-1.654740	-2.157628	655.740423	7.971557	-4.795676	-0.931533	0.731338	1.215657
1.520	-1.669111	-2.230957	657.322138	8.201324	-4.629089	-0.951742	0.704235	1.247687
1.530	-1.616849	-2.270183	659.013772	8.423239	-4.504524	-0.973369	0.683525	1.278158
1.540	-1.516342	-2.251861	660.692894	8.622997	-4.420929	-0.994063	0.669135	1.305145
1.550	-1.380434	-2.161130	662.231656	8.790916	-4.374792	-1.012665	0.660614	1.327468
1.560	-1.216870	-1.994990	663.500608	8.923848	-4.360445	-1.029377	0.657188	1.344965
1.570	-1.034036	-1.763253	664.375428	9.025024	-4.370054	-1.045274	0.657769	1.358422
1.580	-0.845903	-1.487805	664.751903	9.101790	-4.394002	-1.061398	0.660999	1.369201
1.590	-0.670867	-1.200230	664.566869	9.162114	-4.422184	-1.077919	0.665424	1.378659
1.600	-0.524630	-0.937405	663.816535	9.211372	-4.446049	-1.093816	0.669771	1.387638
1.610	-0.412511	-0.735220	662.563298	9.250799	-4.460480	-1.107176	0.673216	1.396214
1.620	-0.327359	-0.621722	660.927113	9.278255	-4.464445	-1.115895	0.675482	1.403824
1.630	-0.255157	-0.611558	659.063981	9.290885	-4.459980	-1.118364	0.676714	1.409709
1.640	-0.185000	-0.703011	657.138717	9.288383	-4.450052	-1.113958	0.677186	1.413458
1.650	-0.117206	-0.877893	655.300450	9.275321	-4.436506	-1.103265	0.677019	1.415430
1.660	-0.064635	-1.103990	653.667468	9.261457	-4.419089	-1.088105	0.676045	1.416845
1.670	-0.046404	-1.339988	652.323735	9.259883	-4.395880	-1.071309	0.673880	1.419523
1.680	-0.077480	-1.542875	651.324477	9.283718	-4.364678	-1.056196	0.670123	1.425360
1.690	-0.159601	-1.676734	650.704457	9.342510	-4.324495	-1.045765	0.664587	1.435753
1.700	-0.277868	-1.720417	650.482458	9.439508	-4.276369	-1.041863	0.657415	1.451155
1.710	-0.404199	-1.671317	650.659628	9.570595	-4.223150	-1.044651	0.649057	1.470906
1.720	-0.505740	-1.544063	651.214841	9.725154	-4.168515	-1.052618	0.640114	1.493386
1.730	-0.554644	-1.365166	652.102277	9.888640	-4.115770	-1.063093	0.631154	1.516425
1.740	-0.535629	-1.165927	653.253597	10.046127	-4.067005	-1.073016	0.622577	1.537860
1.750	-0.449409	-0.975724	654.582811	10.185880	-4.022830	-1.079723	0.614564	1.556087
1.760	-0.312101	-0.817027	655.991266	10.301957	-3.982585	-1.081566	0.607109	1.570441
1.770	-0.151725	-0.702775	657.373035	10.395090	-3.944687	-1.078300	0.600068	1.581308
1.780	-0.002191	-0.636306	658.623097	10.471637	-3.906930	-1.071157	0.593197	1.589929
1.790	0.105291	-0.613362	659.648984	10.540982	-3.866822	-1.062550	0.586194	1.597968
1.800	0.151927	-0.625064	660.383223	10.612379	-3.822193	-1.055352	0.578784	1.607003
1.810	0.138159	-0.660466	660.792528	10.692379	-3.771999	-1.051907	0.570830	1.618114
1.820	0.083106	-0.707866	660.880938	10.783648	-3.716933	-1.053141	0.562421	1.631708
1.830	0.015569	-0.755157	660.686166	10.885358	-3.659440	-1.058193	0.553885	1.647584
1.840	-0.039047	-0.790372	660.270307	10.994669	-3.603101	-1.064840	0.545701	1.665177
1.850	-0.068340	-0.803303	659.707059	11.108443	-3.551726	-1.070557	0.538379	1.683845
1.860	-0.073740	-0.787894	659.068018	11.224328	-3.508618	-1.073753	0.532360	1.703061
1.870	-0.063492	-0.744122	658.410771	11.340879	-3.476169	-1.074522	0.527964	1.722463
1.880	-0.043814	-0.678124	657.771645	11.456945	-3.455647	-1.074506	0.525357	1.741782
1.890	-0.014357	-0.600374	657.165371	11.570957	-3.446923	-1.075903	0.524514	1.760737
1.900	0.030256	-0.522605	656.591880	11.680664	-3.448150	-1.080191	0.525159	1.778984
1.910	0.095664	-0.454625	656.047679	11.783488	-3.455673	-1.087325	0.526741	1.796133
1.920	0.183841	-0.402083	655.537281	11.877205	-3.464478	-1.095819	0.528494	1.811828
1.930	0.291879	-0.365844	655.080045	11.960535	-3.469185	-1.103547	0.529582	1.825813
1.940	0.412578	-0.343243	654.709051	12.033328	-3.465262	-1.108768	0.529283	1.837966
1.950	0.535238	-0.330785	654.461322	12.096334	-3.449974	-1.110861	0.527147	1.848289
1.960	0.646467	-0.327045	654.362668	12.150812	-3.422689	-1.110528	0.523057	1.856893
1.970	0.732190	-0.333965	654.414168	12.198353	-3.384467	-1.109442	0.517175	1.864011
1.980	0.781422	-0.355238	654.588202	12.241182	-3.337182	-1.109485	0.509814	1.870058
1.990	0.790472	-0.392193	654.838040	12.282837	-3.282671	-1.111886	0.501295	1.875706
2.000	0.765079	-0.439351	655.117523	12.328642	-3.222255	-1.116646	0.491859	1.881898
2.010	0.718897	-0.482420	655.400754	12.385260	-3.156634	-1.122500	0.481634	1.889723
2.020	0.668735	-0.500633	655.690878	12.459018	-3.085921	-1.127489	0.470637	1.900136
2.030	0.628540	-0.473498	656.012761	12.553443	-3.009600	-1.129894	0.458772	1.913597
2.040	0.604550	-0.389873	656.393277	12.666963	-2.926511	-1.129130	0.445847	1.929783
2.050	0.593473	-0.255574	656.839404	12.791881	-2.835089	-1.126119	0.431626	1.947490
2.060	0.584352	-0.095512	657.324900	12.915401	-2.733978	-1.122927	0.415925	1.964843
2.070	0.563397	0.051971	657.791292	13.022740	-2.622851	-1.121794	0.398736	1.979768
2.080	0.519930	0.147620	658.161786	13.101433	-2.503077	-1.124060	0.380313	1.990610
2.090	0.451052	0.166094	658.361783	13.145310	-2.377797	-1.129572	0.361169	1.996670
2.100	0.362959	0.106611	658.338793	13.156642	-2.251149	-1.136964	0.341944	1.998461
2.110	0.268206	-0.005867	658.076242	13.145477	-2.126764	-1.144635	0.323179	1.997561
2.120	0.180067	-0.129898	657.597750	13.126218	-2.006134	-1.151764	0.305070	1.996086
2.130	0.106599	-0.223210	656.960673	13.112545	-1.887651	-1.158655	0.287331	1.995941
2.140	0.047453	-0.257844	656.241000	13.112620	-1.766829	-1.166240	0.269235	1.998141
2.150	-0.004658	-0.228797	655.515490	13.126506	-1.637761	-1.175102	0.249843	2.002471
2.160	-0.058450	-0.153747	654.848394	13.146785	-1.495286	-1.184714	0.228341	2.007607
2.170	-0.117743	-0.065331	654.287270	13.161980	-1.337064	-1.193387	0.204354	2.011652
2.180	-0.178186	0.000339	653.866988	13.161223	-1.164699	-1.198994	0.178125	2.012829
2.190	-0.228990	0.015076	653.616591	13.138352	-0.983409	-1.200040	0.150457	2.010101
2.200	-0.258630	-0.033053	653.562687	13.094048	-0.800329	-1.196427	0.122456	2.003488
2.210	-0.261554	-0.136381	653.725836	13.035513	-0.622167	-1.189472	0.095172	1.994034
2.220	-0.242865	-0.270041	654.111149	12.974022	-0.453138	-1.181193	0.069275	1.983458
2.230	-0.219155	-0.399359	654.698176	12.921356	-0.293932	-1.173322	0.044896	1.973636
2.240	-0.215121	-0.489928	655.436107	12.886463	-0.141891	-1.166609	0.021648	1.966090
2.250	-0.256796	-0.517274	656.248903	12.873508	0.007815	-1.160725	-0.001191	1.961681
2.260	-0.363189	-0.473271	657.051479	12.881854	0.160406	-1.154757	-0.024413	1.960555
2.270	-0.538743	-0.367643	657.772681	12.907761	0.319517	-1.147944	-0.048576	1.962344
2.280	-0.769095	-0.224641	658.375770	12.946902	0.485367	-1.140264	-0.073722	1.966491
2.290	-1.022113	-0.076510	658.866524	12.996514	0.653563	-1.132629	-0.099195	1.972556
2.300	-1.254663	0.044028	659.284155	13.056213	0.815141	-1.126675	-0.123640	1.980362
2.310	-1.423450	0.110662	659.677954	13.127334	0.958243	-1.124323	-0.145259	1.989961
2.320	-1.496602	0.108986	660.078889	13.211456	1.071235	-1.127234	-0.162289	2.001496
2.330	-1.462421	0.040083	660.478109	13.309023	1.146355	-1.136270	-0.173564	2.015059
2.340	-1.332822	-0.078745	660.821984	13.418584	1.182561	-1.150998	-0.178953	2.030590
2.350	-1.140429	-0.217262	661.025854	13.536649	1.186422	-1.169410	-0.179482	2.047825
2.360	-0.929681	-0.339919	660.999770	13.657974	1.170625	-1.188097	-0.177099	2.066260
