Time[s]	Fx[N]	Fy[N]	Fz[N]	Mx[Nm]	My[Nm]	Mz[Nm]	COPx[cm]	COPy[cm]
0.010	3.790269	0.008575	590.160429	12.451803	14.649981	-0.017910	-2.482373	2.109901
0.020	3.783646	0.153053	590.129760	12.457719	14.548733	-0.015141	-2.465345	2.111014
0.030	3.784598	0.273939	590.080711	12.463640	14.449279	-0.013750	-2.448695	2.112192
0.040	3.797767	0.355095	590.003196	12.469384	14.353222	-0.014655	-2.432736	2.113443
0.050	3.823262	0.392286	589.899367	12.474420	14.261884	-0.017937	-2.417681	2.114669
0.060	3.856785	0.392268	589.785178	12.477974	14.176421	-0.022917	-2.403658	2.115681
0.070	3.891304	0.368383	589.686348	12.479378	14.097925	-0.028532	-2.390750	2.116274
0.080	3.919487	0.335234	589.629329	12.478535	14.027390	-0.033810	-2.379018	2.116336
0.090	3.936056	0.304483	589.631020	12.476263	13.965519	-0.038262	-2.368518	2.115944
0.100	3.939274	0.282872	589.692016	12.474271	13.912440	-0.042050	-2.359272	2.115388
0.110	3.931212	0.272618	589.796249	12.474680	13.867409	-0.045890	-2.351220	2.115083
0.120	3.916969	0.273309	589.916554	12.479212	13.828720	-0.050707	-2.344182	2.115420
0.130	3.903325	0.283882	590.023187	12.488451	13.794024	-0.057220	-2.337878	2.116603
0.140	3.897338	0.303400	590.091748	12.501541	13.761097	-0.065649	-2.332027	2.118576
0.150	3.905055	0.330415	590.108098	12.516520	13.728711	-0.075725	-2.326474	2.121055
0.160	3.930284	0.361780	590.069684	12.531078	13.697105	-0.086888	-2.321269	2.123661
0.170	3.973559	0.392237	589.983837	12.543314	13.667727	-0.098498	-2.316627	2.126044
0.180	4.031767	0.415515	589.863963	12.552122	13.642382	-0.109899	-2.312801	2.127969
0.190	4.098854	0.426487	589.724805	12.557134	13.622283	-0.120422	-2.309939	2.129321
0.200	4.167351	0.423070	589.578494	12.558337	13.607451	-0.129474	-2.307996	2.130053
0.210	4.229969	0.406625	589.433261	12.555549	13.596686	-0.136745	-2.306739	2.130105
0.220	4.280678	0.380576	589.295880	12.547950	13.588033	-0.142409	-2.305808	2.129312
0.230	4.315338	0.348134	589.177186	12.533932	13.579525	-0.147155	-2.304829	2.127362
0.240	4.332269	0.310541	589.097447	12.511501	13.569898	-0.151995	-2.303506	2.123842
0.250	4.332784	0.266860	589.086674	12.479226	13.558929	-0.157930	-2.301687	2.118402
0.260	4.321258	0.215319	589.176978	12.437257	13.547268	-0.165602	-2.299355	2.110954
0.270	4.304362	0.155214	589.389176	12.387700	13.535868	-0.175073	-2.296593	2.101786
0.280	4.289651	0.088082	589.719509	12.333900	13.525276	-0.185789	-2.293510	2.091486
0.290	4.284127	0.017357	590.132051	12.278866	13.514997	-0.196730	-2.290165	2.080698
0.300	4.293371	-0.053190	590.560103	12.223721	13.503097	-0.206743	-2.286490	2.069852
0.310	4.321258	-0.121147	590.917862	12.167026	13.486218	-0.214927	-2.282249	2.059005
0.320	4.369716	-0.186122	591.120898	12.105407	13.460215	-0.220933	-2.277066	2.047873
0.330	4.437996	-0.248870	591.109910	12.035202	13.421339	-0.225042	-2.270532	2.036035
0.340	4.521604	-0.309443	590.869142	11.954449	13.367624	-0.227982	-2.262366	2.023197
0.350	4.611715	-0.365659	590.432195	11.864325	13.299874	-0.230600	-2.252566	2.009431
0.360	4.695909	-0.413127	589.873296	11.769349	13.221856	-0.233507	-2.241474	1.995233
0.370	4.760563	-0.447128	589.288223	11.676185	13.139735	-0.236845	-2.229764	1.981405
0.380	4.794355	-0.465447	588.772446	11.591514	13.061081	-0.240224	-2.218358	1.968760
0.390	4.791684	-0.470583	588.403123	11.519891	12.993768	-0.242862	-2.208311	1.957823
0.400	4.754505	-0.470093	588.227694	11.462494	12.944870	-0.243895	-2.200656	1.948649
0.410	4.691669	-0.474860	588.258581	11.417159	12.919553	-0.242721	-2.196237	1.940840
0.420	4.616061	-0.495998	588.473132	11.379403	12.920032	-0.239246	-2.195518	1.933717
0.430	4.540937	-0.541608	588.818966	11.343759	12.944827	-0.233953	-2.198439	1.926527
0.440	4.476971	-0.614418	589.224747	11.304931	12.988667	-0.227755	-2.204366	1.918611
0.450	4.430799	-0.710963	589.615012	11.258651	13.043276	-0.221682	-2.212168	1.909492
0.460	4.404883	-0.822358	589.925934	11.202302	13.099021	-0.216502	-2.220452	1.898934
0.470	4.398165	-0.936219	590.117439	11.135343	13.147040	-0.212456	-2.227868	1.886971
0.480	4.407003	-1.039179	590.177634	11.059441	13.181197	-0.209226	-2.233429	1.873917
0.490	4.426136	-1.119651	590.119074	10.978227	13.199209	-0.206109	-2.236703	1.860341
0.500	4.449526	-1.170652	589.970998	10.896643	13.202670	-0.202249	-2.237851	1.846979
0.510	4.471022	-1.192233	589.772787	10.819981	13.196104	-0.196867	-2.237489	1.834602
0.520	4.484996	-1.192490	589.570178	10.752719	13.185415	-0.189489	-2.236445	1.823823
0.530	4.487278	-1.186021	589.410933	10.697387	13.176138	-0.180167	-2.235476	1.814929
0.540	4.476547	-1.189582	589.336238	10.653828	13.171928	-0.169630	-2.235045	1.807767
0.550	4.455738	-1.216392	589.368611	10.619255	13.173724	-0.159177	-2.235227	1.801802
0.560	4.432459	-1.271520	589.502036	10.589199	13.179875	-0.150272	-2.235764	1.796296
0.570	4.417490	-1.350304	589.700514	10.559014	13.187182	-0.143943	-2.236251	1.790572
0.580	4.421395	-1.440231	589.907382	10.525351	13.192398	-0.140284	-2.236351	1.784238
0.590	4.450502	-1.525220	590.062500	10.487137	13.193561	-0.138301	-2.235960	1.777293
0.600	4.504149	-1.590590	590.120890	10.445815	13.190668	-0.136260	-2.235248	1.770114
0.610	4.574495	-1.627042	590.065826	10.404888	13.185531	-0.132407	-2.234586	1.763344
0.620	4.648914	-1.632501	589.911910	10.368961	13.181023	-0.125728	-2.234405	1.757713
0.630	4.713861	-1.611439	589.697984	10.342578	13.180067	-0.116384	-2.235054	1.753877
0.640	4.758763	-1.572289	589.473537	10.329111	13.184703	-0.105612	-2.236691	1.752260
0.650	4.778662	-1.524270	589.283809	10.329910	13.195473	-0.095192	-2.239239	1.752960
0.660	4.774862	-1.475009	589.158112	10.343877	13.211272	-0.086716	-2.242398	1.755705
0.670	4.753540	-1.429584	589.104416	10.367778	13.229774	-0.081027	-2.245743	1.759922
0.680	4.722960	-1.390604	589.111196	10.397440	13.248397	-0.078044	-2.248879	1.764937
0.690	4.690444	-1.358509	589.154773	10.429481	13.265460	-0.076979	-2.251609	1.770245
0.700	4.660277	-1.331709	589.208137	10.462633	13.280986	-0.076776	-2.254040	1.775711
0.710	4.633283	-1.306941	589.247629	10.497863	13.296728	-0.076492	-2.256560	1.781571
0.720	4.608045	-1.280407	589.256429	10.537305	13.315459	-0.075534	-2.259705	1.788238
0.730	4.582917	-1.249583	589.226211	10.582805	13.339867	-0.073703	-2.263964	1.796051
0.740	4.557642	-1.214739	589.158611	10.634972	13.371511	-0.071119	-2.269594	1.805112
0.750	4.533814	-1.179043	589.066318	10.693158	13.410102	-0.068041	-2.276501	1.815272
0.760	4.514131	-1.146913	588.971502	10.756130	13.453310	-0.064661	-2.284204	1.826256
0.770	4.501021	-1.121333	588.899845	10.822924	13.497247	-0.061020	-2.291943	1.837821
0.780	4.495511	-1.101551	588.871993	10.893344	13.537585	-0.057113	-2.298901	1.849866
0.790	4.496977	-1.082454	588.897136	10.967913	13.570955	-0.053091	-2.304470	1.862450
0.800	4.503739	-1.056009	588.971904	11.047422	13.595967	-0.049354	-2.308424	1.875713
0.810	4.513827	-1.014012	589.083555	11.132391	13.613335	-0.046441	-2.310934	1.889781
0.820	4.525407	-0.950915	589.214241	11.222715	13.625097	-0.044778	-2.312418	1.904692
0.830	4.536894	-0.865910	589.344316	11.317549	13.633448	-0.044459	-2.313325	1.920363
0.840	4.547123	-0.763939	589.454755	11.415436	13.639818	-0.045161	-2.313972	1.936609
0.850	4.555819	-0.655234	589.529333	11.514641	13.644562	-0.046217	-2.314484	1.953192
0.860	4.564150	-0.552948	589.556740	11.613648	13.647185	-0.046805	-2.314821	1.969895
0.870	4.574972	-0.469088	589.532606	11.711590	13.646855	-0.046240	-2.314860	1.986589
0.880	4.592375	-0.410222	589.461546	11.808357	13.642884	-0.044289	-2.314465	2.003245
0.890	4.620414	-0.374959	589.358640	11.904316	13.635055	-0.041407	-2.313541	2.019876
0.900	4.661239	-0.354533	589.248597	11.999821	13.623795	-0.038774	-2.312062	2.036462
0.910	4.713278	-0.336254	589.161372	12.094833	13.610255	-0.038007	-2.310106	2.052890
0.920	4.770403	-0.308268	589.125425	12.188764	13.596360	-0.040607	-2.307889	2.068959
0.930	4.822861	-0.263442	589.161358	12.280561	13.584784	-0.047324	-2.305783	2.084414
0.940	4.859946	-0.200828	589.277520	12.368938	13.578727	-0.057750	-2.304301	2.099001
0.950	4.873476	-0.124569	589.467438	12.452692	13.581430	-0.070311	-2.304017	2.112533
0.960	4.860692	-0.041363	589.708917	12.530982	13.595520	-0.082688	-2.305463	2.124944
0.970	4.825369	0.042106	589.965819	12.603433	13.622272	-0.092483	-2.308993	2.136299
0.980	4.776553	0.120888	590.193559	12.669967	13.660972	-0.097933	-2.314660	2.146748
0.990	4.725164	0.192389	590.347817	12.730515	13.708611	-0.098435	-2.322124	2.156443
1.000	4.679748	0.256083	590.394225	12.784815	13.760241	-0.094754	-2.330687	2.165471
1.010	4.643300	0.312554	590.316347	12.832517	13.810175	-0.088814	-2.339453	2.173837
1.020	4.612806	0.362315	590.120251	12.873513	13.853764	-0.083134	-2.347617	2.181507
1.030	4.581764	0.404975	589.835335	12.908283	13.889111	-0.080061	-2.354744	2.188455
1.040	4.544318	0.439262	589.511351	12.937975	13.917964	-0.081081	-2.360932	2.194695
1.050	4.498718	0.463873	589.210864	12.964054	13.945334	-0.086481	-2.366782	2.200240
1.060	4.448244	0.478484	588.996725	12.987597	13.978012	-0.095427	-2.373190	2.205037
1.070	4.399262	0.484022	588.917063	13.008560	14.022661	-0.106359	-2.381093	2.208895
1.080	4.357681	0.481847	588.993346	13.025488	14.084218	-0.117466	-2.391235	2.211483
1.090	4.325784	0.472384	589.216151	13.035937	14.164896	-0.127083	-2.404024	2.212420
1.100	4.301004	0.454179	589.548466	13.037397	14.263723	-0.133937	-2.419432	2.211421
1.110	4.276998	0.424066	589.932735	13.028239	14.376468	-0.137290	-2.436967	2.208428
1.120	4.246352	0.378412	590.299058	13.008231	14.496107	-0.136994	-2.455722	2.203668
1.130	4.203759	0.314939	590.575285	12.978491	14.614051	-0.133483	-2.474545	2.197601
1.140	4.148504	0.234479	590.700261	12.941006	14.722146	-0.127676	-2.492321	2.190791
1.150	4.085304	0.141917	590.638238	12.898018	14.814892	-0.120764	-2.508285	2.183743
1.160	4.023095	0.045661	590.389142	12.851558	14.891003	-0.113890	-2.522235	2.176794
1.170	3.972001	-0.044596	589.990100	12.803309	14.953526	-0.107814	-2.534539	2.170089
1.180	3.939492	-0.121176	589.507734	12.754857	15.008402	-0.102694	-2.545921	2.163645
1.190	3.927099	-0.181406	589.024355	12.708058	15.062046	-0.098082	-2.557118	2.157476
1.200	3.929111	-0.228904	588.621991	12.665151	15.119048	-0.093124	-2.568550	2.151661
1.210	3.934144	-0.272373	588.367059	12.628488	15.180933	-0.086945	-2.580181	2.146362
1.220	3.929312	-0.321955	588.297850	12.600105	15.246292	-0.079112	-2.591594	2.141790
1.230	3.905467	-0.384304	588.417280	12.581434	15.311928	-0.069988	-2.602223	2.138182
1.240	3.861325	-0.458636	588.693172	12.573264	15.374278	-0.060792	-2.611594	2.135792
1.250	3.804630	-0.536148	589.066560	12.575761	15.430448	-0.053260	-2.619475	2.134862
1.260	3.749666	-0.603490	589.465850	12.588398	15.478616	-0.049003	-2.625872	2.135560
1.270	3.712046	-0.648447	589.822605	12.609833	15.517945	-0.048819	-2.630951	2.137903
1.280	3.703095	-0.664774	590.084231	12.638004	15.548404	-0.052280	-2.634947	2.141729
1.290	3.726308	-0.654022	590.220472	12.670596	15.570736	-0.057841	-2.638122	2.146756
1.300	3.777129	-0.624115	590.223876	12.705739	15.586570	-0.063462	-2.640789	2.152698
1.310	3.845474	-0.585849	590.107072	12.742551	15.598402	-0.067430	-2.643317	2.159363
1.320	3.919407	-0.548910	589.899663	12.781181	15.609231	-0.068968	-2.646082	2.166670
1.330	3.988421	-0.518897	589.645149	12.822328	15.621849	-0.068359	-2.649364	2.174584
1.340	4.045550	-0.496188	589.395940	12.866586	15.638101	-0.066603	-2.653242	2.183012
1.350	4.088215	-0.476756	589.204393	12.914041	15.658483	-0.064873	-2.657564	2.191776
1.360	4.117874	-0.454248	589.110562	12.964289	15.682282	-0.064022	-2.662027	2.200655
1.370	4.138598	-0.422359	589.131076	13.016703	15.708151	-0.064372	-2.666325	2.209475
1.380	4.154876	-0.376691	589.254775	13.070701	15.734788	-0.065791	-2.670286	2.218175
1.390	4.169439	-0.315769	589.447388	13.125919	15.761375	-0.067960	-2.673924	2.226818
1.400	4.182063	-0.241240	589.662358	13.182299	15.787593	-0.070617	-2.677395	2.235567
1.410	4.189956	-0.157419	589.852406	13.240137	15.813373	-0.073644	-2.680903	2.244653
1.420	4.189475	-0.070164	589.978505	13.300102	15.838725	-0.076925	-2.684628	2.254337
1.430	4.178236	0.014848	590.016519	13.363239	15.863889	-0.080091	-2.688719	2.264892
1.440	4.156587	0.093943	589.962450	13.430913	15.889702	-0.082366	-2.693341	2.276571
1.450	4.127834	0.166522	589.834497	13.504531	15.917811	-0.082718	-2.698691	2.289546
1.460	4.097322	0.234676	589.668605	13.585043	15.950391	-0.080266	-2.704975	2.303844
1.470	4.070932	0.301440	589.507306	13.672412	15.989360	-0.074708	-2.712326	2.319295
1.480	4.053527	0.368528	589.386706	13.765452	16.035403	-0.066517	-2.720693	2.335555
1.490	4.047769	0.434724	589.327943	13.862175	16.087229	-0.056812	-2.729758	2.352201
1.500	4.053594	0.495838	589.336055	13.960423	16.141318	-0.046995	-2.738899	2.368839
1.510	4.068568	0.546463	589.404441	14.058352	16.192304	-0.038333	-2.747231	2.385179
1.520	4.089010	0.582740	589.520581	14.154553	16.234024	-0.031686	-2.753767	2.401028
1.530	4.111436	0.604744	589.669304	14.247872	16.261103	-0.027526	-2.757665	2.416248
1.540	4.133632	0.617220	589.833028	14.337147	16.270662	-0.026153	-2.758520	2.430713
1.550	4.154891	0.628289	589.991550	14.421058	16.263447	-0.027876	-2.756556	2.444282
1.560	4.175485	0.646708	590.124053	14.498140	16.243835	-0.032923	-2.752614	2.456795
1.570	4.195942	0.678916	590.212840	14.566905	16.218568	-0.041108	-2.747919	2.468077
1.580	4.216613	0.727129	590.245976	14.626018	16.194695	-0.051531	-2.743720	2.477953
1.590	4.237589	0.789169	590.217414	14.674568	16.177522	-0.062627	-2.740943	2.486299
1.600	4.258715	0.859761	590.126547	14.712456	16.169428	-0.072627	-2.739993	2.493102
1.610	4.279495	0.932338	589.979852	14.740730	16.169970	-0.080212	-2.740767	2.498514
1.620	4.298738	1.000383	589.794094	14.761551	16.177037	-0.084977	-2.742828	2.502831
1.630	4.314033	1.057895	589.597411	14.777579	16.188326	-0.087512	-2.745658	2.506385
1.640	4.321386	1.099318	589.425553	14.790964	16.202426	-0.089089	-2.748850	2.509386
1.650	4.315700	1.119707	589.313983	14.802442	16.219161	-0.091148	-2.752210	2.511809
1.660	4.292449	1.115778	589.288573	14.811066	16.239320	-0.094806	-2.755750	2.513381
1.670	4.250001	1.087599	589.357486	14.814777	16.264138	-0.100528	-2.759639	2.513717
1.680	4.191236	1.039812	589.506789	14.811507	16.294758	-0.108002	-2.764134	2.512525
1.690	4.123225	0.981317	589.702216	14.800227	16.331771	-0.116196	-2.769495	2.509780
1.700	4.055038	0.923268	589.897652	14.781389	16.374851	-0.123587	-2.775880	2.505755
1.710	3.994906	0.876127	590.047469	14.756573	16.422638	-0.128605	-2.783274	2.500913
1.720	3.948119	0.846698	590.117929	14.727548	16.473014	-0.130205	-2.791478	2.495696
1.730	3.916145	0.835910	590.094213	14.695357	16.523762	-0.128351	-2.800191	2.490341
1.740	3.896723	0.838043	589.982390	14.659956	16.573280	-0.124128	-2.809114	2.484812
1.750	3.884819	0.842075	589.807093	14.620609	16.620934	-0.119364	-2.818029	2.478880
1.760	3.874479	0.835236	589.605484	14.576688	16.666870	-0.115922	-2.826783	2.472278
1.770	3.861275	0.807698	589.418153	14.528415	16.711438	-0.115007	-2.835243	2.464874
1.780	3.844392	0.756367	589.279151	14.477298	16.754615	-0.116822	-2.843239	2.456781
1.790	3.827227	0.685987	589.208691	14.426269	16.795722	-0.120696	-2.850556	2.448414
1.800	3.816011	0.607206	589.211009	14.379488	16.833516	-0.125524	-2.856959	2.440465
1.810	3.816994	0.532723	589.276815	14.341630	16.866553	-0.130248	-2.862246	2.433768
1.820	3.833474	0.473308	589.387734	14.316642	16.893673	-0.134167	-2.866309	2.429070
1.830	3.864010	0.435007	589.520944	14.306326	16.914495	-0.137006	-2.869193	2.426771
1.840	3.902454	0.418146	589.653887	14.309377	16.929849	-0.138841	-2.871150	2.426742
1.850	3.939651	0.418020	589.768873	14.321399	16.942074	-0.139941	-2.872663	2.428307
1.860	3.966158	0.426766	589.856232	14.335900	16.955028	-0.140588	-2.874434	2.430406
1.870	3.975178	0.435567	589.914905	14.345827	16.973610	-0.140869	-2.877298	2.431847
1.880	3.964741	0.436539	589.950944	14.345057	17.002752	-0.140491	-2.882062	2.431568
1.890	3.938145	0.424057	589.975439	14.329475	17.046137	-0.138697	-2.889296	2.428826
1.900	3.902333	0.395615	590.002668	14.297571	17.105137	-0.134371	-2.899163	2.423306
1.910	3.864959	0.352059	590.047725	14.250486	17.178394	-0.126365	-2.911357	2.415141
1.920	3.831597	0.296752	590.122366	14.191454	17.262111	-0.114011	-2.925175	2.404832
1.930	3.804275	0.233655	590.228965	14.124693	17.350813	-0.097641	-2.939675	2.393087
1.940	3.781586	0.165325	590.354846	14.054127	17.438324	-0.078820	-2.953872	2.380624
1.950	3.759869	0.092255	590.470736	13.982430	17.518872	-0.060067	-2.966933	2.368014
1.960	3.734753	0.014190	590.535824	13.910751	17.588193	-0.044075	-2.978345	2.355615
1.970	3.702650	-0.067542	590.508564	13.839134	17.644311	-0.032763	-2.987986	2.343596
1.980	3.662012	-0.148506	590.359822	13.767297	17.687641	-0.026652	-2.996078	2.332018
1.990	3.614191	-0.221676	590.084282	13.695279	17.720330	-0.024851	-3.003017	2.320902
2.000	3.563455	-0.279754	589.706441	13.623667	17.745153	-0.025592	-3.009150	2.310246
2.010	3.515689	-0.317888	589.278181	13.553447	17.764476	-0.026937	-3.014616	2.300008
2.020	3.476145	-0.335309	588.867153	13.485830	17.779645	-0.027328	-3.019297	2.290131
2.030	3.447544	-0.335239	588.539130	13.422329	17.790854	-0.025790	-3.022884	2.280618
2.040	3.429938	-0.323407	588.341023	13.365045	17.797367	-0.021910	-3.025009	2.271649
2.050	3.422441	-0.306139	588.291303	13.316784	17.797936	-0.015779	-3.025361	2.263638
2.060	3.425488	-0.288938	588.380684	13.280620	17.791288	-0.008010	-3.023772	2.257147
2.070	3.441860	-0.275893	588.580790	13.258922	17.776530	0.000279	-3.020236	2.252694
2.080	3.475740	-0.269614	588.855595	13.252296	17.753373	0.007664	-3.014894	2.250517
2.090	3.530420	-0.271188	589.170408	13.259041	17.722155	0.012821	-3.007985	2.250459
2.100	3.606079	-0.279959	589.495094	13.275418	17.683762	0.014981	-2.999815	2.251998
2.110	3.698727	-0.293534	589.801721	13.296572	17.639533	0.014202	-2.990756	2.254414
2.120	3.800713	-0.308549	590.060850	13.317654	17.591136	0.011312	-2.981241	2.256997
2.130	3.902527	-0.322087	590.242086	13.334760	17.540344	0.007518	-2.971720	2.259202
2.140	3.995195	-0.332705	590.321237	13.345557	17.488718	0.003839	-2.962576	2.260728
2.150	4.072457	-0.340081	590.290792	13.349551	17.437332	0.000620	-2.954024	2.261521
2.160	4.132019	-0.343564	590.166916	13.347973	17.386677	-0.002617	-2.946061	2.261728
2.170	4.175586	-0.340999	589.987273	13.343270	17.336776	-0.006869	-2.938500	2.261620
2.180	4.207836	-0.328870	589.799237	13.338350	17.287383	-0.013102	-2.931062	2.261507
2.190	4.234879	-0.303618	589.643951	13.335852	17.238133	-0.021778	-2.923482	2.261679
2.200	4.262896	-0.263234	589.544033	13.337597	17.188584	-0.032703	-2.915572	2.262358
2.210	4.297296	-0.208478	589.500141	13.344276	17.138245	-0.045149	-2.907250	2.263660
2.220	4.342330	-0.143473	589.496448	13.355423	17.086701	-0.058112	-2.898525	2.265565
2.230	4.400797	-0.075318	589.510684	13.369735	17.033785	-0.070589	-2.889479	2.267938
2.240	4.473586	-0.012429	589.523273	13.385608	16.979668	-0.081846	-2.880237	2.270582
2.250	4.559026	0.038097	589.522408	13.401620	16.924788	-0.091599	-2.870932	2.273301
2.260	4.652324	0.072899	589.505496	13.416720	16.869719	-0.099983	-2.861673	2.275928
2.270	4.745577	0.093176	589.478881	13.430119	16.815231	-0.107289	-2.852559	2.278304
2.280	4.828865	0.103503	589.456210	13.441026	16.762573	-0.113623	-2.843735	2.280242
2.290	4.892588	0.109473	589.454155	13.448442	16.713787	-0.118737	-2.835468	2.281508
2.300	4.930430	0.115508	589.485440	13.451173	16.671743	-0.122140	-2.828186	2.281850
2.310	4.941739	0.123628	589.551991	13.448067	16.639750	-0.123420	-2.822440	2.281065
2.320	4.932049	0.133143	589.642149	13.438186	16.620828	-0.122517	-2.818799	2.279041
2.330	4.910985	0.140805	589.734191	13.420682	16.616958	-0.119777	-2.817703	2.275717
2.340	4.888133	0.141192	589.804992	13.394505	16.628687	-0.115786	-2.819353	2.271006
2.350	4.868847	0.127567	589.839514	13.358332	16.655277	-0.111138	-2.823696	2.264740
