Time[s]	Fx[N]	Fy[N]	Fz[N]	Mx[Nm]	My[Nm]	Mz[Nm]	COPx[cm]	COPy[cm]
0.010	5.161940	-4.364927	726.068740	8.395392	-7.353396	1.082716	1.012769	1.156281
0.020	5.506848	-3.956696	726.591055	8.506090	-7.670033	1.095923	1.055619	1.170685
0.030	5.839957	-3.514919	727.040742	8.624053	-7.992356	1.103122	1.099300	1.186186
0.040	6.152576	-3.020138	727.348740	8.753432	-8.324786	1.099988	1.144539	1.203471
0.050	6.440090	-2.476752	727.444399	8.891856	-8.670785	1.085110	1.191952	1.222342
0.060	6.702256	-1.914782	727.264509	9.029506	-9.032678	1.060093	1.242007	1.241571
0.070	6.943277	-1.383038	726.767006	9.150849	-9.411376	1.028771	1.294965	1.259117
0.080	7.171898	-0.935874	725.944017	9.238790	-9.805842	0.995959	1.350771	1.272659
0.090	7.400358	-0.618321	724.827422	9.279784	-10.212432	0.966248	1.408947	1.280275
0.100	7.640849	-0.454891	723.481840	9.267804	-10.624291	0.943200	1.468495	1.281000
0.110	7.899793	-0.445300	721.984697	9.205592	-11.030990	0.929059	1.527870	1.275040
0.120	8.172250	-0.567230	720.400206	9.103019	-11.418526	0.924814	1.585025	1.263606
0.130	8.439675	-0.784010	718.760036	8.973689	-11.769976	0.930329	1.637539	1.248496
0.140	8.673436	-1.054467	717.062873	8.831481	-12.067165	0.944337	1.682860	1.231619
0.150	8.844390	-1.342315	715.296225	8.688192	-12.293492	0.964325	1.718657	1.214629
0.160	8.935836	-1.622785	713.471876	8.552612	-12.437394	0.986576	1.743221	1.198731
0.170	8.954571	-1.884832	711.658095	8.430654	-12.495310	1.006603	1.755802	1.184649
0.180	8.934154	-2.128485	709.991031	8.326001	-12.472789	1.019983	1.756753	1.172691
0.190	8.926864	-2.358429	708.655657	8.240846	-12.382893	1.023374	1.747378	1.162884
0.200	8.985641	-2.576087	707.840335	8.176604	-12.242084	1.015354	1.729498	1.155148
0.210	9.142255	-2.773107	707.681909	8.134659	-12.064979	0.996740	1.704859	1.149480
0.220	9.390615	-2.929170	708.223689	8.117085	-11.860051	0.970173	1.674619	1.146119
0.230	9.683063	-3.015938	709.404574	8.127023	-11.628092	0.939113	1.639134	1.145612
0.240	9.942618	-3.006531	711.084433	8.168352	-11.364174	0.906620	1.598147	1.148718
0.250	10.087327	-2.887041	713.093376	8.244470	-11.062196	0.874435	1.551297	1.156156
0.260	10.056968	-2.665124	715.280128	8.356286	-10.719839	0.842754	1.498691	1.168254
0.270	9.830906	-2.371910	717.536982	8.499976	-10.341567	0.810767	1.441259	1.184605
0.280	9.430108	-2.056351	719.795149	8.665394	-9.938501	0.777670	1.380740	1.203869
0.290	8.904331	-1.773967	722.002384	8.836131	-9.525654	0.743638	1.319338	1.223837
0.300	8.312457	-1.573567	724.101707	8.991663	-9.118194	0.710282	1.259242	1.241768
0.310	7.705686	-1.485957	726.023942	9.111193	-8.728337	0.680384	1.202211	1.254944
0.320	7.119288	-1.518036	727.695389	9.178063	-8.363829	0.657051	1.149358	1.261251
0.330	6.572757	-1.653986	729.053376	9.183265	-8.028205	0.642652	1.101182	1.259615
0.340	6.074626	-1.862849	730.060376	9.126852	-7.722518	0.637982	1.057792	1.250150
0.350	5.628127	-2.109438	730.710832	9.016845	-7.447821	0.641964	1.019257	1.233983
0.360	5.235486	-2.364313	731.030446	8.866331	-7.207352	0.652025	0.985917	1.212854
0.370	4.900233	-2.609004	731.071054	8.690215	-7.007364	0.664968	0.958507	1.188696
0.380	4.627613	-2.834807	730.903615	8.503079	-6.856118	0.677988	0.938033	1.163365
0.390	4.423426	-3.036669	730.609246	8.318637	-6.761518	0.689414	0.925463	1.138589
0.400	4.291949	-3.206219	730.267089	8.150141	-6.728542	0.698927	0.921381	1.116049
0.410	4.234165	-3.328265	729.939160	8.010378	-6.757526	0.707226	0.925766	1.097404
0.420	4.247641	-3.382891	729.654732	7.910370	-6.843723	0.715323	0.937940	1.084125
0.430	4.328145	-3.352181	729.398658	7.857002	-6.977796	0.723886	0.956650	1.077189
0.440	4.471245	-3.228268	729.108440	7.850753	-7.146702	0.732931	0.980197	1.076761
0.450	4.671754	-3.019047	728.683540	7.884656	-7.334717	0.741967	1.006571	1.082041
0.460	4.920888	-2.749115	728.007739	7.944958	-7.524817	0.750397	1.033618	1.091329
0.470	5.203652	-2.455675	726.981401	8.013197	-7.700860	0.757873	1.059293	1.102256
0.480	5.499758	-2.181121	725.555954	8.069105	-7.850538	0.764427	1.082003	1.112127
0.490	5.789533	-1.964993	723.759684	8.093787	-7.968336	0.770389	1.100964	1.118298
0.500	6.062974	-1.837672	721.704514	8.072764	-8.057096	0.776207	1.116398	1.118569
0.510	6.327036	-1.817006	719.568692	7.998316	-8.127079	0.782301	1.129438	1.111543
0.520	6.605574	-1.907833	717.558009	7.870507	-8.192360	0.788964	1.141700	1.096846
0.530	6.929335	-2.103555	715.855988	7.696552	-8.265610	0.796289	1.154647	1.075154
0.540	7.319227	-2.388750	714.578744	7.488675	-8.353107	0.804073	1.168955	1.047985
0.550	7.771076	-2.742032	713.750372	7.261041	-8.451798	0.811694	1.184139	1.017308
0.560	8.250414	-3.138918	713.307981	7.026453	-8.549445	0.818026	1.198563	0.985052
0.570	8.700715	-3.554687	713.133469	6.793539	-8.627743	0.821491	1.209836	0.952632
0.580	9.061139	-3.966888	713.096909	6.565103	-8.667005	0.820309	1.215404	0.920647
0.590	9.284696	-4.356505	713.091809	6.338040	-8.650284	0.812948	1.213067	0.888811
0.600	9.347613	-4.706633	713.049497	6.104814	-8.564917	0.798725	1.201167	0.856156
0.610	9.245509	-4.998662	712.933952	5.856155	-8.400646	0.778443	1.178320	0.821416
0.620	8.979182	-5.207855	712.729730	5.584594	-8.145302	0.754741	1.142832	0.783550
0.630	8.539055	-5.301684	712.438067	5.288427	-7.780644	0.731814	1.092115	0.742300
0.640	7.899463	-5.244065	712.089848	4.975462	-7.281663	0.714263	1.022576	0.698713
0.650	7.030659	-5.006259	711.772457	4.665404	-6.621845	0.705177	0.930332	0.655463
0.660	5.928216	-4.581453	711.655699	4.389254	-5.784446	0.703951	0.812815	0.616766
0.670	4.648888	-3.997186	711.995393	4.184353	-4.776283	0.704825	0.670831	0.587694
0.680	3.333547	-3.319627	713.096818	4.084919	-3.637816	0.697340	0.510143	0.572842
0.690	2.197231	-2.646649	715.235434	4.110238	-2.443289	0.669498	0.341606	0.574669
0.700	1.477477	-2.090503	718.553611	4.255017	-1.288196	0.613137	0.179276	0.592164
0.710	1.352840	-1.754216	722.968912	4.486956	-0.266980	0.529388	0.036928	0.620629
0.720	1.863592	-1.707631	728.132178	4.754058	0.551348	0.431117	-0.075721	0.652911
0.730	2.872462	-1.969537	733.459356	4.999504	1.140563	0.340248	-0.155505	0.681633
0.740	4.088360	-2.501416	738.235330	5.177833	1.521294	0.280544	-0.206072	0.701380
0.750	5.147272	-3.215457	741.762032	5.265627	1.751125	0.269221	-0.236076	0.709881
0.760	5.718932	-3.994887	743.507601	5.263139	1.905443	0.311561	-0.256278	0.707880
0.770	5.599134	-4.720213	743.214200	5.187897	2.056443	0.400767	-0.276696	0.698035
0.780	4.757901	-5.293297	740.938458	5.064546	2.256880	0.522274	-0.304597	0.683531
0.790	3.334271	-5.653320	737.022780	4.915729	2.531962	0.659620	-0.343539	0.666971
0.800	1.587877	-5.782701	732.016367	4.757264	2.879297	0.798910	-0.393338	0.649885
0.810	-0.171530	-5.704183	726.572876	4.598380	3.274640	0.930379	-0.450697	0.632886
0.820	-1.654228	-5.471387	721.347091	4.445419	3.680654	1.047430	-0.510247	0.616266
0.830	-2.643983	-5.154966	716.904028	4.306161	4.056435	1.144662	-0.565827	0.600661
0.840	-3.027724	-4.826656	713.647985	4.192106	4.366316	1.216521	-0.611830	0.587419
0.850	-2.802692	-4.544334	711.777416	4.117418	4.586978	1.257562	-0.644440	0.578470
0.860	-2.066612	-4.341673	711.270993	4.095064	4.712104	1.264284	-0.662491	0.575739
0.870	-0.995769	-4.224742	711.908450	4.132080	4.753795	1.237509	-0.667754	0.580423
0.880	0.186933	-4.175332	713.325890	4.226270	4.740253	1.183870	-0.664528	0.592474
0.890	1.252575	-4.158564	715.097986	4.365889	4.709797	1.115312	-0.658623	0.610530
0.900	2.010681	-4.131997	716.830405	4.532411	4.702312	1.046480	-0.655987	0.632285
0.910	2.347792	-4.054630	718.239661	4.705058	4.750178	0.990975	-0.661364	0.655082
0.920	2.248663	-3.895412	719.199428	4.865176	4.871157	0.957929	-0.677303	0.676471
0.930	1.792387	-3.640986	719.742327	4.998921	5.065175	0.950169	-0.703748	0.694543
0.940	1.123733	-3.301514	720.020469	5.097727	5.315691	0.964438	-0.738269	0.707997
0.950	0.408852	-2.912476	720.240608	5.157122	5.594903	0.993359	-0.776810	0.716028
0.960	-0.209876	-2.530442	720.595906	5.175144	5.870975	1.028264	-0.814739	0.718176
0.970	-0.645420	-2.222291	721.213707	5.151536	6.115180	1.061821	-0.847901	0.714287
0.980	-0.876120	-2.049884	722.129317	5.088152	6.307312	1.089619	-0.873433	0.704604
0.990	-0.935285	-2.054383	723.285493	4.990059	6.438562	1.110377	-0.890183	0.689916
1.000	-0.888540	-2.244994	724.551676	4.866327	6.511803	1.124997	-0.898735	0.671633
1.010	-0.809011	-2.595391	725.756393	4.729716	6.539662	1.135075	-0.901082	0.651695
1.020	-0.757560	-3.048451	726.726440	4.595140	6.540990	1.141549	-0.900062	0.632307
1.030	-0.770656	-3.527400	727.324969	4.477417	6.536482	1.143910	-0.898702	0.615601
1.040	-0.855491	-3.950359	727.479536	4.389008	6.544238	1.140155	-0.899577	0.603317
1.050	-0.991321	-4.245286	727.193368	4.338252	6.576122	1.127429	-0.904315	0.596575
1.060	-1.136318	-4.362733	726.538474	4.328363	6.635665	1.103130	-0.913326	0.595751
1.070	-1.238764	-4.284192	725.634957	4.357286	6.717933	1.066119	-0.925801	0.600479
1.080	-1.250097	-4.024302	724.624112	4.418240	6.811136	1.017557	-0.939954	0.609729
1.090	-1.136425	-3.626554	723.642848	4.500742	6.899272	0.961049	-0.953408	0.621956
1.100	-0.885626	-3.153948	722.803884	4.591901	6.965033	0.901994	-0.963613	0.635290
1.110	-0.509201	-2.677368	722.182159	4.677888	6.992597	0.846383	-0.968259	0.647743
1.120	-0.040081	-2.264385	721.805519	4.745295	6.970312	0.799427	-0.965677	0.657420
1.130	0.471968	-1.970276	721.649019	4.781960	6.893299	0.764416	-0.955215	0.662643
1.140	0.966623	-1.832079	721.635412	4.777027	6.765510	0.742197	-0.937525	0.661972
1.150	1.381175	-1.865776	721.646341	4.720570	6.600388	0.731446	-0.914629	0.654139
1.160	1.660483	-2.066178	721.546771	4.603676	6.419510	0.729663	-0.889687	0.638029
1.170	1.767371	-2.409022	721.219768	4.419757	6.249188	0.734386	-0.866475	0.612817
1.180	1.690928	-2.855012	720.602411	4.166978	6.115701	0.744055	-0.848693	0.578263
1.190	1.449972	-3.355709	719.710135	3.850539	6.040265	0.758136	-0.839264	0.535012
1.200	1.089963	-3.860820	718.638930	3.483256	6.035046	0.776589	-0.839788	0.484702
1.210	0.673463	-4.325834	717.542953	3.083726	6.101413	0.799215	-0.850320	0.429762
1.220	0.266049	-4.718340	716.595798	2.672821	6.231005	0.825401	-0.869529	0.372989
1.230	-0.078997	-5.021368	715.950916	2.270274	6.409218	0.854377	-0.895203	0.317099
1.240	-0.333046	-5.232679	715.715433	1.892862	6.619696	0.885538	-0.924906	0.264471
1.250	-0.497298	-5.360355	715.942829	1.554557	6.847979	0.918307	-0.956498	0.217134
1.260	-0.597999	-5.416752	716.640369	1.267710	7.082818	0.951374	-0.988336	0.176896
1.270	-0.672054	-5.414000	717.782728	1.043836	7.314878	0.981776	-1.019094	0.145425
1.280	-0.747640	-5.363182	719.323558	0.892952	7.533885	1.004579	-1.047357	0.124138
1.290	-0.827668	-5.276748	721.198784	0.821400	7.726101	1.013704	-1.071286	0.113894
1.300	-0.884223	-5.171488	723.319055	0.828996	7.873871	1.003799	-1.088575	0.114610
1.310	-0.868239	-5.069135	725.555275	0.906882	7.957983	0.972426	-1.096813	0.124991
1.320	-0.731731	-4.993278	727.728524	1.037261	7.962188	0.921636	-1.094115	0.142534
1.330	-0.452955	-4.963391	729.618041	1.195507	7.878033	0.858207	-1.079748	0.163854
1.340	-0.051903	-4.988308	730.993725	1.354271	7.707801	0.792310	-1.054428	0.185264
1.350	0.412437	-5.061767	731.665591	1.488436	7.464144	0.734937	-1.020158	0.203431
1.360	0.861942	-5.161960	731.530996	1.579526	7.166584	0.694933	-0.979669	0.215921
1.370	1.225696	-5.255777	730.599941	1.618395	6.836574	0.676726	-0.935748	0.221516
1.380	1.459321	-5.307033	728.989721	1.605684	6.493314	0.679594	-0.890728	0.220262
1.390	1.549688	-5.286517	726.894891	1.550175	6.151573	0.698687	-0.846281	0.213260
1.400	1.507363	-5.180815	724.547546	1.465739	5.821318	0.727235	-0.803442	0.202297
1.410	1.356008	-4.997028	722.181889	1.367942	5.508107	0.758908	-0.762704	0.189418
1.420	1.127177	-4.761633	720.009371	1.271387	5.213373	0.789334	-0.724070	0.176579
1.430	0.862064	-4.513566	718.202828	1.188290	4.934623	0.816322	-0.687079	0.165453
1.440	0.614378	-4.293497	716.885126	1.127999	4.666161	0.839088	-0.650894	0.157347
1.450	0.446300	-4.132784	716.120032	1.096768	4.400877	0.857256	-0.614545	0.153154
1.460	0.414016	-4.045949	715.907494	1.097349	4.132912	0.870338	-0.577297	0.153281
1.470	0.547556	-4.029189	716.188169	1.128519	3.860116	0.877922	-0.538981	0.157573
1.480	0.835806	-4.064890	716.860398	1.185043	3.584924	0.880209	-0.500087	0.165310
1.490	1.226971	-4.129627	717.807161	1.258499	3.312861	0.878318	-0.461525	0.175326
1.500	1.646937	-4.202206	718.924677	1.338957	3.049125	0.874005	-0.424123	0.186244
1.510	2.027675	-4.269105	720.142129	1.416959	2.794674	0.868932	-0.388072	0.196761
1.520	2.331982	-4.326258	721.425337	1.484999	2.543613	0.864012	-0.352582	0.205842
1.530	2.563251	-4.377595	722.764426	1.537942	2.283107	0.859373	-0.315885	0.212786
1.540	2.757744	-4.431566	724.152836	1.572385	1.995982	0.855036	-0.275630	0.217134
1.550	2.965586	-4.497040	725.567694	1.585581	1.665063	0.851823	-0.229484	0.218530
1.560	3.230249	-4.579774	726.958560	1.574588	1.277639	0.851728	-0.175751	0.216599
1.570	3.573852	-4.680477	728.246154	1.536043	0.828729	0.857364	-0.113798	0.210924
1.580	3.990803	-4.795185	729.329058	1.466597	0.322605	0.870720	-0.044233	0.201088
1.590	4.448774	-4.917977	730.095273	1.363860	-0.227359	0.891938	0.031141	0.186806
1.600	4.895117	-5.044827	730.435925	1.227572	-0.800247	0.918752	0.109557	0.168060
1.610	5.267215	-5.176390	730.259315	1.060537	-1.370411	0.946827	0.187661	0.145227
1.620	5.505612	-5.317763	729.504776	0.868859	-1.911206	0.970812	0.261987	0.119103
1.630	5.568201	-5.475089	728.156831	0.661284	-2.398970	0.985673	0.329458	0.090816
1.640	5.442883	-5.650966	726.259862	0.447884	-2.816524	0.987828	0.387812	0.061670
1.650	5.155578	-5.841332	723.930707	0.238544	-3.155703	0.975709	0.435912	0.032951
1.660	4.771000	-6.035455	721.362363	0.041715	-3.418723	0.949698	0.473926	0.005783
1.670	4.384834	-6.218705	718.810384	-0.136261	-3.618101	0.911648	0.503346	-0.018956
1.680	4.107777	-6.376277	716.557846	-0.291138	-3.774807	0.864383	0.526797	-0.040630
1.690	4.043997	-6.495690	714.863358	-0.420186	-3.914505	0.811405	0.547588	-0.058779
1.700	4.268304	-6.566980	713.905188	-0.521393	-4.062282	0.756829	0.569023	-0.073034
1.710	4.807093	-6.581331	713.738340	-0.592887	-4.236922	0.705301	0.593624	-0.083068
1.720	5.627579	-6.530251	714.278219	-0.632899	-4.446069	0.661622	0.622456	-0.088607
1.730	6.638538	-6.407279	715.315847	-0.640335	-4.683552	0.629995	0.654753	-0.089518
1.740	7.703949	-6.212538	716.560361	-0.615749	-4.929768	0.613090	0.687977	-0.085931
1.750	8.668331	-5.958428	717.698613	-0.562411	-5.155402	0.611401	0.718324	-0.078363
1.760	9.389188	-5.673454	718.459416	-0.487136	-5.327966	0.623202	0.741582	-0.067803
1.770	9.768661	-5.401454	718.669292	-0.400559	-5.419570	0.645196	0.754112	-0.055736
1.780	9.774975	-5.195244	718.286693	-0.316598	-5.413498	0.673647	0.753668	-0.044077
1.790	9.445913	-5.105807	717.404416	-0.250861	-5.307141	0.705692	0.739770	-0.034968
1.800	8.871551	-5.169678	716.217604	-0.217872	-5.110007	0.740369	0.713471	-0.030420
1.810	8.160676	-5.397775	714.966362	-0.227137	-4.837458	0.778948	0.676599	-0.031769
1.820	7.402255	-5.768640	713.872939	-0.278582	-4.502757	0.824214	0.630750	-0.039024
1.830	6.637249	-6.228140	713.097076	-0.358594	-4.110948	0.878744	0.576492	-0.050287
1.840	5.854011	-6.696258	712.726274	-0.438490	-3.657684	0.942680	0.513196	-0.061523
1.850	5.011621	-7.080078	712.801727	-0.477094	-3.134147	1.011882	0.439694	-0.066932
1.860	4.082318	-7.290875	713.362031	-0.428165	-2.536440	1.077457	0.355561	-0.060021
1.870	3.092803	-7.262356	714.475256	-0.251722	-1.875277	1.127305	0.262469	-0.035232
1.880	2.141254	-6.966246	716.234587	0.073649	-1.181103	1.149691	0.164905	0.010283
1.890	1.376172	-6.420794	718.712992	0.541862	-0.501327	1.137829	0.069753	0.075393
1.900	0.941684	-5.688703	721.896757	1.117892	0.110234	1.093605	-0.015270	0.154855
1.910	0.912313	-4.864061	725.631924	1.745667	0.607931	1.028370	-0.083780	0.240572
1.920	1.248047	-4.051820	729.614007	2.363344	0.967026	0.959783	-0.132539	0.323917
1.930	1.792842	-3.346231	733.432384	2.920590	1.189285	0.905567	-0.162153	0.398208
1.940	2.320225	-2.814855	736.656748	3.391222	1.299267	0.876866	-0.176373	0.460353
1.950	2.608334	-2.492170	738.935897	3.776399	1.333237	0.874276	-0.180427	0.511059
1.960	2.513878	-2.382334	740.075397	4.097756	1.325498	0.888395	-0.179103	0.553694
1.970	2.016062	-2.466906	740.069742	4.384193	1.297350	0.904460	-0.175301	0.592403
1.980	1.216172	-2.712449	739.081899	4.658283	1.252045	0.908741	-0.169405	0.630280
1.990	0.298368	-3.075287	737.381752	4.927582	1.176354	0.893791	-0.159531	0.668254
2.000	-0.528554	-3.504242	735.267480	5.183362	1.047189	0.860508	-0.142423	0.704963
2.010	-1.086112	-3.944037	732.995704	5.406092	0.840657	0.816614	-0.114688	0.737534
2.020	-1.263006	-4.340848	730.738002	5.574728	0.540888	0.772676	-0.074019	0.762890
2.030	-1.029649	-4.648604	728.568979	5.676053	0.146534	0.737535	-0.020113	0.779069
2.040	-0.433631	-4.833085	726.480363	5.710729	-0.326450	0.715035	0.044936	0.786082
2.050	0.418024	-4.872334	724.409935	5.694103	-0.846220	0.703193	0.116815	0.786033
2.060	1.384465	-4.755010	722.274673	5.651725	-1.370225	0.695874	0.189710	0.782490
2.070	2.320238	-4.480001	720.002234	5.611423	-1.852872	0.685960	0.257343	0.779362
2.080	3.103751	-4.059203	717.558903	5.594930	-2.253867	0.668534	0.314102	0.779717
2.090	3.659783	-3.521909	714.971580	5.612116	-2.545208	0.642806	0.355987	0.784943
2.100	3.970541	-2.916626	712.338118	5.659719	-2.715121	0.612271	0.381156	0.794527
2.110	4.071596	-2.306592	709.819718	5.724711	-2.768049	0.583369	0.389965	0.806502
2.120	4.033152	-1.758762	707.614411	5.790616	-2.720929	0.563367	0.384521	0.818329
2.130	3.932266	-1.329946	705.919266	5.844094	-2.597158	0.558251	0.367911	0.827870
2.140	3.825463	-1.055434	704.894579	5.879280	-2.420362	0.571215	0.343365	0.834065
2.150	3.731523	-0.944048	704.641789	5.898542	-2.209998	0.602119	0.313634	0.837098
2.160	3.630448	-0.980581	705.199484	5.909802	-1.979887	0.647977	0.280756	0.838033
2.170	3.478214	-1.134090	706.553737	5.921789	-1.739621	0.704273	0.246212	0.838123
2.180	3.230567	-1.369158	708.653966	5.939088	-1.497701	0.766572	0.211344	0.838080
2.190	2.865783	-1.656806	711.424450	5.958634	-1.264741	0.831867	0.177776	0.837564
2.200	2.397202	-1.981890	714.765098	5.968746	-1.055172	0.899203	0.147625	0.835064
2.210	1.871088	-2.344659	718.542575	5.951201	-0.886553	0.969420	0.123382	0.828232
2.220	1.351801	-2.755684	722.580293	5.886189	-0.776669	1.044072	0.107485	0.814607
2.230	0.901331	-3.225517	726.657897	5.759111	-0.739509	1.123887	0.101769	0.792548
2.240	0.561657	-3.752638	730.526852	5.567282	-0.781783	1.207367	0.107016	0.762091
2.250	0.345962	-4.314566	733.941198	5.324074	-0.901402	1.290122	0.122817	0.725409
2.260	0.240331	-4.866370	736.695217	5.058484	-1.088641	1.365341	0.147774	0.686645
2.270	0.213793	-5.348238	738.655369	4.809534	-1.329645	1.425307	0.180009	0.651120
2.280	0.232573	-5.700150	739.774825	4.616884	-1.610994	1.463478	0.217768	0.624093
2.290	0.273975	-5.878741	740.085069	4.510677	-1.923600	1.476365	0.259916	0.609481
2.300	0.335606	-5.870186	739.667832	4.504124	-2.264371	1.464562	0.306134	0.608939
2.310	0.436611	-5.694150	738.618454	4.591391	-2.635023	1.432571	0.356750	0.621619
2.320	0.609888	-5.397224	737.015563	4.751219	-3.038510	1.387533	0.412272	0.644657
2.330	0.887722	-5.038510	734.909333	4.954586	-3.474539	1.337261	0.472785	0.674176
2.340	1.286407	-4.672937	732.332150	5.173418	-3.936055	1.288153	0.537469	0.706431
2.350	1.796262	-4.338227	729.325611	5.387444	-4.408353	1.243665	0.604442	0.738688
2.360	2.381620	-4.049407	725.971157	5.587302	-4.871524	1.203844	0.671035	0.769631
2.370	2.991406	-3.801775	722.411017	5.773627	-5.305658	1.166099	0.734438	0.799216
2.380	3.576246	-3.580341	718.850601	5.953286	-5.696923	1.126848	0.792504	0.828167
2.390	4.104683	-3.371780	715.539665	6.134643	-6.042015	1.083347	0.844400	0.857345
2.400	4.571111	-3.174232	712.735189	6.323609	-6.348972	1.035013	0.890790	0.887231
2.410	4.991837	-3.001168	710.653870	6.521448	-6.633780	0.983779	0.933476	0.917669
