Time[s]	Fx[N]	Fy[N]	Fz[N]	Mx[Nm]	My[Nm]	Mz[Nm]	COPx[cm]	COPy[cm]
0.010	2.542986	3.145633	705.443170	1.373212	4.133596	-0.017487	-0.585957	0.194660
0.020	2.370399	3.129934	706.074746	1.747477	4.272264	-0.045524	-0.605072	0.247492
0.030	2.196551	3.106146	706.626390	2.101210	4.415182	-0.073104	-0.624826	0.297358
0.040	2.021822	3.069451	707.044482	2.418356	4.565418	-0.099454	-0.645705	0.342037
0.050	1.848978	3.022472	707.309015	2.690876	4.724984	-0.123499	-0.668023	0.380439
0.060	1.682449	2.975128	707.428504	2.919564	4.894720	-0.144059	-0.691903	0.412701
0.070	1.525938	2.941934	707.424629	3.112765	5.074637	-0.160257	-0.717340	0.440014
0.080	1.379442	2.938005	707.317264	3.283735	5.264547	-0.171976	-0.744298	0.464252
0.090	1.237305	2.975161	707.118517	3.447484	5.464718	-0.180134	-0.772815	0.487540
0.100	1.088577	3.059283	706.836976	3.617825	5.676333	-0.186623	-0.803061	0.511833
0.110	0.919776	3.189412	706.486440	3.805197	5.901615	-0.193883	-0.835347	0.538609
0.120	0.719079	3.358426	706.092131	4.015483	6.143449	-0.204180	-0.870063	0.568691
0.130	0.480340	3.554692	705.691306	4.249744	6.404395	-0.218840	-0.907535	0.602210
0.140	0.205503	3.764117	705.329757	4.504683	6.685215	-0.237720	-0.947814	0.638663
0.150	-0.095401	3.972212	705.057250	4.773769	6.983421	-0.259136	-0.990476	0.677075
0.160	-0.406457	4.166215	704.923324	5.049021	7.292635	-0.280274	-1.034529	0.716251
0.170	-0.709249	4.337433	704.972063	5.323275	7.603325	-0.297921	-1.078529	0.755104
0.180	-0.986216	4.483683	705.233477	5.592467	7.904942	-0.309282	-1.120897	0.792995
0.190	-1.223306	4.610916	705.711718	5.857203	8.188674	-0.312695	-1.160343	0.829971
0.200	-1.411896	4.732882	706.374705	6.122995	8.449704	-0.308074	-1.196207	0.866820
0.210	-1.550158	4.868359	707.152096	6.399045	8.688019	-0.297013	-1.228593	0.904904
0.220	-1.643631	5.036498	707.946434	6.695979	8.907546	-0.282489	-1.258223	0.945831
0.230	-1.704342	5.251449	708.655987	7.023238	9.114165	-0.268282	-1.286120	0.991065
0.240	-1.748067	5.517661	709.200662	7.386678	9.313617	-0.258210	-1.313256	1.041550
0.250	-1.790474	5.827354	709.539478	7.786860	9.510160	-0.255376	-1.340329	1.097453
0.260	-1.843946	6.161464	709.672407	8.218474	9.706296	-0.261520	-1.367715	1.158066
0.270	-1.916673	6.494395	709.628374	8.671255	9.903233	-0.276615	-1.395552	1.221943
0.280	-2.013813	6.801376	709.448396	9.132266	10.101438	-0.298807	-1.423844	1.287235
0.290	-2.138746	7.065881	709.173681	9.588727	10.300721	-0.324816	-1.452496	1.352098
0.300	-2.292442	7.284252	708.843018	10.030226	10.499721	-0.350782	-1.481248	1.415014
0.310	-2.470884	7.465688	708.496524	10.449549	10.695136	-0.373370	-1.509554	1.474891
0.320	-2.662600	7.627674	708.179268	10.842248	10.881301	-0.390721	-1.536518	1.531003
0.330	-2.848725	7.788896	707.940516	11.205747	11.050618	-0.402847	-1.560953	1.582866
0.340	-3.006684	7.962538	707.828777	11.538745	11.194903	-0.411246	-1.581584	1.630160
0.350	-3.116482	8.152252	707.884728	11.841135	11.307218	-0.417909	-1.597325	1.672749
0.360	-3.167129	8.351770	708.133159	12.114227	11.383486	-0.424153	-1.607535	1.710727
0.370	-3.160601	8.547691	708.574469	12.360832	11.423285	-0.429825	-1.612150	1.744465
0.380	-3.111923	8.724070	709.178105	12.584891	11.429508	-0.433259	-1.611656	1.774574
0.390	-3.045427	8.866967	709.882845	12.790564	11.406957	-0.432005	-1.606879	1.801785
0.400	-2.988331	8.967420	710.607963	12.981055	11.360244	-0.424014	-1.598665	1.826753
0.410	-2.963261	9.022224	711.273684	13.157695	11.291664	-0.408710	-1.587527	1.849878
0.420	-2.981521	9.033074	711.822578	13.319825	11.199750	-0.387512	-1.573391	1.871228
0.430	-3.038760	9.005305	712.231118	13.465689	11.078977	-0.363602	-1.555531	1.890635
0.440	-3.114231	8.947295	712.505387	13.593940	10.920721	-0.341056	-1.532721	1.907907
0.450	-3.173998	8.870869	712.664093	13.705001	10.715230	-0.323745	-1.503546	1.923066
0.460	-3.177429	8.792095	712.719216	13.801594	10.454175	-0.314423	-1.466801	1.936470
0.470	-3.085460	8.731401	712.664974	13.888222	10.133159	-0.314278	-1.421868	1.948773
0.480	-2.868968	8.712044	712.480091	13.969804	9.753494	-0.322949	-1.368950	1.960729
0.490	-2.515885	8.756332	712.140729	14.049905	9.322691	-0.338846	-1.309108	1.972911
0.500	-2.035857	8.879766	711.635801	14.129097	8.853489	-0.359588	-1.244104	1.985439
0.510	-1.461087	9.084530	710.975296	14.203884	8.361764	-0.382425	-1.176098	1.997803
0.520	-0.842227	9.354891	710.186881	14.266551	7.864004	-0.404652	-1.107315	2.008845
0.530	-0.239553	9.657025	709.303752	14.306129	7.375026	-0.423991	-1.039756	2.016926
0.540	0.288554	9.944319	708.352236	14.310515	6.906401	-0.438893	-0.974995	2.020254
0.550	0.696827	10.166979	707.347322	14.269326	6.465716	-0.448676	-0.914079	2.017301
0.560	0.961427	10.283129	706.298966	14.176595	6.056551	-0.453426	-0.857505	2.007166
0.570	1.083700	10.268188	705.225269	14.032241	5.678985	-0.453687	-0.805273	1.989753
0.580	1.088538	10.119893	704.164534	13.841611	5.330450	-0.450125	-0.756989	1.965678
0.590	1.017511	9.857462	703.178780	13.613261	5.006788	-0.443303	-0.712022	1.935960
0.600	0.918499	9.515122	702.345595	13.355980	4.703362	-0.433598	-0.669665	1.901625
0.610	0.834977	9.132170	701.740669	13.076309	4.416037	-0.421231	-0.629298	1.863410
0.620	0.798162	8.742987	701.417625	12.777440	4.141900	-0.406365	-0.590504	1.821659
0.630	0.823710	8.370259	701.393238	12.459660	3.879619	-0.389197	-0.553130	1.776416
0.640	0.912612	8.023275	701.644094	12.121920	3.629524	-0.370022	-0.517289	1.727645
0.650	1.054599	7.701040	702.115642	11.763788	3.393524	-0.349262	-0.483328	1.675477
0.660	1.232158	7.397975	702.738430	11.386937	3.174897	-0.327547	-0.451789	1.620366
0.670	1.423936	7.109159	703.442862	10.995535	2.977866	-0.305857	-0.423327	1.563103
0.680	1.607251	6.832812	704.166299	10.595488	2.806844	-0.285629	-0.398605	1.504686
0.690	1.760219	6.569705	704.852710	10.193088	2.665454	-0.268617	-0.378158	1.446130
0.700	1.864083	6.320926	705.449726	9.793818	2.555713	-0.256416	-0.362281	1.388308
0.710	1.905768	6.086013	705.907807	9.401848	2.477823	-0.249793	-0.351012	1.331881
0.720	1.879965	5.862845	706.183396	9.020281	2.430758	-0.248184	-0.344211	1.277328
0.730	1.789693	5.649267	706.245289	8.651828	2.413293	-0.249686	-0.341708	1.225046
0.740	1.644766	5.444947	706.082133	8.299247	2.424844	-0.251651	-0.343422	1.175394
0.750	1.458507	5.251392	705.708917	7.964933	2.465555	-0.251619	-0.349373	1.128643
0.760	1.243999	5.069172	705.171146	7.649547	2.535558	-0.248174	-0.359566	1.084779
0.770	1.011377	4.893812	704.545574	7.350390	2.633816	-0.241349	-0.373832	1.043281
0.780	0.767008	4.713593	703.935092	7.060697	2.757159	-0.232442	-0.391678	1.003032
0.790	0.514250	4.512073	703.455126	6.770781	2.899973	-0.223353	-0.412247	0.962504
0.800	0.254857	4.275379	703.212694	6.470959	3.054567	-0.215770	-0.434373	0.920199
0.810	-0.009559	4.000920	703.285232	6.155042	3.212002	-0.210550	-0.456714	0.875184
0.820	-0.275898	3.702606	703.708201	5.822729	3.363014	-0.207514	-0.477899	0.827435
0.830	-0.537776	3.409012	704.475500	5.479788	3.498845	-0.205614	-0.496660	0.777854
0.840	-0.784447	3.154514	705.548772	5.135995	3.612002	-0.203335	-0.511942	0.727943
0.850	-1.001861	2.967090	706.867295	4.801866	3.696985	-0.199130	-0.523010	0.679316
0.860	-1.176370	2.858247	708.352789	4.485506	3.750805	-0.191765	-0.529511	0.633231
0.870	-1.299757	2.819473	709.910603	4.190697	3.772962	-0.180488	-0.531470	0.590313
0.880	-1.372829	2.826286	711.433976	3.916657	3.764609	-0.165007	-0.529158	0.550530
0.890	-1.405268	2.847379	712.816222	3.659396	3.727023	-0.145395	-0.522859	0.513372
0.900	-1.411560	2.854488	713.968411	3.414067	3.659957	-0.122051	-0.512622	0.478182
0.910	-1.405103	2.829276	714.834247	3.177493	3.560704	-0.095789	-0.498116	0.444508
0.920	-1.393271	2.765790	715.394829	2.949902	3.424469	-0.067942	-0.478682	0.412346
0.930	-1.375265	2.669129	715.662100	2.735177	3.246031	-0.040355	-0.453570	0.382188
0.940	-1.343091	2.551889	715.665281	2.539483	3.021990	-0.015182	-0.422263	0.354842
0.950	-1.284947	2.429989	715.435882	2.368865	2.752581	0.005453	-0.384742	0.331108
0.960	-1.189866	2.318914	714.995445	2.226937	2.442299	0.019862	-0.341582	0.311462
0.970	-1.052098	2.230973	714.349194	2.113826	2.099168	0.027164	-0.293857	0.295909
0.980	-0.873762	2.173820	713.488758	2.026957	1.733085	0.027485	-0.242903	0.284091
0.990	-0.664916	2.150332	712.405253	1.963224	1.353922	0.021871	-0.190049	0.275577
1.000	-0.441121	2.159645	711.108624	1.921315	0.970020	0.011984	-0.136409	0.270186
1.010	-0.219431	2.198892	709.643823	1.902968	0.587470	-0.000262	-0.082784	0.268158
1.020	-0.014057	2.265021	708.094134	1.912582	0.210249	-0.012972	-0.029692	0.270103
1.030	0.166968	2.356137	706.567940	1.955391	-0.159010	-0.024516	0.022505	0.276745
1.040	0.322943	2.471923	705.173621	2.034988	-0.517982	-0.033848	0.073455	0.288580
1.050	0.458733	2.612954	703.993095	2.151178	-0.863716	-0.040854	0.122688	0.305568
1.060	0.580375	2.779096	703.064767	2.298940	-1.192039	-0.046510	0.169549	0.326988
1.070	0.689711	2.967751	702.381867	2.468942	-1.497531	-0.052641	0.213208	0.351510
1.080	0.780710	3.172871	701.905562	2.649504	-1.774172	-0.061298	0.252765	0.377473
1.090	0.839983	3.385362	701.587136	2.829384	-2.016590	-0.074037	0.287433	0.403283
1.100	0.852122	3.594766	701.391182	3.000333	-2.221552	-0.091405	0.316735	0.427769
1.110	0.807822	3.791579	701.311577	3.158415	-2.389172	-0.112817	0.340672	0.450358
1.120	0.710877	3.969302	701.373788	3.303585	-2.523334	-0.136810	0.359770	0.471016
1.130	0.580397	4.125524	701.621655	3.437891	-2.631098	-0.161520	0.375002	0.489992
1.140	0.446701	4.261719	702.094077	3.563307	-2.721220	-0.185174	0.387586	0.507526
1.150	0.342055	4.382011	702.802858	3.680217	-2.802250	-0.206451	0.398725	0.523649
1.160	0.289387	4.491424	703.722457	3.787121	-2.880812	-0.224642	0.409368	0.538155
1.170	0.292942	4.594170	704.795793	3.881378	-2.960589	-0.239640	0.420063	0.550710
1.180	0.334664	4.692338	705.952320	3.960370	-3.042372	-0.251790	0.430960	0.560997
1.190	0.378644	4.785192	707.129482	4.022357	-3.125268	-0.261698	0.441965	0.568829
1.200	0.382933	4.869145	708.287776	4.066697	-3.208751	-0.270108	0.453029	0.574159
1.210	0.314534	4.938425	709.413250	4.093697	-3.294867	-0.277862	0.464450	0.577054
1.220	0.161814	4.986648	710.507755	4.104615	-3.389675	-0.285867	0.477078	0.577702
1.230	-0.060114	5.009451	711.573074	4.101971	-3.503224	-0.294961	0.492321	0.576465
1.240	-0.312385	5.007613	712.596384	4.089779	-3.647851	-0.305730	0.511910	0.573926
1.250	-0.542168	4.989092	713.542089	4.073165	-3.835277	-0.318392	0.537498	0.570837
1.260	-0.695782	4.968294	714.351691	4.057126	-4.073499	-0.332876	0.570237	0.567945
1.270	-0.731155	4.962135	714.950945	4.044784	-4.364502	-0.349032	0.610462	0.565743
1.280	-0.626584	4.984246	715.262249	4.035875	-4.703537	-0.366805	0.657596	0.564251
1.290	-0.384530	5.039912	715.220020	4.026264	-5.080112	-0.386191	0.710287	0.562941
1.300	-0.030815	5.124092	714.786556	4.008755	-5.480364	-0.406958	0.766713	0.560833
1.310	0.390015	5.223403	713.965071	3.974764	-5.890189	-0.428318	0.824997	0.556717
1.320	0.822664	5.321007	712.806498	3.915999	-6.298389	-0.448822	0.883604	0.549378
1.330	1.211859	5.401986	711.408343	3.825606	-6.699156	-0.466560	0.941675	0.537751
1.340	1.514441	5.456674	709.906036	3.698741	-7.093286	-0.479579	0.999187	0.521018
1.350	1.710073	5.480667	708.458213	3.532950	-7.487779	-0.486262	1.056912	0.498682
1.360	1.807312	5.472269	707.226756	3.328690	-7.893836	-0.485448	1.116168	0.470668
1.370	1.842472	5.429555	706.351826	3.089950	-8.323727	-0.476293	1.178411	0.437452
1.380	1.870567	5.349168	705.924479	2.824547	-8.787420	-0.458105	1.244810	0.400120
1.390	1.950108	5.227627	705.964836	2.543504	-9.289972	-0.430456	1.315926	0.360288
1.400	2.126234	5.064250	706.416617	2.259258	-9.830457	-0.393666	1.391595	0.319820
1.410	2.418169	4.863954	707.163582	1.983105	-10.402639	-0.349400	1.471037	0.280431
1.420	2.815904	4.638343	708.062278	1.722869	-10.996998	-0.300878	1.553112	0.243322
1.430	3.287019	4.404390	708.977014	1.481735	-11.603319	-0.252343	1.636628	0.208996
1.440	3.789829	4.181063	709.803303	1.258578	-12.212942	-0.207863	1.720609	0.177314
1.450	4.286664	3.984919	710.473976	1.049464	-12.820013	-0.170001	1.804431	0.147713
1.460	4.752298	3.826000	710.951386	0.849547	-13.421441	-0.138996	1.887814	0.119494
1.470	5.175794	3.705234	711.214112	0.654688	-14.015750	-0.112926	1.970679	0.092052
1.480	5.557111	3.614249	711.245830	0.462381	-14.601429	-0.088836	2.052937	0.065010
1.490	5.901419	3.537832	711.030481	0.271862	-15.175549	-0.064376	2.134304	0.038235
1.500	6.214002	3.458449	710.554571	0.083594	-15.733176	-0.039144	2.214211	0.011765
1.510	6.497518	3.361459	709.814692	-0.101512	-16.267707	-0.015020	2.291825	-0.014301
1.520	6.751814	3.239230	708.825543	-0.282738	-16.771940	0.004754	2.366159	-0.039888
1.530	6.975347	3.092663	707.622353	-0.459941	-17.239384	0.017304	2.436241	-0.064998
1.540	7.166911	2.929827	706.254147	-0.633690	-17.665213	0.021725	2.501254	-0.089725
1.550	7.326650	2.762659	704.769686	-0.805113	-18.046361	0.019710	2.560604	-0.114238
1.560	7.455969	2.603313	703.202925	-0.975339	-18.380718	0.014895	2.613857	-0.138699
1.570	7.556616	2.461371	701.566595	-1.144591	-18.665818	0.011304	2.660591	-0.163148
1.580	7.629401	2.342500	699.859931	-1.311267	-18.897804	0.011628	2.700227	-0.187361
1.590	7.672894	2.248663	698.090093	-1.471463	-19.071350	0.016087	2.731932	-0.210784
1.600	7.682432	2.179756	696.298836	-1.619244	-19.180783	0.022314	2.754677	-0.232550
1.610	7.650120	2.136217	694.581256	-1.747697	-19.222080	0.026286	2.767434	-0.251619
1.620	7.566377	2.121457	693.085700	-1.850457	-19.194981	0.023959	2.769496	-0.266988
1.630	7.422896	2.142564	691.992519	-1.923165	-19.104345	0.012978	2.760773	-0.277917
1.640	7.215997	2.208344	691.479088	-1.964306	-18.960145	-0.006237	2.741969	-0.284073
1.650	6.949159	2.325337	691.683969	-1.975021	-18.776036	-0.030509	2.714540	-0.285538
1.660	6.634030	2.493847	692.681607	-1.957881	-18.567021	-0.055029	2.680455	-0.282652
1.670	6.289856	2.706109	694.472546	-1.915096	-18.346993	-0.075093	2.641860	-0.275763
1.680	5.941473	2.947586	696.987041	-1.846985	-18.126910	-0.087666	2.600753	-0.264996
1.690	5.615798	3.200768	700.095910	-1.751587	-17.914058	-0.092173	2.558801	-0.250192
1.700	5.336677	3.449826	703.622717	-1.625687	-17.712412	-0.090350	2.517317	-0.231045
1.710	5.118826	3.684303	707.355381	-1.466798	-17.523695	-0.085406	2.477354	-0.207364
1.720	4.963105	3.900686	711.060079	-1.275116	-17.348642	-0.080872	2.439828	-0.179326
1.730	4.856052	4.101763	714.501210	-1.054620	-17.188114	-0.079545	2.405610	-0.147602
1.740	4.775175	4.294611	717.466686	-0.813039	-17.043890	-0.082800	2.375565	-0.113321
1.750	4.698500	4.488128	719.791898	-0.560939	-16.918893	-0.090491	2.350526	-0.077931
1.760	4.614139	4.690529	721.373597	-0.310300	-16.816704	-0.101433	2.331206	-0.043015
1.770	4.525241	4.906837	722.169162	-0.072857	-16.740437	-0.114211	2.318077	-0.010089
1.780	4.447761	5.136740	722.184657	0.141417	-16.691405	-0.127870	2.311238	0.019582
1.790	4.402129	5.373671	721.460565	0.325207	-16.668160	-0.142131	2.310336	0.045076
1.800	4.403089	5.605914	720.062700	0.473911	-16.666339	-0.157063	2.314568	0.065815
1.810	4.452858	5.819677	718.079693	0.585138	-16.679388	-0.172456	2.322777	0.081487
1.820	4.540588	6.002763	715.623239	0.658200	-16.699807	-0.187307	2.333603	0.091976
1.830	4.647396	6.147091	712.826311	0.693964	-16.720486	-0.199754	2.345661	0.097354
1.840	4.753627	6.249164	709.837265	0.694960	-16.735756	-0.207561	2.357689	0.097904
1.850	4.844772	6.309180	706.811455	0.665386	-16.741912	-0.208972	2.368653	0.094139
1.860	4.913956	6.330215	703.903273	0.610775	-16.737078	-0.203555	2.377753	0.086770
1.870	4.960821	6.318269	701.259835	0.537307	-16.720509	-0.192570	2.384353	0.076620
1.880	4.988158	6.282763	699.015320	0.450994	-16.691707	-0.178627	2.387889	0.064518
1.890	4.998277	6.236358	697.284152	0.357009	-16.649734	-0.164726	2.387797	0.051200
1.900	4.990775	6.193206	696.151820	0.259376	-16.592856	-0.153081	2.383511	0.037258
1.910	4.962295	6.165693	695.663516	0.160971	-16.518436	-0.144307	2.374486	0.023139
1.920	4.907748	6.160738	695.813292	0.063591	-16.422914	-0.137395	2.360247	0.009139
1.930	4.821856	6.177354	696.538996	-0.032221	-16.301996	-0.130469	2.340428	-0.004626
1.940	4.700166	6.206843	697.728457	-0.127585	-16.151202	-0.121896	2.314826	-0.018286
1.950	4.539487	6.235663	699.238535	-0.225544	-15.966797	-0.111152	2.283455	-0.032256
1.960	4.338338	6.249661	700.922302	-0.330664	-15.746869	-0.099058	2.246593	-0.047175
1.970	4.097873	6.237961	702.654663	-0.447775	-15.492099	-0.087339	2.204796	-0.063726
1.980	3.823103	6.195430	704.346699	-0.580252	-15.205746	-0.077779	2.158844	-0.082382
1.990	3.523504	6.123521	705.944659	-0.728548	-14.892677	-0.071377	2.109610	-0.103202
2.000	3.211825	6.029614	707.417194	-0.889677	-14.557815	-0.067913	2.057883	-0.125764
2.010	2.900536	5.925135	708.738983	-1.057971	-14.204817	-0.066058	2.004238	-0.149275
2.020	2.596906	5.822769	709.878719	-1.226997	-13.835638	-0.063929	1.949014	-0.172846
2.030	2.298910	5.733141	710.796647	-1.391964	-13.451154	-0.059884	1.892405	-0.195832
2.040	1.994156	5.661411	711.453537	-1.551606	-13.052558	-0.053305	1.834632	-0.218090
2.050	1.663000	5.604852	711.828909	-1.708639	-12.643091	-0.045133	1.776142	-0.240035
2.060	1.285588	5.553062	711.941466	-1.868492	-12.229570	-0.037887	1.717778	-0.262450
2.070	0.851111	5.491909	711.860927	-2.036782	-11.823138	-0.035023	1.660877	-0.286121
2.080	0.366228	5.410300	711.701982	-2.216560	-11.438715	-0.039768	1.607234	-0.311445
2.090	-0.141050	5.306781	711.599010	-2.406579	-11.092961	-0.053871	1.558878	-0.338193
2.100	-0.624835	5.192397	711.670475	-2.601454	-10.801176	-0.076782	1.517722	-0.365542
2.110	-1.032260	5.087900	711.987369	-2.793700	-10.574200	-0.105666	1.485167	-0.392381
2.120	-1.318398	5.016213	712.557363	-2.976660	-10.416618	-0.136227	1.461864	-0.417743
2.130	-1.459343	4.993386	713.327899	-3.146865	-10.327039	-0.163962	1.447727	-0.441153
2.140	-1.458014	5.021884	714.203471	-3.304794	-10.300194	-0.185371	1.442193	-0.462724
2.150	-1.340591	5.089001	715.069226	-3.453912	-10.329698	-0.198728	1.444573	-0.483018
2.160	-1.145761	5.171005	715.813959	-3.598778	-10.410146	-0.204225	1.454309	-0.502753
2.170	-0.911721	5.241331	716.347602	-3.743220	-10.537912	-0.203475	1.471061	-0.522542
2.180	-0.665866	5.279538	716.610690	-3.889223	-10.710834	-0.198593	1.494652	-0.542725
2.190	-0.419981	5.277569	716.576203	-4.036601	-10.927479	-0.191255	1.524957	-0.563318
2.200	-0.171107	5.241010	716.246439	-4.183306	-11.186495	-0.182132	1.561822	-0.584060
2.210	0.093697	5.185141	715.647474	-4.326212	-11.486121	-0.170914	1.604997	-0.604517
2.220	0.391079	5.127843	714.821959	-4.462207	-11.823602	-0.156807	1.654062	-0.624240
2.230	0.735409	5.082687	713.820011	-4.589385	-12.194403	-0.139191	1.708330	-0.642933
2.240	1.133903	5.055100	712.689092	-4.708067	-12.591451	-0.118148	1.766752	-0.660606
2.250	1.583314	5.042492	711.466026	-4.821363	-13.004830	-0.094672	1.827892	-0.677666
2.260	2.068928	5.037170	710.174800	-4.934995	-13.422288	-0.070563	1.889998	-0.694899
2.270	2.566646	5.029926	708.831247	-5.056287	-13.830608	-0.048102	1.951185	-0.713327
2.280	3.048122	5.012722	707.451422	-5.192553	-14.217517	-0.029556	2.009681	-0.733980
2.290	3.487426	4.979990	706.058108	-5.349330	-14.573478	-0.016597	2.064062	-0.757633
2.300	3.866804	4.928878	704.681666	-5.528870	-14.892616	-0.009762	2.113382	-0.784591
2.310	4.179480	4.858937	703.355837	-5.729285	-15.172383	-0.008255	2.157142	-0.814564
2.320	4.428907	4.771385	702.112554	-5.944762	-15.412132	-0.010294	2.195108	-0.846696
2.330	4.625221	4.667928	700.979934	-6.167134	-15.611321	-0.013967	2.227071	-0.879788
2.340	4.780380	4.549298	699.984916	-6.388428	-15.768212	-0.018205	2.252650	-0.912652
2.350	4.903612	4.414140	699.158318	-6.603373	-15.879681	-0.023382	2.271257	-0.944475
2.360	4.998518	4.258956	698.538019	-6.810779	-15.942169	-0.031209	2.282219	-0.975005
2.370	5.062547	4.079355	698.167034	-7.013319	-15.953291	-0.043955	2.285025	-1.004533
2.380	5.088955	3.872385	698.086569	-7.216028	-15.913371	-0.063369	2.279570	-1.033687
