Time[s]	Fx[N]	Fy[N]	Fz[N]	Mx[Nm]	My[Nm]	Mz[Nm]	COPx[cm]	COPy[cm]
0.010	2.837926	-1.568245	482.452765	0.050936	0.625070	-0.053137	-0.129561	0.010558
0.020	2.904487	-1.490536	482.101960	-0.009753	0.518449	-0.051551	-0.107539	-0.002023
0.030	2.969862	-1.425446	481.802463	-0.060393	0.423961	-0.050711	-0.087995	-0.012535
0.040	3.034221	-1.382730	481.598023	-0.094328	0.350717	-0.050979	-0.072824	-0.019586
0.050	3.098273	-1.367500	481.516904	-0.109844	0.302870	-0.052249	-0.062899	-0.022812
0.060	3.162282	-1.379167	481.563498	-0.109738	0.279221	-0.054083	-0.057982	-0.022788
0.070	3.224711	-1.411840	481.713727	-0.099385	0.274533	-0.055978	-0.056991	-0.020632
0.080	3.281092	-1.456067	481.919314	-0.084493	0.282022	-0.057637	-0.058521	-0.017533
0.090	3.323647	-1.501291	482.122276	-0.069462	0.296055	-0.059103	-0.061407	-0.014407
0.100	3.342166	-1.538259	482.274318	-0.056703	0.313995	-0.060722	-0.065107	-0.011757
0.110	3.326398	-1.560805	482.351782	-0.046813	0.336468	-0.062959	-0.069756	-0.009705
0.120	3.269666	-1.566620	482.358712	-0.039246	0.366134	-0.066184	-0.075905	-0.008136
0.130	3.172625	-1.556949	482.317655	-0.033144	0.405760	-0.070519	-0.084127	-0.006872
0.140	3.045433	-1.535516	482.254874	-0.028023	0.456637	-0.075781	-0.094688	-0.005811
0.150	2.906772	-1.507084	482.188568	-0.024120	0.517896	-0.081483	-0.107405	-0.005002
0.160	2.779265	-1.476081	482.124760	-0.022265	0.586617	-0.086817	-0.121673	-0.004618
0.170	2.682641	-1.445725	482.060186	-0.023341	0.658318	-0.090704	-0.136564	-0.004842
0.180	2.627374	-1.417917	481.989012	-0.027574	0.727549	-0.091983	-0.150947	-0.005721
0.190	2.611543	-1.393690	481.910236	-0.034043	0.788641	-0.089781	-0.163649	-0.007064
0.200	2.622218	-1.373586	481.832820	-0.040736	0.836760	-0.083916	-0.173662	-0.008454
0.210	2.640604	-1.357520	481.775623	-0.045234	0.869120	-0.075136	-0.180399	-0.009389
0.220	2.648628	-1.344307	481.760993	-0.045744	0.885944	-0.065017	-0.183897	-0.009495
0.230	2.634397	-1.331551	481.804707	-0.041897	0.890622	-0.055571	-0.184851	-0.008696
0.240	2.594836	-1.316446	481.907720	-0.034798	0.888849	-0.048689	-0.184444	-0.007221
0.250	2.535162	-1.297396	482.053762	-0.026252	0.886954	-0.045631	-0.183995	-0.005446
0.260	2.466049	-1.275504	482.212612	-0.017657	0.890079	-0.046690	-0.184582	-0.003662
0.270	2.399823	-1.254803	482.346748	-0.009311	0.900920	-0.051092	-0.186778	-0.001930
0.280	2.346954	-1.240756	482.420213	-0.000545	0.919516	-0.057154	-0.190605	-0.000113
0.290	2.313728	-1.237738	482.409386	0.009483	0.944064	-0.062719	-0.195698	0.001966
0.300	2.301553	-1.246917	482.312795	0.020897	0.972225	-0.065806	-0.201576	0.004333
0.310	2.307876	-1.265736	482.154574	0.032709	1.002156	-0.065275	-0.207849	0.006784
0.320	2.328109	-1.289178	481.978278	0.043092	1.032789	-0.061225	-0.214281	0.008941
0.330	2.357562	-1.311887	481.833497	0.050128	1.063427	-0.054930	-0.220704	0.010404
0.340	2.392506	-1.329922	481.761645	0.052579	1.093177	-0.048374	-0.226912	0.010914
0.350	2.430063	-1.341362	481.786424	0.050412	1.120716	-0.043591	-0.232617	0.010464
0.360	2.467344	-1.345893	481.910886	0.044933	1.144489	-0.042060	-0.237490	0.009324
0.370	2.500573	-1.344130	482.120052	0.038505	1.163200	-0.044356	-0.241268	0.007987
0.380	2.524862	-1.337289	482.386919	0.033861	1.176317	-0.050113	-0.243853	0.007019
0.390	2.534971	-1.327155	482.679512	0.033175	1.184408	-0.058246	-0.245382	0.006873
0.400	2.526864	-1.315777	482.966558	0.037185	1.189098	-0.067287	-0.246207	0.007699
0.410	2.499380	-1.304723	483.219890	0.044769	1.192519	-0.075763	-0.246786	0.009265
0.420	2.455177	-1.294411	483.413399	0.053289	1.196404	-0.082542	-0.247491	0.011024
0.430	2.400445	-1.284133	483.520655	0.059623	1.201318	-0.087081	-0.248452	0.012331
0.440	2.343455	-1.272804	483.514671	0.061420	1.206621	-0.089449	-0.249552	0.012703
0.450	2.292344	-1.259982	483.372159	0.057892	1.211223	-0.090099	-0.250578	0.011977
0.460	2.252781	-1.246651	483.081643	0.049700	1.214625	-0.089451	-0.251433	0.010288
0.470	2.226274	-1.235460	482.652351	0.038138	1.217572	-0.087531	-0.252267	0.007902
0.480	2.209872	-1.230247	482.120271	0.024278	1.221897	-0.083895	-0.253442	0.005036
0.490	2.197510	-1.234900	481.548020	0.008628	1.229625	-0.077889	-0.255348	0.001792
0.500	2.182471	-1.251921	481.015935	-0.008642	1.241753	-0.069114	-0.258152	-0.001797
0.510	2.159864	-1.281377	480.604656	-0.027243	1.257372	-0.057833	-0.261623	-0.005669
0.520	2.128095	-1.320844	480.374374	-0.046409	1.273635	-0.045095	-0.265134	-0.009661
0.530	2.088971	-1.366426	480.349378	-0.064807	1.286643	-0.032492	-0.267856	-0.013492
0.540	2.046740	-1.414202	480.514717	-0.080760	1.292778	-0.021657	-0.269040	-0.016807
0.550	2.006695	-1.461213	480.825556	-0.092783	1.289699	-0.013749	-0.268226	-0.019297
0.560	1.973978	-1.505443	481.223598	-0.100298	1.276449	-0.009191	-0.265251	-0.020842
0.570	1.953193	-1.545090	481.652671	-0.104185	1.252633	-0.007770	-0.260070	-0.021631
0.580	1.948972	-1.577987	482.067835	-0.106731	1.217233	-0.008969	-0.252502	-0.022140
0.590	1.966940	-1.601959	482.436641	-0.110906	1.167778	-0.012263	-0.242058	-0.022989
0.600	2.013989	-1.616178	482.734922	-0.119296	1.100407	-0.017162	-0.227953	-0.024713
0.610	2.097108	-1.622713	482.941620	-0.133243	1.010895	-0.023007	-0.209320	-0.027590
0.620	2.220893	-1.627127	483.037680	-0.152501	0.896305	-0.028727	-0.185556	-0.031571
0.630	2.384821	-1.637399	483.011813	-0.175451	0.756645	-0.032797	-0.156651	-0.036324
0.640	2.581611	-1.661398	482.870381	-0.199668	0.595879	-0.033513	-0.123403	-0.041350
0.650	2.797506	-1.703933	482.643542	-0.222601	0.421877	-0.029505	-0.087410	-0.046121
0.660	3.014409	-1.764567	482.380799	-0.242157	0.245258	-0.020267	-0.050843	-0.050200
0.670	3.213079	-1.836939	482.136580	-0.257055	0.077523	-0.006480	-0.016079	-0.053316
0.680	3.376411	-1.909791	481.953581	-0.266848	-0.070839	0.009991	0.014698	-0.055368
0.690	3.492082	-1.969561	481.852246	-0.271660	-0.191690	0.026338	0.039782	-0.056378
0.700	3.554136	-2.003949	481.829879	-0.271720	-0.279766	0.039223	0.058063	-0.056393
0.710	3.563343	-2.005320	481.867405	-0.266834	-0.332626	0.045350	0.069029	-0.055375
0.720	3.526429	-1.972601	481.939488	-0.256007	-0.350399	0.042228	0.072706	-0.053120
0.730	3.454629	-1.911094	482.023937	-0.237508	-0.335616	0.029004	0.069626	-0.049273
0.740	3.362119	-1.830723	482.107307	-0.209535	-0.293078	0.007041	0.060791	-0.043462
0.750	3.264609	-1.743694	482.184943	-0.171340	-0.229568	-0.020139	0.047610	-0.035534
0.760	3.177828	-1.662207	482.256092	-0.124278	-0.153219	-0.047664	0.031771	-0.025770
0.770	3.115442	-1.596324	482.317214	-0.072161	-0.072586	-0.070683	0.015049	-0.014961
0.780	3.086400	-1.552287	482.357419	-0.020552	0.004475	-0.085764	-0.000928	-0.004261
0.790	3.092601	-1.531798	482.358591	0.024756	0.071956	-0.091782	-0.014918	0.005132
0.800	3.128173	-1.532478	482.300568	0.059396	0.126737	-0.089958	-0.026278	0.012315
0.810	3.181025	-1.548924	482.170026	0.081527	0.169291	-0.083119	-0.035110	0.016908
0.820	3.236029	-1.573685	481.970073	0.092166	0.203739	-0.074597	-0.042272	0.019123
0.830	3.278406	-1.598132	481.726072	0.094890	0.237017	-0.067211	-0.049202	0.019698
0.840	3.296227	-1.613714	481.483537	0.095067	0.277152	-0.062646	-0.057562	0.019745
0.850	3.281945	-1.613723	481.297172	0.098607	0.331103	-0.061250	-0.068794	0.020488
0.860	3.233387	-1.595007	481.214415	0.110384	0.402875	-0.062216	-0.083721	0.022939
0.870	3.154226	-1.558808	481.259736	0.132832	0.492557	-0.064049	-0.102347	0.027601
0.880	3.053433	-1.510283	481.425895	0.165309	0.596446	-0.065203	-0.123892	0.034337
0.890	2.943377	-1.457051	481.675498	0.204480	0.707988	-0.064681	-0.146984	0.042452
0.900	2.837040	-1.407504	481.951969	0.245497	0.819149	-0.062356	-0.169965	0.050938
0.910	2.745137	-1.369405	482.195745	0.283524	0.921971	-0.058893	-0.191203	0.058799
0.920	2.673797	-1.348695	482.360359	0.315126	1.010102	-0.055334	-0.209408	0.065330
0.930	2.623180	-1.348492	482.423748	0.338993	1.079948	-0.052622	-0.223859	0.070269
0.940	2.587539	-1.368494	482.391745	0.355696	1.131112	-0.051260	-0.234480	0.073736
0.950	2.557123	-1.404983	482.293010	0.366673	1.165971	-0.051240	-0.241756	0.076027
0.960	2.521715	-1.451338	482.167705	0.373132	1.188529	-0.052163	-0.246497	0.077386
0.970	2.474549	-1.498986	482.054722	0.375595	1.202943	-0.053440	-0.249545	0.077915
0.980	2.414910	-1.538829	481.982162	0.374346	1.212277	-0.054488	-0.251519	0.077668
0.990	2.348183	-1.563015	481.963054	0.370397	1.217924	-0.054842	-0.252701	0.076852
1.000	2.283380	-1.566648	481.995629	0.366220	1.219899	-0.054163	-0.253093	0.075980
1.010	2.229345	-1.548925	482.066585	0.365606	1.217771	-0.052165	-0.252615	0.075841
1.020	2.191558	-1.513366	482.156061	0.372580	1.211668	-0.048550	-0.251302	0.077274
1.030	2.171012	-1.467037	482.243302	0.389896	1.202744	-0.043080	-0.249406	0.080851
1.040	2.165393	-1.418975	482.311920	0.417948	1.192875	-0.035822	-0.247324	0.086655
1.050	2.171474	-1.378223	482.353873	0.454727	1.183838	-0.027411	-0.245429	0.094273
1.060	2.187089	-1.351878	482.371358	0.496906	1.176448	-0.019114	-0.243888	0.103013
1.070	2.211636	-1.343374	482.375587	0.541510	1.170066	-0.012547	-0.242563	0.112259
1.080	2.245158	-1.351388	482.381574	0.587334	1.162602	-0.009116	-0.241013	0.121757
1.090	2.286975	-1.369945	482.399620	0.635386	1.150962	-0.009428	-0.238591	0.131714
1.100	2.334846	-1.390072	482.426300	0.688124	1.131845	-0.012924	-0.234615	0.142638
1.110	2.385039	-1.402545	482.439274	0.747895	1.102714	-0.017971	-0.228571	0.155024
1.120	2.433041	-1.400587	482.400198	0.815470	1.062672	-0.022412	-0.220289	0.169044
1.130	2.474304	-1.381570	482.267514	0.889384	1.012931	-0.024359	-0.210035	0.184417
1.140	2.504554	-1.347356	482.015737	0.966147	0.956694	-0.022877	-0.198478	0.200439
1.150	2.519636	-1.303340	481.652570	1.040890	0.898616	-0.018264	-0.186569	0.216108
1.160	2.515383	-1.256506	481.224463	1.108188	0.844210	-0.011847	-0.175429	0.230285
1.170	2.488161	-1.213103	480.806819	1.163139	0.799380	-0.005418	-0.166258	0.241914
1.180	2.436358	-1.176811	480.482873	1.202657	0.769946	-0.000557	-0.160244	0.250302
1.190	2.362346	-1.148152	480.319947	1.226517	0.760880	0.001887	-0.158411	0.255354
1.200	2.273996	-1.125404	480.351876	1.237469	0.775270	0.001986	-0.161396	0.257617
1.210	2.184915	-1.106507	480.573220	1.240137	0.813294	0.000551	-0.169234	0.258054
1.220	2.113049	-1.090843	480.945511	1.239162	0.871592	-0.001290	-0.181225	0.257651
1.230	2.077830	-1.079805	481.410767	1.237483	0.943322	-0.002545	-0.195950	0.257054
1.240	2.096230	-1.075985	481.905549	1.235634	1.018995	-0.002662	-0.211451	0.256406
1.250	2.178371	-1.081692	482.371135	1.232316	1.088013	-0.001628	-0.225555	0.255470
1.260	2.323790	-1.097757	482.759435	1.225789	1.140707	0.000094	-0.236289	0.253913
1.270	2.519911	-1.123032	483.036891	1.215272	1.170473	0.001705	-0.242315	0.251590
1.280	2.743824	-1.154614	483.188098	1.201665	1.175489	0.002199	-0.243278	0.248695
1.290	2.967002	-1.188694	483.218596	1.187321	1.159402	0.000528	-0.239933	0.245711
1.300	3.161180	-1.221738	483.155032	1.175016	1.130645	-0.004152	-0.234013	0.243196
1.310	3.303512	-1.251365	483.041397	1.166637	1.100516	-0.012111	-0.227831	0.241519
1.320	3.380072	-1.276369	482.931160	1.162348	1.080583	-0.022721	-0.223755	0.240686
1.330	3.387501	-1.295992	482.875895	1.160754	1.080168	-0.034439	-0.223695	0.240384
1.340	3.332786	-1.309286	482.911802	1.160022	1.104502	-0.045213	-0.228717	0.240214
1.350	3.231105	-1.315325	483.047129	1.159302	1.153931	-0.053167	-0.238886	0.239998
1.360	3.102004	-1.314216	483.255216	1.159553	1.224226	-0.057183	-0.253329	0.239946
1.370	2.964849	-1.308040	483.477659	1.163179	1.307770	-0.057122	-0.270492	0.240586
1.380	2.834900	-1.300845	483.638774	1.172628	1.395223	-0.053679	-0.288484	0.242460
1.390	2.721277	-1.297422	483.667685	1.188869	1.477325	-0.048044	-0.305442	0.245803
1.400	2.627416	-1.301271	483.520795	1.210728	1.546543	-0.041539	-0.319850	0.250398
1.410	2.553624	-1.312590	483.196856	1.235444	1.598290	-0.035314	-0.330774	0.255681
1.420	2.500346	-1.327295	482.739408	1.259927	1.631407	-0.030166	-0.337948	0.260995
1.430	2.470238	-1.337896	482.225704	1.281856	1.647786	-0.026503	-0.341704	0.265821
1.440	2.467600	-1.336280	481.746014	1.300031	1.651282	-0.024428	-0.342770	0.269858
1.450	2.495119	-1.317271	481.380587	1.314082	1.646374	-0.023800	-0.342011	0.272982
1.460	2.549536	-1.281155	481.181857	1.324074	1.637142	-0.024231	-0.340234	0.275171
1.470	2.618862	-1.233774	481.166240	1.330507	1.626935	-0.025070	-0.338123	0.276517
1.480	2.683307	-1.184173	481.315316	1.334659	1.618666	-0.025483	-0.336300	0.277294
1.490	2.720315	-1.141109	481.583478	1.338776	1.615266	-0.024680	-0.335407	0.277995
1.500	2.711880	-1.110163	481.908987	1.345713	1.619806	-0.022174	-0.336123	0.279246
1.510	2.650990	-1.092572	482.226336	1.358129	1.635111	-0.017978	-0.339076	0.281637
1.520	2.544302	-1.085889	482.478476	1.377673	1.663079	-0.012650	-0.344695	0.285541
1.530	2.409849	-1.085753	482.627311	1.404583	1.704079	-0.007150	-0.353084	0.291028
1.540	2.270971	-1.087715	482.660326	1.437794	1.756691	-0.002566	-0.363960	0.297889
1.550	2.149455	-1.088368	482.591170	1.475337	1.817852	0.000197	-0.376686	0.305712
1.560	2.060919	-1.085649	482.453802	1.514741	1.883347	0.000655	-0.390368	0.313966
1.570	2.013709	-1.078673	482.292155	1.553294	1.948543	-0.001135	-0.404017	0.322065
1.580	2.010180	-1.067509	482.148380	1.588250	2.009242	-0.004567	-0.416727	0.329411
1.590	2.048117	-1.053034	482.052474	1.617081	2.062437	-0.008656	-0.427845	0.335457
1.600	2.120983	-1.036801	482.016189	1.637777	2.106794	-0.012371	-0.437080	0.339776
1.610	2.217383	-1.020776	482.033977	1.649199	2.142785	-0.015047	-0.444530	0.342133
1.620	2.321219	-1.006875	482.091250	1.651454	2.172551	-0.016705	-0.450651	0.342560
1.630	2.413631	-0.996502	482.175977	1.646198	2.199639	-0.018054	-0.456190	0.341410
1.640	2.476574	-0.990392	482.286801	1.636630	2.228562	-0.020145	-0.462082	0.339348
1.650	2.496806	-0.988917	482.432238	1.626918	2.263978	-0.023809	-0.469284	0.337232
1.660	2.468847	-0.992669	482.620300	1.621120	2.309428	-0.029201	-0.478519	0.335900
1.670	2.396120	-1.002759	482.843763	1.621999	2.365982	-0.035709	-0.490010	0.335926
1.680	2.290355	-1.020374	483.069729	1.630223	2.431420	-0.042263	-0.503327	0.337472
1.690	2.169774	-1.045643	483.240896	1.644311	2.500367	-0.047798	-0.517416	0.340267
1.700	2.056435	-1.076631	483.290365	1.661338	2.565351	-0.051601	-0.530809	0.343756
1.710	1.972777	-1.109418	483.164899	1.678139	2.618351	-0.053408	-0.541917	0.347322
1.720	1.937428	-1.139577	482.846557	1.692536	2.652415	-0.053276	-0.549329	0.350533
1.730	1.960754	-1.164341	482.362972	1.704045	2.663038	-0.051377	-0.552082	0.353270
1.740	2.041289	-1.184201	481.782595	1.713723	2.649137	-0.047845	-0.549861	0.355705
1.750	2.164482	-1.202829	481.198601	1.723275	2.613437	-0.042789	-0.543110	0.358121
1.760	2.304868	-1.225076	480.708088	1.733924	2.562114	-0.036456	-0.532987	0.360702
1.770	2.431726	-1.253991	480.391664	1.745628	2.503662	-0.029425	-0.521171	0.363376
1.780	2.516885	-1.288566	480.296831	1.757046	2.447147	-0.022623	-0.509507	0.365825
1.790	2.542285	-1.323555	480.428624	1.766257	2.400248	-0.017098	-0.499606	0.367642
1.800	2.504647	-1.351510	480.750285	1.771835	2.367625	-0.013667	-0.492485	0.368556
1.810	2.415547	-1.366063	481.193895	1.773684	2.350133	-0.012643	-0.488396	0.368601
1.820	2.297200	-1.364905	481.677770	1.773174	2.345122	-0.013742	-0.486865	0.368124
1.830	2.176106	-1.351144	482.125901	1.772527	2.347593	-0.016160	-0.486925	0.367648
1.840	2.077227	-1.332460	482.484175	1.773786	2.351608	-0.018750	-0.487396	0.367636
1.850	2.020092	-1.318446	482.728493	1.777920	2.351420	-0.020300	-0.487110	0.368306
1.860	2.016690	-1.317308	482.862374	1.784522	2.342155	-0.019877	-0.485056	0.369572
1.870	2.070408	-1.333164	482.906295	1.792246	2.320274	-0.017161	-0.480481	0.371137
1.880	2.175607	-1.364887	482.884805	1.799751	2.284098	-0.012625	-0.473011	0.372708
1.890	2.318053	-1.406721	482.817308	1.806674	2.234398	-0.007520	-0.462783	0.374194
1.900	2.476676	-1.450271	482.714894	1.814104	2.174782	-0.003615	-0.450531	0.375813
1.910	2.626831	-1.487046	482.581960	1.824271	2.111602	-0.002745	-0.437563	0.378023
1.920	2.744681	-1.510746	482.420376	1.839521	2.053271	-0.006250	-0.425619	0.381311
1.930	2.811791	-1.518637	482.234800	1.861036	2.009005	-0.014476	-0.416603	0.385919
1.940	2.818908	-1.511729	482.037704	1.887926	1.987096	-0.026529	-0.412228	0.391655
1.950	2.767972	-1.493839	481.851647	1.917222	1.992942	-0.040420	-0.413601	0.397886
1.960	2.671789	-1.469973	481.706412	1.944918	2.027324	-0.053599	-0.420863	0.403756
1.970	2.551300	-1.444688	481.630795	1.967614	2.085652	-0.063713	-0.433040	0.408532
1.980	2.430697	-1.421101	481.641746	1.984005	2.158717	-0.069303	-0.448200	0.411926
1.990	2.331131	-1.400655	481.735656	1.995467	2.234959	-0.070180	-0.463939	0.414225
2.000	2.264523	-1.383156	481.886588	2.005487	2.303610	-0.067355	-0.478040	0.416174
2.010	2.229719	-1.366648	482.053581	2.018277	2.357659	-0.062550	-0.489086	0.418683
2.020	2.212919	-1.347476	482.194366	2.037263	2.395616	-0.057561	-0.496815	0.422498
2.030	2.192765	-1.321322	482.279091	2.064103	2.421534	-0.053726	-0.502102	0.427989
2.040	2.148366	-1.285360	482.298056	2.098508	2.443283	-0.051680	-0.506592	0.435106
2.050	2.067065	-1.240495	482.261387	2.138704	2.469653	-0.051363	-0.512098	0.443474
2.060	1.948826	-1.192130	482.192644	2.182119	2.507219	-0.052142	-0.519962	0.452541
2.070	1.805785	-1.148581	482.120082	2.226001	2.558052	-0.052949	-0.530584	0.461711
2.080	1.657905	-1.117666	482.068637	2.267902	2.619060	-0.052466	-0.543296	0.470452
2.090	1.527111	-1.103109	482.054135	2.306135	2.683086	-0.049432	-0.556594	0.478397
2.100	1.432281	-1.102590	482.080066	2.340197	2.741207	-0.043109	-0.568621	0.485437
2.110	1.386096	-1.108412	482.137146	2.370997	2.785271	-0.033747	-0.577693	0.491768
2.120	1.393429	-1.110520	482.206295	2.400578	2.809824	-0.022773	-0.582702	0.497832
2.130	1.450518	-1.100488	482.265057	2.431248	2.812992	-0.012484	-0.583288	0.504131
2.140	1.544776	-1.074762	482.295578	2.464411	2.796380	-0.005273	-0.579806	0.510975
2.150	1.655931	-1.035840	482.290831	2.499672	2.764335	-0.002684	-0.573168	0.518291
2.160	1.759400	-0.991170	482.256515	2.534659	2.722883	-0.004734	-0.564613	0.525583
2.170	1.831958	-0.950563	482.208131	2.565653	2.678489	-0.009835	-0.555463	0.532063
2.180	1.858167	-0.923329	482.164657	2.588777	2.636775	-0.015373	-0.546862	0.536907
2.190	1.835004	-0.916014	482.141580	2.601409	2.601372	-0.018689	-0.539545	0.539553
2.200	1.772635	-0.930930	482.146426	2.603352	2.573207	-0.018023	-0.533698	0.539950
2.210	1.691252	-0.965446	482.179080	2.597381	2.550379	-0.013060	-0.528928	0.538676
2.220	1.615656	-1.012096	482.236755	2.588884	2.528585	-0.004919	-0.524345	0.536849
2.230	1.569674	-1.059766	482.320336	2.584648	2.501937	0.004355	-0.518729	0.535878
2.240	1.571632	-1.095905	482.437369	2.591197	2.464033	0.012569	-0.510747	0.537105
2.250	1.631258	-1.109288	482.598885	2.613253	2.409162	0.018125	-0.499206	0.541496
2.260	1.748324	-1.092547	482.811273	2.652726	2.333345	0.020458	-0.483283	0.549433
2.270	1.913446	-1.043684	483.067089	2.708341	2.234848	0.020071	-0.462637	0.560655
2.280	2.110937	-0.966165	483.338819	2.775827	2.114015	0.018224	-0.437378	0.574302
2.290	2.322725	-0.867730	483.578788	2.848607	1.972763	0.016438	-0.407951	0.589068
2.300	2.532086	-0.758602	483.727063	2.919042	1.814297	0.016010	-0.375066	0.603448
2.310	2.726284	-0.649951	483.726661	2.980033	1.643304	0.017690	-0.339717	0.616057
2.320	2.897833	-0.552995	483.541646	3.026516	1.466185	0.021586	-0.303218	0.625906
2.330	3.044458	-0.478352	483.171207	3.056240	1.290692	0.027268	-0.267129	0.632538
2.340	3.167978	-0.434934	482.653600	3.069544	1.124764	0.033964	-0.233038	0.635973
2.350	3.272422	-0.428000	482.057889	3.068374	0.975055	0.040728	-0.202269	0.636516
2.360	3.361678	-0.456969	481.466558	3.055111	0.845917	0.046570	-0.175696	0.634543
2.370	3.437165	-0.514347	480.955586	3.031815	0.739297	0.050568	-0.153714	0.630373
2.380	3.496155	-0.587094	480.578990	3.000098	0.655405	0.052031	-0.136378	0.624267
2.390	3.531504	-0.660543	480.362000	2.961441	0.593561	0.050673	-0.123565	0.616502
