Time[s]	Fx[N]	Fy[N]	Fz[N]	Mx[Nm]	My[Nm]	Mz[Nm]	COPx[cm]	COPy[cm]
0.010	8.007364	-0.815522	632.060207	4.956124	15.225471	-0.620214	-2.408864	0.784122
0.020	8.213224	-0.599120	631.606660	5.099926	15.030394	-0.600858	-2.379708	0.807453
0.030	8.398474	-0.396807	631.220993	5.244685	14.837793	-0.582157	-2.350649	0.830879
0.040	8.547535	-0.219291	630.949195	5.390394	14.651776	-0.564680	-2.322180	0.854331
0.050	8.652437	-0.072083	630.803464	5.535057	14.479289	-0.548882	-2.295372	0.877461
0.060	8.711980	0.045506	630.763047	5.674704	14.329646	-0.534843	-2.271795	0.899657
0.070	8.728616	0.139491	630.786103	5.804213	14.212932	-0.522015	-2.253209	0.920155
0.080	8.705136	0.218690	630.826510	5.918536	14.137868	-0.509167	-2.241166	0.938219
0.090	8.642850	0.291648	630.849265	6.013778	14.109785	-0.494679	-2.236633	0.953283
0.100	8.541868	0.364227	630.839542	6.087692	14.129242	-0.477138	-2.239752	0.965014
0.110	8.402929	0.438310	630.802695	6.139594	14.191731	-0.455984	-2.249789	0.973299
0.120	8.229540	0.511431	630.756226	6.169964	14.288709	-0.431918	-2.265330	0.978185
0.130	8.029058	0.577191	630.718822	6.179985	14.409773	-0.406852	-2.284659	0.979832
0.140	7.812008	0.626698	630.702597	6.171164	14.545205	-0.383406	-2.306191	0.978459
0.150	7.589839	0.651167	630.711416	6.145109	14.687866	-0.364172	-2.328778	0.974314
0.160	7.372095	0.644978	630.743566	6.103491	14.833771	-0.350998	-2.351791	0.967666
0.170	7.164285	0.607627	630.794701	6.047975	14.981422	-0.344573	-2.375008	0.958787
0.180	6.967413	0.543183	630.858360	5.979803	15.130579	-0.344397	-2.398411	0.947884
0.190	6.779360	0.457185	630.924718	5.898912	15.281112	-0.349084	-2.422018	0.934963
0.200	6.597375	0.352617	630.979926	5.802957	15.432208	-0.356819	-2.445753	0.919674
0.210	6.420476	0.227252	631.007438	5.686943	15.581995	-0.365747	-2.469384	0.901248
0.220	6.250612	0.073671	630.991090	5.544022	15.727675	-0.374234	-2.492535	0.878621
0.230	6.092187	-0.118376	630.919072	5.367486	15.866270	-0.381017	-2.514787	0.850741
0.240	5.950500	-0.358475	630.788021	5.153359	15.995824	-0.385277	-2.535848	0.816972
0.250	5.830086	-0.651922	630.606102	4.902729	16.116553	-0.386633	-2.555724	0.777463
0.260	5.733511	-0.996559	630.393652	4.622933	16.231387	-0.385034	-2.574802	0.733341
0.270	5.660509	-1.380685	630.180109	4.327022	16.345547	-0.380622	-2.593790	0.686633
0.280	5.607106	-1.782924	629.997110	4.031458	16.465242	-0.373612	-2.613542	0.639917
0.290	5.564837	-2.174661	629.870027	3.752647	16.595979	-0.364186	-2.634826	0.595781
0.300	5.520643	-2.524940	629.811978	3.503417	16.741165	-0.352382	-2.658121	0.556264
0.310	5.458179	-2.806758	629.823055	3.290580	16.901590	-0.338040	-2.683546	0.522461
0.320	5.360822	-3.002957	629.894011	3.114332	17.075841	-0.320904	-2.710907	0.494422
0.330	5.215892	-3.109825	630.011911	2.969597	17.261181	-0.300822	-2.739818	0.471356
0.340	5.018811	-3.137246	630.166117	2.848658	17.454223	-0.277884	-2.769781	0.452049
0.350	4.775593	-3.105663	630.353276	2.744104	17.651147	-0.252391	-2.800199	0.435328
0.360	4.502561	-3.041207	630.578595	2.651115	17.847627	-0.224730	-2.830357	0.420426
0.370	4.223245	-2.970532	630.851010	2.568431	18.038770	-0.195307	-2.859434	0.407137
0.380	3.963353	-2.916302	631.173473	2.497880	18.219235	-0.164656	-2.886565	0.395752
0.390	3.745308	-2.893769	631.533690	2.442858	18.383545	-0.133692	-2.910937	0.386814
0.400	3.583763	-2.908681	631.901362	2.406504	18.526655	-0.103905	-2.931890	0.380835
0.410	3.482974	-2.956812	632.234555	2.390289	18.644797	-0.077261	-2.949032	0.378070
0.420	3.436485	-3.025236	632.492486	2.393423	18.736475	-0.055764	-2.962324	0.378411
0.430	3.429231	-3.095280	632.648105	2.413133	18.803210	-0.040838	-2.972144	0.381434
0.440	3.441774	-3.146808	632.693801	2.445609	18.849597	-0.032881	-2.979261	0.386539
0.450	3.455627	-3.163030	632.637704	2.487313	18.882445	-0.031233	-2.984717	0.393165
0.460	3.458059	-3.134530	632.494537	2.536296	18.909226	-0.034552	-2.989627	0.400999
0.470	3.444956	-3.061150	632.279143	2.593184	18.936385	-0.041360	-2.994941	0.410133
0.480	3.421117	-2.950907	632.008250	2.661407	18.968143	-0.050501	-3.001249	0.421103
0.490	3.398236	-2.816176	631.707973	2.746368	19.006133	-0.061387	-3.008690	0.434753
0.500	3.391299	-2.668359	631.418395	2.853546	19.049755	-0.074045	-3.016978	0.451926
0.510	3.414298	-2.512973	631.188372	2.986138	19.096936	-0.089001	-3.025553	0.473098
0.520	3.476335	-2.347378	631.061310	3.143192	19.145024	-0.106989	-3.033782	0.498080
0.530	3.579116	-2.162697	631.059429	3.319096	19.191718	-0.128478	-3.041190	0.525956
0.540	3.716308	-1.949571	631.174944	3.504697	19.235895	-0.153189	-3.047633	0.555266
0.550	3.874460	-1.705080	631.372109	3.689695	19.278140	-0.179825	-3.053372	0.584393
0.560	4.034678	-1.437172	631.597893	3.865346	19.320746	-0.206208	-3.059026	0.611995
0.570	4.174698	-1.164268	631.795783	4.026364	19.367148	-0.229800	-3.065413	0.637289
0.580	4.271827	-0.910318	631.917916	4.171237	19.420949	-0.248409	-3.073334	0.660092
0.590	4.307199	-0.697665	631.933540	4.301060	19.484925	-0.260774	-3.083382	0.680619
0.600	4.270597	-0.540810	631.833790	4.417815	19.560373	-0.266834	-3.095810	0.699205
0.610	4.163754	-0.443433	631.633077	4.523214	19.647041	-0.267643	-3.110515	0.716114
0.620	4.000212	-0.399322	631.366443	4.618561	19.743598	-0.265042	-3.127122	0.731518
0.630	3.801482	-0.395967	631.081830	4.705211	19.848402	-0.261215	-3.145139	0.745579
0.640	3.591224	-0.418609	630.828012	4.784878	19.960160	-0.258253	-3.164121	0.758508
0.650	3.390006	-0.452961	630.641715	4.859304	20.078111	-0.257769	-3.183759	0.770533
0.660	3.212458	-0.486006	630.538860	4.929478	20.201610	-0.260601	-3.203864	0.781788
0.670	3.066924	-0.505680	630.513413	4.995008	20.329319	-0.266660	-3.224248	0.792213
0.680	2.956579	-0.500982	630.544097	5.054268	20.458484	-0.275031	-3.244576	0.801572
0.690	2.880861	-0.463690	630.605689	5.105341	20.584711	-0.284342	-3.264276	0.809593
0.700	2.836610	-0.391329	630.679457	5.147210	20.702489	-0.293239	-3.282569	0.816137
0.710	2.818878	-0.289533	630.757854	5.180426	20.806365	-0.300787	-3.298630	0.821302
0.720	2.821615	-0.171666	630.842052	5.206893	20.892366	-0.306658	-3.311822	0.825388
0.730	2.838454	-0.055080	630.935035	5.228949	20.959077	-0.311116	-3.321907	0.828762
0.740	2.863591	0.044378	631.034786	5.248224	21.007902	-0.314835	-3.329119	0.831685
0.750	2.892603	0.116721	631.131130	5.264769	21.042302	-0.318590	-3.334062	0.834180
0.760	2.923035	0.158994	631.207605	5.276785	21.066301	-0.322895	-3.337460	0.835982
0.770	2.954524	0.173366	631.247354	5.281021	21.082914	-0.327741	-3.339882	0.836601
0.780	2.988084	0.163983	631.240282	5.273615	21.093336	-0.332552	-3.341570	0.835437
0.790	3.024426	0.134628	631.188639	5.251086	21.097359	-0.336384	-3.342481	0.831936
0.800	3.061927	0.088087	631.109176	5.211265	21.094775	-0.338250	-3.342492	0.825731
0.810	3.095490	0.026803	631.030617	5.154116	21.086811	-0.337434	-3.341646	0.816778
0.820	3.117255	-0.046151	630.985621	5.082248	21.076716	-0.333695	-3.340285	0.805446
0.830	3.119138	-0.126483	630.998443	5.000781	21.069105	-0.327290	-3.339011	0.792519
0.840	3.096039	-0.208715	631.073144	4.916333	21.068410	-0.318872	-3.338505	0.779043
0.850	3.048271	-0.286873	631.188945	4.835311	21.077124	-0.309319	-3.339273	0.766064
0.860	2.982213	-0.355846	631.306600	4.762211	21.094570	-0.299595	-3.341414	0.754342
0.870	2.909177	-0.413001	631.383626	4.698721	21.116672	-0.290624	-3.344507	0.744194
0.880	2.842999	-0.459140	631.391183	4.643927	21.136784	-0.283153	-3.347653	0.735507
0.890	2.796947	-0.497855	631.324526	4.595212	21.147254	-0.277644	-3.349665	0.727868
0.900	2.780604	-0.533281	631.202912	4.549094	21.141223	-0.274243	-3.349355	0.720702
0.910	2.797829	-0.567608	631.060522	4.501571	21.114162	-0.272862	-3.345822	0.713334
0.920	2.846824	-0.600158	630.933683	4.448159	21.064785	-0.273272	-3.338669	0.705012
0.930	2.922234	-0.628836	630.849879	4.384054	20.995137	-0.275121	-3.328072	0.694944
0.940	3.017850	-0.653172	630.821793	4.304683	20.909800	-0.277851	-3.314692	0.682393
0.950	3.128115	-0.677151	630.846806	4.206553	20.814419	-0.280631	-3.299441	0.666811
0.960	3.247739	-0.710078	630.910613	4.087999	20.714092	-0.282435	-3.283206	0.647952
0.970	3.370317	-0.764695	630.993366	3.949400	20.612266	-0.282335	-3.266637	0.625902
0.980	3.487469	-0.853114	631.076549	3.792718	20.510514	-0.279921	-3.250083	0.600992
0.990	3.589420	-0.982103	631.147971	3.620731	20.409087	-0.275692	-3.233645	0.573674
1.000	3.666933	-1.149567	631.202833	3.436580	20.307729	-0.271139	-3.217306	0.544449
1.010	3.713845	-1.343692	631.241390	3.243963	20.206263	-0.268374	-3.201036	0.513902
1.020	3.729225	-1.545313	631.266039	3.047713	20.104763	-0.269378	-3.184832	0.482794
1.030	3.718168	-1.732941	631.280192	2.854149	20.003550	-0.275235	-3.168728	0.452121
1.040	3.690537	-1.888708	631.288814	2.670705	19.903320	-0.285712	-3.152807	0.423056
1.050	3.657815	-2.002944	631.298524	2.504860	19.805449	-0.299378	-3.137256	0.396779
1.060	3.629300	-2.075634	631.315312	2.362732	19.712118	-0.314133	-3.122389	0.374255
1.070	3.609382	-2.114565	631.340091	2.247790	19.626016	-0.327834	-3.108628	0.356035
1.080	3.597177	-2.131435	631.364695	2.160093	19.549777	-0.338797	-3.096432	0.342131
1.090	3.588583	-2.137538	631.371908	2.096395	19.485551	-0.346054	-3.086224	0.332038
1.100	3.579418	-2.140399	631.341431	2.051176	19.434955	-0.349394	-3.078359	0.324892
1.110	3.567699	-2.142377	631.260074	2.018254	19.399264	-0.349246	-3.073102	0.319718
1.120	3.554006	-2.141623	631.131038	1.992382	19.379613	-0.346495	-3.070616	0.315684
1.130	3.540506	-2.134600	630.976788	1.970351	19.377066	-0.342297	-3.070963	0.312270
1.140	3.530054	-2.118558	630.833155	1.951436	19.392483	-0.337902	-3.074106	0.309343
1.150	3.526114	-2.092587	630.736952	1.937211	19.426094	-0.334466	-3.079904	0.307135
1.160	3.532875	-2.057136	630.712716	1.930742	19.476888	-0.332855	-3.088076	0.306121
1.170	3.554500	-2.012876	630.764203	1.935162	19.542092	-0.333487	-3.098161	0.306796
1.180	3.593300	-1.959981	630.873310	1.952019	19.617100	-0.336285	-3.109515	0.309415
1.190	3.647770	-1.898333	631.005887	1.980141	19.696004	-0.340756	-3.121366	0.313807
1.200	3.711753	-1.828452	631.122084	2.015645	19.772612	-0.346161	-3.132930	0.319375
1.210	3.775395	-1.752603	631.187979	2.053170	19.841702	-0.351702	-3.143549	0.325287
1.220	3.827581	-1.675397	631.184732	2.087838	19.900141	-0.356703	-3.152824	0.330781
1.230	3.858774	-1.603231	631.112193	2.117263	19.947538	-0.360736	-3.160696	0.335481
1.240	3.863076	-1.542335	630.986154	2.142886	19.986197	-0.363677	-3.167454	0.339609
1.250	3.838879	-1.495996	630.831186	2.170057	20.020396	-0.365649	-3.173654	0.344000
1.260	3.788304	-1.462325	630.672726	2.206648	20.055227	-0.366853	-3.179974	0.349888
1.270	3.716076	-1.434087	630.531844	2.260518	20.095426	-0.367320	-3.187060	0.358510
1.280	3.628263	-1.401153	630.424106	2.336765	20.144514	-0.366675	-3.195391	0.370665
1.290	3.530941	-1.354569	630.361259	2.435846	20.204325	-0.364051	-3.205198	0.386421
1.300	3.428747	-1.290208	630.353004	2.553337	20.274793	-0.358319	-3.216419	0.405065
1.310	3.323560	-1.210115	630.406701	2.681346	20.353953	-0.348601	-3.228702	0.425336
1.320	3.213912	-1.121039	630.524850	2.810888	20.438156	-0.334847	-3.241451	0.445801
1.330	3.095779	-1.031099	630.701852	2.934111	20.522512	-0.318187	-3.253917	0.465214
1.340	2.964946	-0.946372	630.921999	3.045645	20.601528	-0.300881	-3.265305	0.482729
1.350	2.820248	-0.868932	631.159747	3.142899	20.669880	-0.285840	-3.274905	0.497956
1.360	2.666089	-0.796898	631.382537	3.225650	20.723200	-0.275864	-3.282194	0.510887
1.370	2.512637	-0.726082	631.556359	3.295269	20.758688	-0.272823	-3.286910	0.521770
1.380	2.373133	-0.652375	631.653807	3.353898	20.775402	-0.277098	-3.289049	0.530971
1.390	2.259375	-0.573848	631.662378	3.403716	20.774181	-0.287460	-3.288811	0.538850
1.400	2.177436	-0.491715	631.589056	3.446327	20.757301	-0.301437	-3.286520	0.545660
1.410	2.125642	-0.409810	631.458109	3.482386	20.728003	-0.316041	-3.282562	0.551483
1.420	2.095766	-0.333002	631.302455	3.511630	20.689969	-0.328665	-3.277347	0.556252
1.430	2.076811	-0.265367	631.152365	3.533418	20.646680	-0.337879	-3.271267	0.559836
1.440	2.059492	-0.208856	631.026284	3.547576	20.600609	-0.343835	-3.264620	0.562192
1.450	2.039403	-0.162841	630.926897	3.555076	20.552421	-0.348103	-3.257496	0.563469
1.460	2.017990	-0.124593	630.842698	3.558122	20.500530	-0.353013	-3.249705	0.564027
1.470	2.001768	-0.090430	630.753610	3.559517	20.441353	-0.360769	-3.240783	0.564328
1.480	2.000640	-0.056940	630.639423	3.561578	20.370359	-0.372659	-3.230112	0.564757
1.490	2.025761	-0.021769	630.489929	3.565116	20.283533	-0.388615	-3.217107	0.565452
1.500	2.086937	0.016071	630.314040	3.568984	20.178675	-0.407233	-3.201368	0.566223
1.510	2.189807	0.056063	630.143230	3.570440	20.055943	-0.426181	-3.182759	0.566608
1.520	2.333715	0.096057	630.025312	3.566162	19.917498	-0.442843	-3.161381	0.566035
1.530	2.511389	0.132319	630.008618	3.553398	19.766521	-0.454986	-3.137500	0.564024
1.540	2.710828	0.160038	630.121880	3.530721	19.606114	-0.461259	-3.111480	0.560324
1.550	2.918726	0.174355	630.358637	3.498150	19.438540	-0.461400	-3.083727	0.554946
1.560	3.123997	0.171643	630.674421	3.456677	19.264941	-0.456137	-3.054657	0.548092
1.570	3.320066	0.150527	630.999644	3.407469	19.085464	-0.446857	-3.024639	0.540011
1.580	3.505294	0.111990	631.263231	3.351008	18.899622	-0.435231	-2.993937	0.530842
1.590	3.681750	0.058194	631.416300	3.286467	18.706679	-0.422855	-2.962654	0.520491
1.600	3.853095	-0.009545	631.445421	3.211493	18.505831	-0.410950	-2.930710	0.508594
1.610	4.022455	-0.092352	631.370785	3.122517	18.296219	-0.400123	-2.897856	0.494562
1.620	4.191073	-0.193818	631.232438	3.015544	18.077023	-0.390296	-2.863766	0.477723
1.630	4.358215	-0.318327	631.073036	2.887268	17.847878	-0.380896	-2.828179	0.457517
1.640	4.522121	-0.468581	630.925576	2.736202	17.609513	-0.371277	-2.791060	0.433681
1.650	4.681142	-0.643483	630.809972	2.563427	17.364218	-0.361236	-2.752686	0.406371
1.660	4.834261	-0.837249	630.736254	2.372613	17.115869	-0.351389	-2.713633	0.376166
1.670	4.980993	-1.040081	630.708627	2.169261	16.869480	-0.343155	-2.674687	0.343940
1.680	5.121295	-1.240203	630.726027	1.959436	16.630468	-0.338309	-2.636718	0.310664
1.690	5.255939	-1.426688	630.780030	1.748572	16.403786	-0.338222	-2.600556	0.277208
1.700	5.387073	-1.592133	630.854776	1.540885	16.193093	-0.343141	-2.566849	0.244254
1.710	5.518315	-1.734171	630.932113	1.339519	16.000191	-0.351846	-2.535961	0.212308
1.720	5.654074	-1.855180	631.000012	1.147098	15.825042	-0.361879	-2.507930	0.181791
1.730	5.798210	-1.960401	631.059024	0.966199	15.666348	-0.370297	-2.482549	0.153107
1.740	5.952489	-2.055384	631.122503	0.799385	15.522401	-0.374663	-2.459491	0.126661
1.750	6.115252	-2.143669	631.209847	0.648760	15.391795	-0.373855	-2.438459	0.102780
1.760	6.280759	-2.225308	631.335864	0.515217	15.273836	-0.368333	-2.419288	0.081607
1.770	6.439588	-2.296648	631.501596	0.397743	15.168672	-0.359748	-2.402001	0.062984
1.780	6.580313	-2.351656	631.690939	0.293132	15.077203	-0.350109	-2.386801	0.046404
1.790	6.692208	-2.384626	631.873741	0.196439	15.000725	-0.340921	-2.374007	0.031088
1.800	6.768205	-2.393254	632.013089	0.102308	14.940285	-0.332682	-2.363920	0.016188
1.810	6.807075	-2.380586	632.074085	0.006866	14.895933	-0.324891	-2.356675	0.001086
1.820	6.814049	-2.354741	632.032400	-0.090588	14.866266	-0.316463	-2.352137	-0.014333
1.830	6.799723	-2.326354	631.881223	-0.186983	14.848655	-0.306261	-2.349912	-0.029592
1.840	6.777567	-2.304824	631.634721	-0.276347	14.840100	-0.293499	-2.349475	-0.043751
1.850	6.760516	-2.294987	631.326047	-0.351724	14.838238	-0.277852	-2.350329	-0.055712
1.860	6.757426	-2.295491	630.999775	-0.407261	14.842000	-0.259328	-2.352140	-0.064542
1.870	6.770491	-2.299274	630.701163	-0.439738	14.851791	-0.238096	-2.354806	-0.069722
1.880	6.794621	-2.295837	630.465664	-0.449348	14.869361	-0.214424	-2.358473	-0.071272
1.890	6.819149	-2.274610	630.311668	-0.439741	14.897550	-0.188812	-2.363521	-0.069766
1.900	6.831319	-2.228397	630.238915	-0.417196	14.939795	-0.162196	-2.370497	-0.066197
1.910	6.820237	-2.155825	630.233504	-0.388831	14.999277	-0.136021	-2.379956	-0.061696
1.920	6.779717	-2.062011	630.277290	-0.360331	15.077897	-0.112080	-2.392264	-0.057170
1.930	6.709166	-1.957171	630.356767	-0.334129	15.175547	-0.092122	-2.407454	-0.053006
1.940	6.612731	-1.853411	630.467040	-0.308912	15.290151	-0.077357	-2.425210	-0.048997
1.950	6.497772	-1.760708	630.609560	-0.280597	15.418447	-0.068032	-2.445007	-0.044496
1.960	6.373410	-1.683692	630.785355	-0.244187	15.557032	-0.063270	-2.466296	-0.038712
1.970	6.249241	-1.620667	630.987329	-0.195672	15.703054	-0.061310	-2.488648	-0.031010
1.980	6.133920	-1.565045	631.195886	-0.133408	15.854265	-0.060172	-2.511782	-0.021136
1.990	6.033531	-1.508232	631.381640	-0.058743	16.008636	-0.058508	-2.535493	-0.009304
2.000	5.950000	-1.442646	631.515980	0.024167	16.164084	-0.056251	-2.559569	0.003827
2.010	5.880175	-1.363926	631.584993	0.109366	16.318781	-0.054660	-2.583782	0.017316
2.020	5.816305	-1.272019	631.598000	0.190664	16.472012	-0.055687	-2.607990	0.030188
2.030	5.748259	-1.171240	631.583842	0.263213	16.625035	-0.061012	-2.632277	0.041675
2.040	5.666914	-1.069411	631.575983	0.324462	16.781179	-0.071258	-2.657033	0.051373
2.050	5.567420	-0.976013	631.595231	0.374229	16.944814	-0.085768	-2.682860	0.059251
2.060	5.450969	-0.899519	631.640110	0.414100	17.119482	-0.102943	-2.710322	0.065560
2.070	5.324384	-0.844735	631.689234	0.446519	17.306049	-0.120824	-2.739646	0.070686
2.080	5.197750	-0.811265	631.712665	0.473837	17.501810	-0.137632	-2.770533	0.075008
2.090	5.080965	-0.793957	631.685291	0.497481	17.701135	-0.152106	-2.802208	0.078755
2.100	4.980401	-0.785282	631.596267	0.517452	17.897492	-0.163658	-2.833692	0.081928
2.110	4.896829	-0.778652	631.452145	0.532323	18.085957	-0.172365	-2.864185	0.084301
2.120	4.825437	-0.771090	631.274755	0.539644	18.265051	-0.178784	-2.893360	0.085485
2.130	4.758015	-0.764007	631.096250	0.536527	18.437093	-0.183610	-2.921439	0.085015
2.140	4.686568	-0.761991	630.952976	0.520308	18.607015	-0.187284	-2.949034	0.082464
2.150	4.607010	-0.770634	630.878348	0.489288	18.780152	-0.189768	-2.976826	0.077557
2.160	4.521332	-0.794740	630.894423	0.443395	18.959930	-0.190671	-3.005246	0.070280
2.170	4.436961	-0.837431	631.003246	0.384480	19.146334	-0.189689	-3.034269	0.060932
2.180	4.363122	-0.899697	631.181418	0.316053	19.335771	-0.187130	-3.063425	0.050073
2.190	4.305625	-0.979806	631.382534	0.242567	19.522345	-0.184185	-3.092000	0.038418
2.200	4.262656	-1.072753	631.549902	0.168505	19.700028	-0.182738	-3.119315	0.026681
2.210	4.223903	-1.170489	631.636660	0.097550	19.864870	-0.184776	-3.144984	0.015444
2.220	4.173789	-1.263498	631.625058	0.031985	20.016398	-0.191672	-3.169032	0.005064
2.230	4.097533	-1.343363	631.535138	-0.027534	20.157651	-0.203698	-3.191849	-0.004360
2.240	3.987396	-1.405357	631.417062	-0.081812	20.293882	-0.219934	-3.214022	-0.012957
2.250	3.846402	-1.449962	631.329297	-0.132561	20.430451	-0.238545	-3.236101	-0.020997
2.260	3.687948	-1.482590	631.312443	-0.181563	20.570691	-0.257274	-3.258401	-0.028760
2.270	3.531516	-1.511422	631.371119	-0.229763	20.714565	-0.274044	-3.280886	-0.036391
2.280	3.396360	-1.544092	631.472413	-0.276573	20.858579	-0.287514	-3.303166	-0.043798
2.290	3.295938	-1.584688	631.561283	-0.319715	20.996949	-0.297447	-3.324610	-0.050623
2.300	3.235415	-1.632403	631.585371	-0.355807	21.123466	-0.304729	-3.344515	-0.056336
2.310	3.212798	-1.682426	631.517750	-0.381646	21.233299	-0.311018	-3.362265	-0.060433
2.320	3.222225	-1.728494	631.367446	-0.395708	21.324167	-0.318154	-3.377457	-0.062675
2.330	3.256992	-1.765702	631.173590	-0.399133	21.396627	-0.327520	-3.389975	-0.063237
2.340	3.310778	-1.792192	630.987323	-0.395650	21.453603	-0.339627	-3.400005	-0.062703
2.350	3.377162	-1.809104	630.851501	-0.390379	21.499391	-0.354073	-3.407996	-0.061881
2.360	3.448700	-1.819210	630.787740	-0.387875	21.538514	-0.369828	-3.414542	-0.061491
