Time[s]	Fx[N]	Fy[N]	Fz[N]	Mx[Nm]	My[Nm]	Mz[Nm]	COPx[cm]	COPy[cm]
0.010	2.543959	-1.732497	504.125813	-3.898375	-0.577195	-0.139221	0.114494	-0.773294
0.020	2.639078	-1.712987	503.483029	-3.833498	-0.572477	-0.146145	0.113703	-0.761396
0.030	2.732525	-1.698370	502.881025	-3.770557	-0.560107	-0.151820	0.111380	-0.749791
0.040	2.820631	-1.690169	502.356574	-3.711234	-0.534821	-0.155100	0.106462	-0.738765
0.050	2.896095	-1.684386	501.943314	-3.655841	-0.494500	-0.155186	0.098517	-0.728337
0.060	2.949967	-1.671666	501.663361	-3.602882	-0.440297	-0.151975	0.087767	-0.718187
0.070	2.975833	-1.640381	501.518887	-3.549230	-0.375919	-0.146227	0.074956	-0.707696
0.080	2.973566	-1.581849	501.488688	-3.491021	-0.306467	-0.139358	0.061111	-0.696132
0.090	2.949956	-1.495131	501.532621	-3.424930	-0.237179	-0.132984	0.047291	-0.682893
0.100	2.915596	-1.388286	501.603871	-3.349226	-0.172282	-0.128433	0.034346	-0.667703
0.110	2.879947	-1.274779	501.665623	-3.264218	-0.114116	-0.126374	0.022747	-0.650676
0.120	2.847503	-1.166845	501.705536	-3.171944	-0.062767	-0.126640	0.012511	-0.632232
0.130	2.817096	-1.069647	501.740423	-3.075294	-0.016432	-0.128286	0.003275	-0.612925
0.140	2.784483	-0.979504	501.806585	-2.977004	0.027483	-0.129885	-0.005477	-0.593257
0.150	2.746508	-0.886881	501.938137	-2.879127	0.070885	-0.129999	-0.014122	-0.573602
0.160	2.704241	-0.782254	502.142817	-2.783240	0.113758	-0.127641	-0.022654	-0.554273
0.170	2.663210	-0.661763	502.388059	-2.691097	0.153783	-0.122566	-0.030610	-0.535661
0.180	2.630649	-0.530077	502.606615	-2.605002	0.187180	-0.115265	-0.037242	-0.518298
0.190	2.611518	-0.399519	502.721876	-2.527426	0.210529	-0.106664	-0.041878	-0.502748
0.200	2.605627	-0.286288	502.682456	-2.460109	0.222804	-0.097667	-0.044323	-0.489396
0.210	2.607331	-0.205664	502.489343	-2.403382	0.226647	-0.088810	-0.045105	-0.478295
0.220	2.607739	-0.167885	502.201063	-2.356268	0.228166	-0.080208	-0.045433	-0.469188
0.230	2.598188	-0.175501	501.912823	-2.317294	0.235197	-0.071806	-0.046860	-0.461693
0.240	2.573388	-0.222448	501.718845	-2.285290	0.254597	-0.063746	-0.050745	-0.455492
0.250	2.533025	-0.294926	501.675327	-2.259500	0.289656	-0.056613	-0.057738	-0.450391
0.260	2.481403	-0.374000	501.780384	-2.238897	0.338808	-0.051381	-0.067521	-0.446191
0.270	2.425488	-0.439381	501.978309	-2.221310	0.396313	-0.049064	-0.078950	-0.442511
0.280	2.372175	-0.473635	502.183784	-2.203221	0.454566	-0.050232	-0.090518	-0.438728
0.290	2.325869	-0.466035	502.313642	-2.180646	0.506802	-0.054660	-0.100893	-0.434120
0.300	2.287454	-0.415335	502.313329	-2.150705	0.548915	-0.061307	-0.109277	-0.428160
0.310	2.255201	-0.330612	502.171276	-2.112905	0.579948	-0.068647	-0.115488	-0.420754
0.320	2.227180	-0.229343	501.921113	-2.069261	0.601644	-0.075169	-0.119868	-0.412268
0.330	2.203822	-0.132556	501.634052	-2.023147	0.617680	-0.079843	-0.123134	-0.403311
0.340	2.188933	-0.058313	501.402402	-1.977641	0.632819	-0.082410	-0.126210	-0.394422
0.350	2.188066	-0.016041	501.314717	-1.934386	0.651870	-0.083408	-0.130032	-0.385863
0.360	2.204784	-0.004203	501.426620	-1.893477	0.678388	-0.083955	-0.135292	-0.377618
0.370	2.236978	-0.012468	501.736555	-1.854168	0.713322	-0.085362	-0.142171	-0.369550
0.380	2.275705	-0.027385	502.177724	-1.815777	0.754144	-0.088679	-0.150175	-0.361580
0.390	2.307704	-0.038827	502.632846	-1.778307	0.795035	-0.094297	-0.158174	-0.353798
0.400	2.320731	-0.044070	502.968992	-1.742615	0.828352	-0.101724	-0.164692	-0.346466
0.410	2.309259	-0.047739	503.081158	-1.710166	0.847016	-0.109638	-0.168366	-0.339938
0.420	2.277626	-0.058045	502.929728	-1.682586	0.846924	-0.116277	-0.168398	-0.334557
0.430	2.238669	-0.081477	502.558820	-1.661274	0.828453	-0.120059	-0.164847	-0.330563
0.440	2.208294	-0.118444	502.087929	-1.647233	0.796507	-0.120209	-0.158639	-0.328077
0.450	2.198668	-0.161708	501.676939	-1.640998	0.759032	-0.117130	-0.151299	-0.327103
0.460	2.213400	-0.198288	501.473589	-1.642468	0.724419	-0.112365	-0.144458	-0.327528
0.470	2.246819	-0.214262	501.560304	-1.650603	0.698610	-0.108117	-0.139287	-0.329094
0.480	2.287376	-0.200718	501.919954	-1.663209	0.682994	-0.106459	-0.136076	-0.331369
0.490	2.323442	-0.158217	502.435253	-1.677100	0.673988	-0.108547	-0.134144	-0.333794
0.500	2.348747	-0.097544	502.924825	-1.688715	0.664567	-0.114161	-0.132140	-0.335779
0.510	2.364797	-0.036111	503.204779	-1.695038	0.647125	-0.121813	-0.128601	-0.336849
0.520	2.379190	0.008399	503.153818	-1.694540	0.616363	-0.129328	-0.122500	-0.336784
0.530	2.400960	0.024286	502.757645	-1.687891	0.571011	-0.134623	-0.113576	-0.335727
0.540	2.435569	0.009313	502.115746	-1.678146	0.513761	-0.136334	-0.102319	-0.334215
0.550	2.482078	-0.029796	501.407809	-1.670097	0.449681	-0.134086	-0.089684	-0.333082
0.560	2.533648	-0.081205	500.832749	-1.668738	0.383992	-0.128355	-0.076671	-0.333193
0.570	2.580815	-0.133112	500.543720	-1.677280	0.320282	-0.120097	-0.063987	-0.335092
0.580	2.615882	-0.177817	500.602821	-1.695609	0.259805	-0.110333	-0.051898	-0.338713
0.590	2.636500	-0.213257	500.969570	-1.720023	0.201866	-0.099892	-0.040295	-0.343339
0.600	2.647003	-0.242096	501.523079	-1.744472	0.144704	-0.089345	-0.028853	-0.347835
0.610	2.656973	-0.269345	502.106257	-1.762728	0.086273	-0.079129	-0.017182	-0.351067
0.620	2.677772	-0.299575	502.574969	-1.770536	0.024696	-0.069722	-0.004914	-0.352293
0.630	2.718677	-0.334594	502.836264	-1.766922	-0.041512	-0.061768	0.008256	-0.351391
0.640	2.784195	-0.372376	502.865792	-1.754245	-0.113269	-0.056019	0.022525	-0.348849
0.650	2.873363	-0.407740	502.703062	-1.737058	-0.190789	-0.053097	0.037953	-0.345544
0.660	2.980898	-0.434631	502.430416	-1.720307	-0.273558	-0.053251	0.054447	-0.342397
0.670	3.099512	-0.449033	502.144865	-1.707650	-0.360456	-0.056226	0.071783	-0.340071
0.680	3.222382	-0.451084	501.931304	-1.700525	-0.449920	-0.061323	0.089638	-0.338796
0.690	3.344798	-0.445051	501.843287	-1.698151	-0.540054	-0.067538	0.107614	-0.338383
0.700	3.464400	-0.436932	501.894732	-1.698244	-0.628775	-0.073735	0.125280	-0.338367
0.710	3.580154	-0.431012	502.062687	-1.697991	-0.714182	-0.078844	0.142250	-0.338203
0.720	3.690851	-0.427521	502.297979	-1.694777	-0.795105	-0.082101	0.158294	-0.337405
0.730	3.794059	-0.422739	502.538974	-1.686348	-0.871552	-0.083237	0.173430	-0.335566
0.740	3.886190	-0.411164	502.724782	-1.670556	-0.944672	-0.082496	0.187910	-0.332300
0.750	3.963593	-0.388288	502.806814	-1.645173	-1.016157	-0.080435	0.202097	-0.327198
0.760	4.024064	-0.352479	502.758669	-1.608245	-1.087335	-0.077618	0.216274	-0.319884
0.770	4.068059	-0.305335	502.582907	-1.559023	-1.158489	-0.074446	0.230507	-0.310202
0.780	4.099150	-0.250816	502.311495	-1.499040	-1.228769	-0.071215	0.244623	-0.298428
0.790	4.123459	-0.193983	501.997737	-1.432727	-1.296680	-0.068338	0.258304	-0.285405
0.800	4.148116	-0.139942	501.701192	-1.367080	-1.360683	-0.066531	0.271214	-0.272489
0.810	4.179170	-0.093153	501.470575	-1.310274	-1.419473	-0.066816	0.283062	-0.261286
0.820	4.219580	-0.056992	501.331086	-1.269571	-1.471794	-0.070282	0.293577	-0.253240
0.830	4.267785	-0.033467	501.281195	-1.249216	-1.516104	-0.077674	0.302446	-0.249205
0.840	4.317302	-0.022910	501.299767	-1.249152	-1.550537	-0.088969	0.309303	-0.249183
0.850	4.357823	-0.023665	501.359461	-1.265106	-1.573412	-0.103157	0.313829	-0.252335
0.860	4.378069	-0.032170	501.439491	-1.290078	-1.584103	-0.118406	0.315911	-0.257275
0.870	4.369765	-0.043814	501.531691	-1.316706	-1.583780	-0.132529	0.315789	-0.262537
0.880	4.331217	-0.054394	501.637837	-1.339562	-1.575520	-0.143540	0.314075	-0.267038
0.890	4.268762	-0.061429	501.761181	-1.356434	-1.563641	-0.150068	0.311630	-0.270335
0.900	4.195243	-0.064641	501.898048	-1.368142	-1.552516	-0.151561	0.309329	-0.272594
0.910	4.126047	-0.065508	502.034386	-1.377239	-1.545408	-0.148358	0.307829	-0.274332
0.920	4.074259	-0.066266	502.149077	-1.386464	-1.543781	-0.141658	0.307435	-0.276106
0.930	4.046737	-0.068735	502.222468	-1.397722	-1.547273	-0.133340	0.308085	-0.278307
0.940	4.042511	-0.073226	502.245943	-1.411844	-1.554188	-0.125534	0.309448	-0.281106
0.950	4.053970	-0.077800	502.227083	-1.428835	-1.562199	-0.119980	0.311054	-0.284500
0.960	4.070228	-0.078420	502.186571	-1.448214	-1.568987	-0.117416	0.312431	-0.288382
0.970	4.081257	-0.070382	502.147809	-1.469215	-1.572679	-0.117344	0.313190	-0.292586
0.980	4.081223	-0.050682	502.125176	-1.490996	-1.572007	-0.118362	0.313071	-0.296937
0.990	4.069917	-0.020227	502.117895	-1.512998	-1.566184	-0.118858	0.311915	-0.301323
1.000	4.052013	0.015323	502.112278	-1.535350	-1.554575	-0.117660	0.309607	-0.305778
1.010	4.034744	0.046558	502.089696	-1.558973	-1.536452	-0.114322	0.306011	-0.310497
1.020	4.025061	0.062854	502.035458	-1.585084	-1.511120	-0.109045	0.300999	-0.315732
1.030	4.027164	0.055536	501.945225	-1.614250	-1.478432	-0.102395	0.294540	-0.321599
1.040	4.040830	0.020643	501.828090	-1.645527	-1.439240	-0.094974	0.286799	-0.327907
1.050	4.060900	-0.039552	501.706775	-1.676352	-1.395294	-0.087175	0.278109	-0.334130
1.060	4.078389	-0.116709	501.615036	-1.703459	-1.348556	-0.079084	0.268843	-0.339595
1.070	4.083357	-0.198356	501.591874	-1.724469	-1.300428	-0.070537	0.259260	-0.343799
1.080	4.068701	-0.271224	501.672223	-1.739272	-1.251450	-0.061278	0.249456	-0.346695
1.090	4.033297	-0.324907	501.874978	-1.750456	-1.201574	-0.051167	0.239417	-0.348783
1.100	3.982987	-0.354386	502.191378	-1.762588	-1.150750	-0.040419	0.229146	-0.350979
1.110	3.928837	-0.360451	502.578657	-1.780779	-1.099501	-0.029850	0.218772	-0.354329
1.120	3.883167	-0.348258	502.963201	-1.809271	-1.049301	-0.020967	0.208624	-0.359722
1.130	3.854817	-0.325206	503.254302	-1.850619	-1.002617	-0.015728	0.199227	-0.367730
1.140	3.845688	-0.299298	503.366214	-1.905617	-0.962417	-0.015900	0.191196	-0.378575
1.150	3.850400	-0.278484	503.243603	-1.973641	-0.931157	-0.022244	0.185031	-0.392184
1.160	3.859540	-0.270592	502.883081	-2.053075	-0.909611	-0.033962	0.180879	-0.408261
1.170	3.864795	-0.283097	502.342439	-2.141774	-0.896073	-0.048775	0.178379	-0.426357
1.180	3.862827	-0.322268	501.731384	-2.237718	-0.886313	-0.063691	0.176651	-0.445999
1.190	3.855359	-0.391956	501.183897	-2.339748	-0.874255	-0.076145	0.174438	-0.466844
1.200	3.845497	-0.492759	500.820369	-2.447912	-0.853022	-0.084984	0.170325	-0.488780
1.210	3.832893	-0.622062	500.712950	-2.562963	-0.815996	-0.090830	0.162967	-0.511863
1.220	3.811128	-0.774656	500.866972	-2.685121	-0.757656	-0.095686	0.151269	-0.536095
1.230	3.769144	-0.943145	501.224633	-2.812721	-0.674261	-0.101952	0.134523	-0.561170
1.240	3.695966	-1.117749	501.688077	-2.941550	-0.564450	-0.111317	0.112510	-0.586330
1.250	3.586013	-1.286134	502.151883	-3.065248	-0.429838	-0.124002	0.085599	-0.610422
1.260	3.442155	-1.434388	502.532056	-3.176572	-0.275374	-0.138612	0.054797	-0.632113
1.270	3.275250	-1.549656	502.781026	-3.269095	-0.109138	-0.152582	0.021707	-0.650203
1.280	3.100760	-1.623613	502.885682	-3.338865	0.058715	-0.163000	-0.011676	-0.663941
1.290	2.934213	-1.655055	502.854713	-3.385554	0.217719	-0.167543	-0.043297	-0.673267
1.300	2.787412	-1.650213	502.706317	-3.412548	0.358939	-0.165270	-0.071401	-0.678835
1.310	2.666730	-1.620619	502.464119	-3.425819	0.476176	-0.157057	-0.094768	-0.681804
1.320	2.573729	-1.579629	502.160956	-3.432018	0.566304	-0.145525	-0.112773	-0.683450
1.330	2.507305	-1.539121	501.843303	-3.436621	0.629096	-0.134431	-0.125357	-0.684800
1.340	2.466067	-1.507358	501.568446	-3.442830	0.667016	-0.127604	-0.132986	-0.686413
1.350	2.449725	-1.488253	501.391614	-3.451482	0.685070	-0.127753	-0.136634	-0.688380
1.360	2.458821	-1.481806	501.347390	-3.461830	0.690401	-0.135546	-0.137709	-0.690505
1.370	2.492930	-1.485480	501.434585	-3.472737	0.691374	-0.149367	-0.137879	-0.692560
1.380	2.548386	-1.496093	501.613648	-3.483728	0.696237	-0.165833	-0.138799	-0.694504
1.390	2.616935	-1.511382	501.820055	-3.495440	0.711758	-0.180880	-0.141835	-0.696552
1.400	2.686315	-1.530305	501.988220	-3.509333	0.742221	-0.190976	-0.147856	-0.699087
1.410	2.742766	-1.551919	502.074292	-3.526845	0.789017	-0.194059	-0.157151	-0.702455
1.420	2.774503	-1.573933	502.066985	-3.548450	0.850914	-0.189957	-0.169482	-0.706768
1.430	2.774564	-1.592475	501.983044	-3.573062	0.924946	-0.180186	-0.184258	-0.711789
1.440	2.741668	-1.603579	501.853152	-3.598038	1.007663	-0.167216	-0.200788	-0.716950
1.450	2.678739	-1.605388	501.708705	-3.619749	1.096284	-0.153494	-0.218510	-0.721484
1.460	2.590210	-1.599539	501.576636	-3.634498	1.189330	-0.140643	-0.237118	-0.724615
1.470	2.479812	-1.590723	501.481283	-3.639571	1.286547	-0.129149	-0.256549	-0.725764
1.480	2.349961	-1.584498	501.446776	-3.634173	1.388283	-0.118610	-0.276855	-0.724737
1.490	2.202628	-1.584295	501.494595	-3.619911	1.494577	-0.108340	-0.298024	-0.721825
1.500	2.040934	-1.589101	501.636220	-3.600405	1.604245	-0.097999	-0.319802	-0.717732
1.510	1.870758	-1.593048	501.865152	-3.579928	1.714128	-0.087930	-0.341551	-0.713325
1.520	1.701929	-1.587415	502.153299	-3.561610	1.818684	-0.079033	-0.362177	-0.709267
1.530	1.548387	-1.564345	502.454763	-3.546097	1.910193	-0.072261	-0.380172	-0.705755
1.540	1.426632	-1.520724	502.716878	-3.531409	1.979788	-0.068083	-0.393818	-0.702465
1.550	1.352385	-1.460384	502.895150	-3.514047	2.019235	-0.066255	-0.401522	-0.698763
1.560	1.336679	-1.393373	502.966238	-3.490774	2.022893	-0.066071	-0.402193	-0.694037
1.570	1.383290	-1.332400	502.932954	-3.460127	1.989056	-0.066880	-0.395491	-0.687990
1.580	1.488493	-1.288028	502.818858	-3.422936	1.920129	-0.068510	-0.381873	-0.680749
1.590	1.642615	-1.264790	502.655785	-3.381759	1.821746	-0.071313	-0.362424	-0.672778
1.600	1.832056	-1.259705	502.471473	-3.339731	1.701452	-0.075831	-0.338617	-0.664661
1.610	2.040992	-1.263586	502.283777	-3.299498	1.567625	-0.082324	-0.312100	-0.656899
1.620	2.252850	-1.264685	502.103614	-3.262641	1.428797	-0.090433	-0.284562	-0.649794
1.630	2.452133	-1.253448	501.943313	-3.229579	1.293152	-0.099161	-0.257629	-0.643415
1.640	2.626631	-1.226508	501.823226	-3.199634	1.167888	-0.107112	-0.232729	-0.637602
1.650	2.769327	-1.188075	501.770205	-3.171090	1.058401	-0.112878	-0.210933	-0.631981
1.660	2.879029	-1.147915	501.807415	-3.141231	0.967532	-0.115412	-0.192809	-0.625983
1.670	2.959493	-1.116591	501.941880	-3.106572	0.895111	-0.114316	-0.178330	-0.618911
1.680	3.017699	-1.099883	502.158239	-3.063400	0.837933	-0.109957	-0.166866	-0.610047
1.690	3.062302	-1.094972	502.422499	-3.008561	0.790207	-0.103396	-0.157279	-0.598811
1.700	3.102808	-1.090558	502.692792	-2.940248	0.744509	-0.096116	-0.148104	-0.584900
1.710	3.149174	-1.071311	502.930763	-2.858474	0.693178	-0.089661	-0.137828	-0.568363
1.720	3.210993	-1.024808	503.108548	-2.765101	0.629829	-0.085277	-0.125187	-0.549603
1.730	3.295690	-0.947569	503.209785	-2.663519	0.550447	-0.083645	-0.109387	-0.529306
1.740	3.406193	-0.847183	503.226583	-2.558115	0.453644	-0.084767	-0.090147	-0.508343
1.750	3.539400	-0.739391	503.156055	-2.453479	0.339968	-0.088033	-0.067567	-0.487618
1.760	3.686627	-0.641517	502.999304	-2.353358	0.210641	-0.092483	-0.041877	-0.467865
1.770	3.836190	-0.565330	502.763221	-2.259551	0.066369	-0.097135	-0.013201	-0.449426
1.780	3.977092	-0.512582	502.463240	-2.171205	-0.093058	-0.101236	0.018520	-0.432112
1.790	4.102311	-0.474984	502.124800	-2.084962	-0.268005	-0.104323	0.053374	-0.415228
1.800	4.210366	-0.438233	501.782412	-1.996105	-0.457357	-0.106163	0.091146	-0.397803
1.810	4.304593	-0.388025	501.476233	-1.900365	-0.656900	-0.106660	0.130993	-0.378954
1.820	4.390532	-0.315555	501.246357	-1.795689	-0.858733	-0.105819	0.171320	-0.358245
1.830	4.472823	-0.220601	501.125420	-1.683212	-1.052213	-0.103719	0.209970	-0.335886
1.840	4.553210	-0.111370	501.131233	-1.567054	-1.226221	-0.100499	0.244691	-0.312703
1.850	4.630473	-0.001403	501.261990	-1.453002	-1.371943	-0.096394	0.273698	-0.289869
1.860	4.701949	0.095305	501.495606	-1.346592	-1.485127	-0.091799	0.296140	-0.268515
1.870	4.765649	0.169163	501.792685	-1.251490	-1.566908	-0.087336	0.312262	-0.249404
1.880	4.822060	0.217842	502.101670	-1.168913	-1.622828	-0.083799	0.323207	-0.232804
1.890	4.874934	0.245999	502.365601	-1.098277	-1.660510	-0.082016	0.330538	-0.218621
1.900	4.930648	0.262315	502.530938	-1.038436	-1.687025	-0.082662	0.335706	-0.206641
1.910	4.996101	0.275717	502.558412	-0.988588	-1.706992	-0.086105	0.339660	-0.196711
1.920	5.075690	0.292745	502.433971	-0.948294	-1.721856	-0.092329	0.342703	-0.188740
1.930	5.168341	0.316877	502.176120	-0.916819	-1.730082	-0.100920	0.344517	-0.182569
1.940	5.265742	0.349234	501.835839	-0.892458	-1.727713	-0.111139	0.344279	-0.177839
1.950	5.352534	0.389348	501.487234	-0.872516	-1.709003	-0.122003	0.340787	-0.173986
1.960	5.408621	0.435176	501.210354	-0.854110	-1.667230	-0.132346	0.332641	-0.170409
1.970	5.413083	0.482544	501.070845	-0.835471	-1.595855	-0.140839	0.318489	-0.166737
1.980	5.348898	0.524876	501.102840	-0.817002	-1.489957	-0.146035	0.297336	-0.163041
1.990	5.207546	0.553954	501.300955	-0.801505	-1.347613	-0.146565	0.268823	-0.159885
2.000	4.992447	0.561836	501.623841	-0.793430	-1.170933	-0.141513	0.233429	-0.158172
2.010	4.719948	0.543366	502.006725	-0.797520	-0.966516	-0.130915	0.192530	-0.158866
2.020	4.417026	0.498276	502.377230	-0.817463	-0.745198	-0.116117	0.148334	-0.162719
2.030	4.116070	0.431849	502.669876	-0.854983	-0.520980	-0.099725	0.103642	-0.170088
2.040	3.848423	0.353551	502.837724	-0.909410	-0.309105	-0.085022	0.061472	-0.180856
2.050	3.638682	0.273808	502.861049	-0.977535	-0.123504	-0.075000	0.024560	-0.194395
2.060	3.501125	0.200264	502.751540	-1.053678	0.025812	-0.071408	-0.005134	-0.209582
2.070	3.438675	0.135664	502.548993	-1.130209	0.134634	-0.074231	-0.026790	-0.224895
2.080	3.444016	0.078926	502.308760	-1.198776	0.205104	-0.081834	-0.040832	-0.238653
2.090	3.502131	0.028725	502.083004	-1.252165	0.244792	-0.091698	-0.048755	-0.249394
2.100	3.593418	-0.013175	501.903910	-1.286324	0.264681	-0.101392	-0.052735	-0.256289
2.110	3.696730	-0.041655	501.777576	-1.301825	0.276677	-0.109345	-0.055139	-0.259443
2.120	3.791889	-0.051611	501.691425	-1.304190	0.291385	-0.115102	-0.058081	-0.259959
2.130	3.861574	-0.042802	501.629613	-1.302819	0.316646	-0.119074	-0.063123	-0.259717
2.140	3.892922	-0.022846	501.586626	-1.308695	0.357002	-0.122010	-0.071175	-0.260911
2.150	3.879059	-0.005989	501.571860	-1.331367	0.413902	-0.124465	-0.082521	-0.265439
2.160	3.820219	-0.007829	501.604331	-1.376012	0.486374	-0.126480	-0.096964	-0.274322
2.170	3.723624	-0.038675	501.701616	-1.441555	0.571905	-0.127541	-0.113993	-0.287333
2.180	3.601654	-0.099103	501.868752	-1.520683	0.667279	-0.126886	-0.132959	-0.303004
2.190	3.468745	-0.179994	502.091511	-1.602010	0.769169	-0.124031	-0.153193	-0.319067
2.200	3.338162	-0.266761	502.335824	-1.673836	0.874439	-0.119192	-0.174075	-0.333211
2.210	3.219781	-0.345373	502.552798	-1.728194	0.980308	-0.113325	-0.195066	-0.343883
2.220	3.119291	-0.407194	502.688448	-1.763599	1.084600	-0.107741	-0.215760	-0.350833
2.230	3.038420	-0.450600	502.697552	-1.785315	1.186084	-0.103572	-0.235944	-0.355147
2.240	2.975608	-0.479284	502.559335	-1.803024	1.284668	-0.101434	-0.255625	-0.358768
2.250	2.926877	-0.498955	502.289183	-1.827038	1.381184	-0.101392	-0.274978	-0.363742
2.260	2.886899	-0.514678	501.939497	-1.864750	1.476821	-0.103174	-0.294223	-0.371509
2.270	2.850367	-0.529878	501.586815	-1.918642	1.572482	-0.106437	-0.313501	-0.382514
2.280	2.813558	-0.546502	501.309085	-1.986212	1.668370	-0.110960	-0.332803	-0.396205
2.290	2.775617	-0.565320	501.162199	-2.061381	1.763896	-0.116617	-0.351961	-0.411320
2.300	2.738788	-0.586072	501.165297	-2.136544	1.857820	-0.123117	-0.370700	-0.426315
2.310	2.707192	-0.607855	501.300461	-2.204494	1.948538	-0.129679	-0.388697	-0.439755
2.320	2.684637	-0.629928	501.526269	-2.259630	2.034457	-0.134924	-0.405653	-0.450551
2.330	2.672620	-0.652416	501.798451	-2.298351	2.114378	-0.137149	-0.421360	-0.458023
2.340	2.669567	-0.676180	502.087373	-2.318934	2.187788	-0.134865	-0.435738	-0.461859
