Time[s]	Fx[N]	Fy[N]	Fz[N]	Mx[Nm]	My[Nm]	Mz[Nm]	COPx[cm]	COPy[cm]
0.010	1.436788	-4.116420	612.962515	4.336650	-1.574373	-0.380389	0.256846	0.707490
0.020	1.450782	-4.143354	613.532322	4.272050	-1.495334	-0.379195	0.243725	0.696304
0.030	1.454672	-4.169983	614.105199	4.213208	-1.414213	-0.378863	0.230288	0.686073
0.040	1.440344	-4.194485	614.673616	4.164121	-1.328200	-0.379681	0.216082	0.677452
0.050	1.402352	-4.213500	615.217778	4.126231	-1.233328	-0.381201	0.200470	0.670694
0.060	1.336306	-4.223540	615.713463	4.098476	-1.124828	-0.382448	0.182687	0.665647
0.070	1.236881	-4.223235	616.145829	4.078287	-0.998270	-0.382494	0.162018	0.661903
0.080	1.097418	-4.215182	616.520045	4.063025	-0.851175	-0.381094	0.138061	0.659026
0.090	0.912052	-4.206349	616.861752	4.051206	-0.684411	-0.379027	0.110951	0.656745
0.100	0.679593	-4.206553	617.207701	4.042976	-0.502771	-0.377929	0.081459	0.655043
0.110	0.407362	-4.225332	617.592842	4.039733	-0.314494	-0.379684	0.050923	0.654109
0.120	0.113033	-4.268231	618.040064	4.043287	-0.130018	-0.385664	0.021037	0.654211
0.130	-0.176711	-4.334023	618.554789	4.055011	0.039598	-0.396141	-0.006402	0.655562
0.140	-0.430900	-4.414222	619.123449	4.075230	0.184234	-0.410113	-0.029757	0.658226
0.150	-0.621189	-4.495336	619.714428	4.102874	0.296049	-0.425596	-0.047772	0.662059
0.160	-0.728579	-4.562981	620.281012	4.135446	0.370451	-0.440236	-0.059723	0.666705
0.170	-0.747169	-4.606116	620.766573	4.169450	0.406470	-0.451991	-0.065479	0.671661
0.180	-0.683499	-4.619753	621.112172	4.201341	0.406495	-0.459638	-0.065446	0.676422
0.190	-0.552446	-4.605290	621.266333	4.228765	0.375535	-0.462971	-0.060447	0.680669
0.200	-0.372387	-4.568657	621.195545	4.251545	0.320329	-0.462700	-0.051566	0.684413
0.210	-0.162048	-4.517311	620.892402	4.271847	0.248499	-0.460162	-0.040023	0.688017
0.220	0.060508	-4.457533	620.377615	4.293286	0.167758	-0.456935	-0.027041	0.692044
0.230	0.278117	-4.393150	619.693845	4.319303	0.085079	-0.454423	-0.013729	0.697006
0.240	0.475614	-4.325903	618.893193	4.351601	0.005966	-0.453477	-0.000964	0.703126
0.250	0.642227	-4.256679	618.023909	4.389408	-0.065969	-0.454178	0.010674	0.710233
0.260	0.774144	-4.186559	617.122719	4.429918	-0.128977	-0.455853	0.020900	0.717834
0.270	0.875486	-4.117162	616.216078	4.469540	-0.182711	-0.457299	0.029651	0.725320
0.280	0.956565	-4.050370	615.328408	4.505287	-0.227493	-0.457074	0.036971	0.732176
0.290	1.029787	-3.987747	614.491270	4.535790	-0.263529	-0.453773	0.042886	0.738137
0.300	1.104717	-3.929945	613.747293	4.561748	-0.290456	-0.446315	0.047325	0.743262
0.310	1.184237	-3.876492	613.146516	4.585757	-0.307493	-0.434257	0.050150	0.747906
0.320	1.263344	-3.826288	612.737489	4.611512	-0.314069	-0.418028	0.051257	0.752608
0.330	1.331064	-3.778627	612.557467	4.642588	-0.310349	-0.398918	0.050664	0.757902
0.340	1.374685	-3.734013	612.625197	4.681254	-0.297180	-0.378756	0.048509	0.764130
0.350	1.384526	-3.694047	612.938104	4.727863	-0.275489	-0.359365	0.044946	0.771344
0.360	1.357396	-3.660423	613.473953	4.781017	-0.245695	-0.341997	0.040050	0.779335
0.370	1.297717	-3.633678	614.195089	4.838280	-0.207686	-0.326908	0.033814	0.787743
0.380	1.216374	-3.612393	615.052305	4.897046	-0.161320	-0.313253	0.026229	0.796200
0.390	1.127953	-3.593304	615.987078	4.955255	-0.106996	-0.299400	0.017370	0.804441
0.400	1.047133	-3.572412	616.934170	5.011815	-0.045772	-0.283664	0.007419	0.812374
0.410	0.984942	-3.546797	617.827252	5.066700	0.020983	-0.265161	-0.003396	0.820084
0.420	0.945678	-3.516199	618.606678	5.120760	0.092082	-0.244378	-0.014885	0.827789
0.430	0.925441	-3.483222	619.225010	5.175344	0.166730	-0.223141	-0.026926	0.835778
0.440	0.912973	-3.451831	619.647599	5.231772	0.244373	-0.204032	-0.039437	0.844314
0.450	0.892877	-3.425028	619.850541	5.290768	0.324374	-0.189584	-0.052331	0.853555
0.460	0.850424	-3.403193	619.820900	5.352041	0.405765	-0.181636	-0.065465	0.863482
0.470	0.776595	-3.383925	619.561684	5.414277	0.487174	-0.181036	-0.078632	0.873888
0.480	0.671782	-3.363155	619.099697	5.475554	0.566860	-0.187638	-0.091562	0.884438
0.490	0.546764	-3.336710	618.490956	5.533827	0.642782	-0.200462	-0.103927	0.894731
0.500	0.420203	-3.301576	617.817812	5.587084	0.712668	-0.217923	-0.115352	0.904325
0.510	0.312999	-3.256511	617.174994	5.633163	0.774180	-0.238086	-0.125439	0.912733
0.520	0.241162	-3.202024	616.647592	5.669771	0.825299	-0.258978	-0.133836	0.919451
0.530	0.209922	-3.139848	616.289072	5.695110	0.864944	-0.278976	-0.140347	0.924097
0.540	0.211714	-3.072293	616.108929	5.708849	0.893591	-0.297214	-0.145038	0.926597
0.550	0.229203	-3.002116	616.076391	5.712674	0.913478	-0.313800	-0.148274	0.927267
0.560	0.242271	-2.933195	616.139201	5.709831	0.928045	-0.329645	-0.150623	0.926711
0.570	0.235897	-2.871479	616.248245	5.703830	0.940626	-0.345901	-0.152638	0.925574
0.580	0.205438	-2.825153	616.375560	5.696997	0.952996	-0.363279	-0.154613	0.924274
0.590	0.157176	-2.803224	616.517921	5.689634	0.964666	-0.381608	-0.156470	0.922866
0.600	0.104269	-2.812568	616.687143	5.680150	0.973485	-0.399852	-0.157857	0.921075
0.610	0.060282	-2.854450	616.894869	5.666011	0.977274	-0.416542	-0.158418	0.918473
0.620	0.033424	-2.922252	617.140498	5.644969	0.975516	-0.430398	-0.158070	0.914698
0.630	0.023953	-3.002088	617.407256	5.615903	0.970132	-0.440833	-0.157130	0.909595
0.640	0.025421	-3.076951	617.665968	5.578874	0.964933	-0.448129	-0.156223	0.903219
0.650	0.028455	-3.133207	617.882148	5.534487	0.964090	-0.453248	-0.156031	0.895719
0.660	0.024806	-3.166549	618.021951	5.483056	0.970412	-0.457369	-0.157019	0.887194
0.670	0.009783	-3.184336	618.056252	5.424135	0.984244	-0.461353	-0.159248	0.877612
0.680	-0.017505	-3.202988	617.965409	5.356743	1.003434	-0.465351	-0.162377	0.866835
0.690	-0.055372	-3.241500	617.746477	5.280104	1.024198	-0.468730	-0.165796	0.854736
0.700	-0.100858	-3.313841	617.420675	5.194436	1.042241	-0.470379	-0.168806	0.841312
0.710	-0.150160	-3.423234	617.035757	5.101297	1.053473	-0.469270	-0.170731	0.826743
0.720	-0.198457	-3.560442	616.658681	5.003348	1.054210	-0.465052	-0.170955	0.811364
0.730	-0.240124	-3.706623	616.358914	4.903683	1.041205	-0.458422	-0.168928	0.795589
0.740	-0.269829	-3.839577	616.188896	4.805098	1.011925	-0.451108	-0.164223	0.779809
0.750	-0.283813	-3.941000	616.170773	4.709540	0.965122	-0.445377	-0.156632	0.764324
0.760	-0.280136	-4.002166	616.295245	4.617791	0.901352	-0.443202	-0.146253	0.749282
0.770	-0.257582	-4.026227	616.531682	4.529399	0.823070	-0.445397	-0.133500	0.734658
0.780	-0.214316	-4.026634	616.843121	4.442880	0.734181	-0.451160	-0.119022	0.720261
0.790	-0.147826	-4.022480	617.198159	4.356264	0.639160	-0.458277	-0.103558	0.705813
0.800	-0.056544	-4.032312	617.574407	4.267931	0.542037	-0.463934	-0.087769	0.691080
0.810	0.058082	-4.068158	617.953276	4.177467	0.445609	-0.465764	-0.072110	0.676017
0.820	0.190665	-4.131516	618.310853	4.086091	0.351131	-0.462689	-0.056789	0.660847
0.830	0.332725	-4.212807	618.611930	3.996312	0.258533	-0.455270	-0.041792	0.646013
0.840	0.474787	-4.294961	618.812708	3.910874	0.166978	-0.445430	-0.026984	0.631996
0.850	0.608844	-4.359947	618.872473	3.831561	0.075482	-0.435694	-0.012197	0.619120
0.860	0.730352	-4.395344	618.768665	3.758555	-0.016604	-0.428276	0.002683	0.607425
0.870	0.839059	-4.397929	618.507239	3.690671	-0.109281	-0.424416	0.017669	0.596706
0.880	0.938313	-4.373108	618.122776	3.626153	-0.201756	-0.424215	0.032640	0.586640
0.890	1.033145	-4.331253	617.668197	3.563387	-0.292418	-0.426877	0.047342	0.576910
0.900	1.128010	-4.283147	617.198745	3.501179	-0.378979	-0.431075	0.061403	0.567269
0.910	1.224916	-4.236449	616.757051	3.438766	-0.458789	-0.435264	0.074387	0.557556
0.920	1.322237	-4.194221	616.364687	3.375986	-0.529228	-0.437932	0.085863	0.547725
0.930	1.414464	-4.155608	616.021851	3.313617	-0.588044	-0.437862	0.095458	0.537906
0.940	1.493161	-4.117992	615.713567	3.253505	-0.633493	-0.434353	0.102888	0.528412
0.950	1.549055	-4.079573	615.419452	3.198063	-0.664296	-0.427268	0.107942	0.519656
0.960	1.574568	-4.041350	615.124228	3.149221	-0.679513	-0.416903	0.110468	0.511965
0.970	1.565904	-4.007818	614.826627	3.107313	-0.678462	-0.403763	0.110350	0.505397
0.980	1.523937	-3.986109	614.544524	3.070532	-0.660870	-0.388450	0.107538	0.499644
0.990	1.453530	-3.983743	614.314469	3.035257	-0.627229	-0.371729	0.102102	0.494088
1.000	1.361587	-4.005821	614.184882	2.997141	-0.579142	-0.354681	0.094294	0.487987
1.010	1.254787	-4.052917	614.204261	2.952477	-0.519341	-0.338757	0.084555	0.480700
1.020	1.138079	-4.120703	614.407886	2.899385	-0.451259	-0.325554	0.073446	0.471899
1.030	1.014446	-4.201357	614.807271	2.838453	-0.378420	-0.316361	0.061551	0.461682
1.040	0.885607	-4.285944	615.385340	2.772538	-0.303993	-0.311620	0.049399	0.450537
1.050	0.752931	-4.366687	616.097985	2.705611	-0.230642	-0.310605	0.037436	0.439153
1.060	0.617975	-4.438341	616.881215	2.641035	-0.160566	-0.311523	0.026029	0.428127
1.070	0.482677	-4.498460	617.662743	2.580167	-0.095593	-0.312112	0.015477	0.417731
1.080	0.349654	-4.547036	618.375874	2.521978	-0.037324	-0.310568	0.006036	0.407839
1.090	0.222931	-4.586355	618.971967	2.463661	0.012616	-0.306402	-0.002038	0.398025
1.100	0.108706	-4.621446	619.427440	2.401562	0.052274	-0.300767	-0.008439	0.387707
1.110	0.015151	-4.660485	619.742957	2.331875	0.079270	-0.295973	-0.012791	0.376265
1.120	-0.049481	-4.713984	619.935227	2.251122	0.091085	-0.294352	-0.014693	0.363122
1.130	-0.080032	-4.792199	620.024651	2.156746	0.085698	-0.297105	-0.013822	0.347848
1.140	-0.077203	-4.901364	620.023826	2.047888	0.062280	-0.303788	-0.010045	0.330292
1.150	-0.048069	-5.040345	619.931225	1.925963	0.021604	-0.312742	-0.003485	0.310674
1.160	-0.003697	-5.199301	619.731571	1.794600	-0.033915	-0.322122	0.005473	0.289577
1.170	0.045104	-5.361097	619.401985	1.658906	-0.100491	-0.330843	0.016224	0.267824
1.180	0.091857	-5.505049	618.922211	1.524518	-0.173426	-0.338896	0.028021	0.246318
1.190	0.136524	-5.611805	618.286466	1.397004	-0.247722	-0.346976	0.040066	0.225948
1.200	0.184800	-5.667945	617.513024	1.281717	-0.318772	-0.355783	0.051622	0.207561
1.210	0.245034	-5.669231	616.647736	1.183648	-0.383012	-0.365465	0.062112	0.191949
1.220	0.324153	-5.621709	615.760000	1.106769	-0.438373	-0.375456	0.071192	0.179740
1.230	0.424332	-5.540227	614.932156	1.052943	-0.484413	-0.384724	0.078775	0.171229
1.240	0.541497	-5.444586	614.244743	1.021083	-0.522071	-0.392269	0.084994	0.166234
1.250	0.665733	-5.354409	613.761359	1.007330	-0.553082	-0.397586	0.090114	0.164124
1.260	0.782917	-5.284361	613.517634	1.006379	-0.579251	-0.400838	0.094415	0.164034
1.270	0.876954	-5.240964	613.517633	1.013382	-0.601796	-0.402643	0.098089	0.165176
1.280	0.932488	-5.221628	613.737904	1.025544	-0.620967	-0.403592	0.101178	0.167098
1.290	0.938170	-5.216146	614.136658	1.042782	-0.636099	-0.403804	0.103576	0.169796
1.300	0.889945	-5.210532	614.665016	1.067346	-0.646131	-0.402767	0.105119	0.173647
1.310	0.793077	-5.192079	615.278187	1.102776	-0.650455	-0.399592	0.105717	0.179232
1.320	0.661683	-5.153488	615.944352	1.152702	-0.649707	-0.393567	0.105481	0.187144
1.330	0.515619	-5.094251	616.647982	1.219804	-0.646140	-0.384702	0.104783	0.197812
1.340	0.375779	-5.019089	617.385284	1.304952	-0.643401	-0.373960	0.104214	0.211368
1.350	0.259403	-4.934944	618.153155	1.406394	-0.645828	-0.363063	0.104477	0.227516
1.360	0.176812	-4.848367	618.936546	1.519172	-0.657516	-0.353967	0.106233	0.245449
1.370	0.130437	-4.764288	619.699954	1.635334	-0.681432	-0.348303	0.109962	0.263891
1.380	0.116186	-4.685956	620.386876	1.745397	-0.718851	-0.346977	0.115871	0.281340
1.390	0.126377	-4.615332	620.927778	1.840780	-0.769324	-0.350008	0.123899	0.296456
1.400	0.152998	-4.553410	621.253813	1.916201	-0.831134	-0.356560	0.133783	0.308441
1.410	0.190165	-4.500340	621.311562	1.970934	-0.901910	-0.365183	0.145162	0.317222
1.420	0.235055	-4.455531	621.074892	2.008392	-0.979048	-0.374204	0.157638	0.323374
1.430	0.287122	-4.417910	620.552238	2.034353	-1.059902	-0.382188	0.170800	0.327829
1.440	0.346227	-4.386369	619.788368	2.054670	-1.141995	-0.388278	0.184256	0.331512
1.450	0.410849	-4.360312	618.858874	2.073362	-1.223435	-0.392265	0.197692	0.335030
1.460	0.477449	-4.340154	617.856959	2.091705	-1.303365	-0.394421	0.210949	0.338542
1.470	0.541240	-4.327613	616.876201	2.108503	-1.382025	-0.395192	0.224036	0.341803
1.480	0.597660	-4.325617	615.995754	2.121308	-1.460260	-0.394930	0.237057	0.344371
1.490	0.643459	-4.337705	615.272249	2.127995	-1.538702	-0.393749	0.250085	0.345862
1.500	0.676708	-4.366914	614.738091	2.127936	-1.617139	-0.391579	0.263062	0.346153
1.510	0.695937	-4.414246	614.403180	2.122246	-1.694412	-0.388408	0.275782	0.345416
1.520	0.699301	-4.476976	614.257777	2.113207	-1.768824	-0.384617	0.287961	0.344026
1.530	0.684574	-4.547272	614.276084	2.103486	-1.838775	-0.381233	0.299340	0.342433
1.540	0.650150	-4.611915	614.421507	2.095708	-1.903182	-0.379861	0.309752	0.341086
1.550	0.596621	-4.653939	614.654419	2.092445	-1.961466	-0.382194	0.319117	0.340426
1.560	0.528162	-4.656477	614.941512	2.096164	-2.013312	-0.389256	0.327399	0.340872
1.570	0.452877	-4.607940	615.263299	2.108781	-2.058570	-0.400751	0.334584	0.342744
1.580	0.381559	-4.506659	615.615754	2.130877	-2.097491	-0.414916	0.340714	0.346138
1.590	0.325079	-4.362974	616.005117	2.161083	-2.131068	-0.429006	0.345950	0.350822
1.600	0.291505	-4.197644	616.438700	2.196143	-2.161172	-0.440237	0.350590	0.356263
1.610	0.284179	-4.036891	616.915685	2.231825	-2.190312	-0.446750	0.355042	0.361771
1.620	0.301348	-3.905691	617.420552	2.264325	-2.221124	-0.448162	0.359743	0.366739
1.630	0.337108	-3.821562	617.921013	2.291520	-2.255807	-0.445454	0.365064	0.370844
1.640	0.383159	-3.790764	618.372323	2.313434	-2.295684	-0.440290	0.371246	0.374117
1.650	0.430938	-3.807701	618.728403	2.331678	-2.341110	-0.434139	0.378374	0.376850
1.660	0.473775	-3.857256	618.956605	2.348275	-2.391821	-0.427668	0.386428	0.379393
1.670	0.508493	-3.919117	619.049575	2.364633	-2.447597	-0.420670	0.395380	0.381978
1.680	0.535853	-3.972997	619.027894	2.381220	-2.508868	-0.412477	0.405292	0.384671
1.690	0.559610	-4.003529	618.931866	2.397872	-2.576862	-0.402544	0.416340	0.387421
1.700	0.584645	-4.003732	618.806934	2.414200	-2.653204	-0.390895	0.428761	0.390138
1.710	0.615140	-3.976047	618.689874	2.429731	-2.739188	-0.378240	0.442740	0.392722
1.720	0.653742	-3.930473	618.600738	2.443826	-2.835110	-0.365740	0.458310	0.395057
1.730	0.701981	-3.880228	618.541255	2.455655	-2.939985	-0.354562	0.475309	0.397007
1.740	0.761287	-3.836612	618.497651	2.464319	-3.051745	-0.345505	0.493413	0.398436
1.750	0.833324	-3.805297	618.445373	2.469046	-3.167766	-0.338868	0.512214	0.399234
1.760	0.918856	-3.785594	618.353864	2.469305	-3.285415	-0.334602	0.531316	0.399335
1.770	1.015745	-3.772551	618.190694	2.464789	-3.402316	-0.332542	0.550367	0.398710
1.780	1.117775	-3.760361	617.925612	2.455280	-3.516244	-0.332519	0.569040	0.397342
1.790	1.215537	-3.745265	617.535809	2.440537	-3.624844	-0.334248	0.586985	0.395206
1.800	1.299104	-3.726924	617.012750	2.420374	-3.725456	-0.337146	0.603789	0.392273
1.810	1.360963	-3.708263	616.368889	2.394916	-3.815244	-0.340259	0.618987	0.388552
1.820	1.397552	-3.694422	615.641093	2.364865	-3.891586	-0.342441	0.632119	0.384130
1.830	1.408839	-3.691524	614.887872	2.331500	-3.952540	-0.342718	0.642807	0.379175
1.840	1.396649	-3.705593	614.179591	2.296207	-3.997157	-0.340642	0.650812	0.373866
1.850	1.363094	-3.741573	613.584290	2.259532	-4.025578	-0.336435	0.656076	0.368251
1.860	1.310025	-3.802462	613.154823	2.220258	-4.038935	-0.330888	0.658714	0.362104
1.870	1.239367	-3.888684	612.923007	2.175286	-4.039137	-0.325138	0.658996	0.354904
1.880	1.153656	-3.997828	612.902041	2.120716	-4.028631	-0.320473	0.657304	0.346012
1.890	1.056274	-4.124535	613.092998	2.053736	-4.010180	-0.318201	0.654090	0.334979
1.900	0.951387	-4.260396	613.489627	1.974317	-3.986714	-0.319520	0.649842	0.321817
1.910	0.843688	-4.394267	614.078575	1.885845	-3.961213	-0.325364	0.645066	0.307102
1.920	0.737903	-4.513673	614.835839	1.794341	-3.936592	-0.336197	0.640267	0.291841
1.930	0.638027	-4.607566	615.722051	1.706583	-3.915496	-0.351785	0.635919	0.277168
1.940	0.546432	-4.669555	616.679861	1.627941	-3.900014	-0.370963	0.632421	0.263985
1.950	0.463374	-4.700018	617.637205	1.560840	-3.891338	-0.391538	0.630036	0.252711
1.960	0.387398	-4.705921	618.519042	1.504412	-3.889589	-0.410503	0.628855	0.243228
1.970	0.316796	-4.698424	619.265394	1.455289	-3.894102	-0.424691	0.628826	0.235002
1.980	0.251511	-4.689415	619.847804	1.409077	-3.904316	-0.431719	0.629883	0.227326
1.990	0.194477	-4.688294	620.275069	1.361944	-3.920969	-0.430814	0.632134	0.219571
2.000	0.151596	-4.699876	620.583890	1.311870	-3.946914	-0.423091	0.636000	0.211393
2.010	0.130265	-4.723869	620.817732	1.259180	-3.986933	-0.411157	0.642207	0.202826
2.020	0.136978	-4.755950	621.003253	1.206272	-4.046555	-0.398217	0.651616	0.194246
2.030	0.174942	-4.789994	621.135284	1.156718	-4.130380	-0.387103	0.664973	0.186226
2.040	0.242827	-4.820491	621.177525	1.114202	-4.240624	-0.379580	0.682675	0.179369
2.050	0.335422	-4.844140	621.078184	1.081717	-4.376324	-0.376098	0.704633	0.174168
2.060	0.445843	-4.860051	620.792501	1.061229	-4.533402	-0.375967	0.730260	0.170947
2.070	0.567950	-4.868740	620.301997	1.053788	-4.705593	-0.377780	0.758597	0.169883
2.080	0.697631	-4.870697	619.623678	1.059889	-4.885957	-0.379924	0.788536	0.171054
2.090	0.832610	-4.865359	618.807606	1.079871	-5.068442	-0.381015	0.819066	0.174508
2.100	0.971350	-4.850866	617.925616	1.114153	-5.248918	-0.380190	0.849442	0.180305
2.110	1.111941	-4.824430	617.056321	1.163185	-5.425404	-0.377216	0.879240	0.188505
2.120	1.251597	-4.782911	616.271446	1.227019	-5.597612	-0.372445	0.908303	0.199104
2.130	1.386955	-4.723311	615.626081	1.304629	-5.766182	-0.366698	0.936637	0.211919
2.140	1.514937	-4.643121	615.152699	1.393389	-5.931854	-0.361085	0.964290	0.226511
2.150	1.633682	-4.540721	614.857922	1.489200	-6.094667	-0.356758	0.991232	0.242202
2.160	1.742920	-4.416093	614.722412	1.587351	-6.253384	-0.354581	1.017270	0.258222
2.170	1.843435	-4.271946	614.705925	1.683620	-6.405463	-0.354858	1.042037	0.273890
2.180	1.935785	-4.114805	614.759034	1.774920	-6.547734	-0.357223	1.065090	0.288718
2.190	2.018980	-3.955168	614.839471	1.859290	-6.677585	-0.360801	1.086070	0.302403
2.200	2.089983	-3.805999	614.926994	1.935568	-6.794131	-0.364555	1.104868	0.314764
2.210	2.144543	-3.679679	615.029544	2.003259	-6.898761	-0.367644	1.121696	0.325718
2.220	2.179185	-3.584519	615.176925	2.062707	-6.994594	-0.369599	1.137005	0.335303
2.230	2.193271	-3.522223	615.404089	2.115214	-7.085021	-0.370260	1.151279	0.343711
2.240	2.189883	-3.487425	615.730778	2.162699	-7.172132	-0.369614	1.164816	0.351241
2.250	2.175007	-3.469625	616.145970	2.206862	-7.256055	-0.367723	1.177652	0.358172
2.260	2.155634	-3.456912	616.604125	2.248294	-7.335613	-0.364815	1.189680	0.364625
2.270	2.137935	-3.440013	617.035956	2.286067	-7.409777	-0.361444	1.200866	0.370492
2.280	2.126230	-3.415034	617.370348	2.318048	-7.478915	-0.358541	1.211415	0.375471
2.290	2.122792	-3.383874	617.558617	2.341664	-7.545148	-0.357267	1.221770	0.379181
2.300	2.127987	-3.352458	617.590470	2.354666	-7.611754	-0.358660	1.232492	0.381267
2.310	2.140293	-3.327937	617.494641	2.355637	-7.682040	-0.363239	1.244066	0.381483
2.320	2.156235	-3.316237	617.325019	2.344286	-7.758208	-0.370735	1.256746	0.379749
2.330	2.170794	-3.320709	617.140194	2.321593	-7.840663	-0.380127	1.270483	0.376186
2.340	2.178938	-3.341721	616.985995	2.289659	-7.928062	-0.389955	1.284966	0.371104
2.350	2.178140	-3.376640	616.887025	2.251142	-8.018081	-0.398758	1.299765	0.364920
2.360	2.170811	-3.420071	616.848069	2.208403	-8.108630	-0.405395	1.314526	0.358014
2.370	2.165179	-3.464778	616.862256	2.162812	-8.198987	-0.409158	1.329144	0.350615
2.380	2.173703	-3.503681	616.920742	2.114568	-8.290345	-0.409748	1.343827	0.342762
2.390	2.209242	-3.532596	617.018695	2.063116	-8.385424	-0.407237	1.359023	0.334368
