Time[s]	Fx[N]	Fy[N]	Fz[N]	Mx[Nm]	My[Nm]	Mz[Nm]	COPx[cm]	COPy[cm]
0.010	-3.013725	0.476359	647.870567	14.240376	2.463199	-1.133271	-0.380199	2.198028
0.020	-3.251907	0.887969	647.586440	14.495777	2.986513	-1.125180	-0.461176	2.238431
0.030	-3.443348	1.303223	647.622234	14.782387	3.491701	-1.128449	-0.539157	2.282563
0.040	-3.557418	1.715876	648.224766	15.116638	3.963734	-1.149945	-0.611475	2.332006
0.050	-3.588278	2.101360	649.528947	15.490850	4.392532	-1.189414	-0.676264	2.384936
0.060	-3.556625	2.415578	651.546599	15.873058	4.773346	-1.239293	-0.732618	2.436212
0.070	-3.502389	2.602173	654.181936	16.216137	5.105231	-1.287432	-0.780399	2.478842
0.080	-3.471287	2.607642	657.260604	16.472841	5.388357	-1.321805	-0.819821	2.506288
0.090	-3.500351	2.400213	660.561595	16.610977	5.621310	-1.335294	-0.850990	2.514675
0.100	-3.606936	1.985595	663.847835	16.622970	5.799304	-1.328482	-0.873589	2.504033
0.110	-3.783250	1.412610	666.894940	16.526619	5.913770	-1.309344	-0.886762	2.478144
0.120	-3.996562	0.765212	669.516175	16.357591	5.953336	-1.290038	-0.889200	2.443196
0.130	-4.195062	0.142994	671.578622	16.157314	5.906008	-1.282269	-0.879422	2.405871
0.140	-4.319405	-0.363045	673.005857	15.961069	5.762213	-1.293124	-0.856191	2.371609
0.150	-4.318320	-0.691358	673.766814	15.790156	5.518012	-1.322945	-0.818979	2.343564
0.160	-4.163660	-0.821397	673.855948	15.649852	5.177465	-1.365819	-0.768334	2.322433
0.170	-3.858640	-0.773734	673.273004	15.532537	4.753167	-1.412205	-0.705979	2.307019
0.180	-3.435211	-0.600205	672.010851	15.423853	4.264640	-1.452437	-0.634609	2.295179
0.190	-2.941799	-0.367547	670.057127	15.309391	3.735212	-1.479660	-0.557447	2.284789
0.200	-2.427312	-0.138888	667.410304	15.179929	3.188588	-1.491241	-0.477755	2.274452
0.210	-1.928414	0.041969	664.104368	15.034034	2.646162	-1.488537	-0.398456	2.263806
0.220	-1.464555	0.158654	660.231630	14.877635	2.125553	-1.475519	-0.321941	2.253396
0.230	-1.041356	0.220096	655.953396	14.720968	1.640335	-1.457063	-0.250069	2.244209
0.240	-0.659531	0.249596	651.493336	14.574122	1.200652	-1.437550	-0.184292	2.237033
0.250	-0.324711	0.270611	647.115176	14.442967	0.814316	-1.420096	-0.125838	2.231901
0.260	-0.053667	0.295984	643.091231	14.327142	0.487815	-1.406330	-0.075855	2.227855
0.270	0.125752	0.324913	639.670383	14.220915	0.226734	-1.396548	-0.035445	2.223163
0.280	0.180998	0.347244	637.053701	14.116428	0.035395	-1.390081	-0.005556	2.215893
0.290	0.085167	0.350905	635.382706	14.007686	-0.084065	-1.385814	0.013231	2.204606
0.300	-0.172430	0.327834	634.739799	13.893375	-0.132798	-1.382708	0.020922	2.188830
0.310	-0.579050	0.276038	635.155482	13.777278	-0.116219	-1.380086	0.018298	2.169119
0.320	-1.096702	0.198241	636.615664	13.666269	-0.044678	-1.377516	0.007018	2.146706
0.330	-1.665841	0.098956	639.064705	13.566970	0.066336	-1.374428	-0.010380	2.122942
0.340	-2.213427	-0.018199	642.403101	13.482601	0.196765	-1.369779	-0.030630	2.098776
0.350	-2.664197	-0.151831	646.481350	13.411235	0.323583	-1.362086	-0.050053	2.074497
0.360	-2.954089	-0.302364	651.094082	13.345893	0.423466	-1.349833	-0.065039	2.049764
0.370	-3.043919	-0.470164	655.980902	13.276064	0.476087	-1.332053	-0.072576	2.023849
0.380	-2.929688	-0.653081	660.840455	13.189908	0.467145	-1.308764	-0.070690	1.995929
0.390	-2.644994	-0.844737	665.359515	13.076351	0.390094	-1.281076	-0.058629	1.965306
0.400	-2.252373	-1.034785	669.250536	12.926590	0.245971	-1.250988	-0.036753	1.931502
0.410	-1.824624	-1.211341	672.284744	12.734890	0.041531	-1.221003	-0.006178	1.894270
0.420	-1.422455	-1.364662	674.309386	12.498802	-0.213383	-1.193619	0.031645	1.853571
0.430	-1.077705	-1.490552	675.246746	12.219004	-0.508200	-1.170746	0.075261	1.809561
0.440	-0.789083	-1.592226	675.082085	11.898991	-0.833030	-1.153143	0.123397	1.762599
0.450	-0.530898	-1.679934	673.850945	11.544710	-1.179059	-1.140171	0.174973	1.713244
0.460	-0.268986	-1.768495	671.632654	11.164111	-1.538282	-1.130039	0.229036	1.662235
0.470	0.024069	-1.873680	668.550365	10.766467	-1.903049	-1.120471	0.284653	1.610420
0.480	0.359868	-2.008740	664.772752	10.361413	-2.265695	-1.109473	0.340823	1.558640
0.490	0.732531	-2.182047	660.510935	9.957943	-2.618242	-1.095917	0.396396	1.507612
0.500	1.122260	-2.396176	656.005965	9.563722	-2.952004	-1.079733	0.449997	1.457871
0.510	1.500841	-2.648205	651.506100	9.184943	-3.257019	-1.061731	0.499922	1.409801
0.520	1.836623	-2.930711	647.238119	8.826620	-3.521418	-1.043194	0.544068	1.363736
0.530	2.098183	-3.232937	643.381748	8.493061	-3.731146	-1.025523	0.579927	1.320066
0.540	2.256871	-3.541759	640.057868	8.188292	-3.870534	-1.010077	0.604716	1.279305
0.550	2.288579	-3.842710	637.337178	7.916100	-3.924078	-0.998173	0.615699	1.242058
0.560	2.174959	-4.121862	635.267390	7.679285	-3.879286	-0.991045	0.610654	1.208827
0.570	1.904703	-4.369184	633.907415	7.478122	-3.729861	-0.989659	0.588392	1.179687
0.580	1.476000	-4.582548	633.351181	7.308754	-3.478265	-0.994392	0.549184	1.153981
0.590	0.900961	-4.769893	633.725775	7.162700	-3.136791	-1.004716	0.494976	1.130252
0.600	0.210771	-4.947016	635.159335	7.028342	-2.726714	-1.019105	0.429296	1.106548
0.610	-0.542131	-5.130699	637.728478	6.894334	-2.275522	-1.035298	0.356817	1.081077
0.620	-1.289144	-5.329943	641.405247	6.753754	-1.812738	-1.050903	0.282620	1.052962
0.630	-1.959421	-5.539759	646.024551	6.607294	-1.365306	-1.064098	0.211340	1.022762
0.640	-2.499179	-5.740917	651.285562	6.463964	-0.953731	-1.074152	0.146438	0.992493
0.650	-2.888781	-5.906185	656.788829	6.338838	-0.590047	-1.081610	0.089838	0.965126
0.660	-3.149337	-6.010414	662.098882	6.248705	-0.278175	-1.088101	0.042014	0.943772
0.670	-3.334337	-6.040252	666.813537	6.207444	-0.016366	-1.095847	0.002454	0.930911
0.680	-3.508257	-5.999782	670.619772	6.222948	0.199349	-1.106957	-0.029726	0.927940
0.690	-3.720155	-5.910186	673.323180	6.296502	0.371982	-1.122708	-0.055246	0.935138
0.700	-3.982957	-5.803633	674.849497	6.424280	0.501605	-1.143042	-0.074328	0.951957
0.710	-4.266947	-5.713429	675.226305	6.599771	0.584928	-1.166503	-0.086627	0.977416
0.720	-4.509932	-5.663785	674.556742	6.815740	0.616314	-1.190643	-0.091366	1.010403
0.730	-4.639535	-5.662842	672.994779	7.064942	0.589829	-1.212795	-0.087642	1.049777
0.740	-4.598437	-5.701426	670.725891	7.339720	0.501681	-1.230895	-0.074797	1.094295
0.750	-4.362835	-5.757639	667.951788	7.631328	0.352250	-1.243987	-0.052736	1.142497
0.760	-3.947973	-5.804848	664.876109	7.929898	0.146992	-1.252181	-0.022108	1.192688
0.770	-3.400552	-5.819255	661.689490	8.225447	-0.104052	-1.256197	0.015725	1.243098
0.780	-2.783286	-5.784082	658.555009	8.509594	-0.387825	-1.256885	0.058890	1.292161
0.790	-2.159130	-5.690040	655.597231	8.777213	-0.690166	-1.255089	0.105273	1.338812
0.800	-1.580807	-5.534120	652.898890	9.027261	-0.997340	-1.251841	0.152756	1.382643
0.810	-1.086994	-5.318873	650.507380	9.262521	-1.296950	-1.248603	0.199375	1.423892
0.820	-0.702790	-5.052510	648.448860	9.488603	-1.578457	-1.247274	0.243420	1.463277
0.830	-0.441140	-4.748555	646.743991	9.712772	-1.833610	-1.249952	0.283514	1.501795
0.840	-0.303647	-4.424061	645.418807	9.942870	-2.056852	-1.258603	0.318685	1.540530
0.850	-0.281481	-4.097003	644.507247	10.186256	-2.245467	-1.274687	0.348401	1.580472
0.860	-0.357764	-3.784324	644.046265	10.448635	-2.399324	-1.298711	0.372539	1.622342
0.870	-0.511455	-3.501064	644.067347	10.733109	-2.520267	-1.329739	0.391305	1.666458
0.880	-0.721041	-3.259305	644.588380	11.040086	-2.611471	-1.365026	0.405138	1.712734
0.890	-0.965875	-3.065282	645.607787	11.368494	-2.677015	-1.400109	0.414650	1.760898
0.900	-1.224570	-2.914671	647.100295	11.718034	-2.721714	-1.429588	0.420602	1.810853
0.910	-1.472311	-2.788467	649.012250	12.091481	-2.750908	-1.448572	0.423861	1.863059
0.920	-1.680664	-2.652851	651.255318	12.495723	-2.769898	-1.454310	0.425317	1.918713
0.930	-1.822612	-2.465188	653.700896	12.940653	-2.782949	-1.447247	0.425722	1.979599
0.940	-1.882371	-2.185436	656.181236	13.435992	-2.792226	-1.430905	0.425527	2.047604
0.950	-1.865531	-1.789640	658.503574	13.987049	-2.797338	-1.410522	0.424802	2.124066
0.960	-1.803013	-1.280831	660.478507	14.591046	-2.796035	-1.391012	0.423335	2.209163
0.970	-1.744214	-0.692937	661.955774	15.235538	-2.786132	-1.375211	0.420894	2.301595
0.980	-1.740292	-0.085069	662.854672	15.899879	-2.767963	-1.363225	0.417582	2.398698
0.990	-1.824670	0.473222	663.177069	16.559423	-2.746253	-1.353144	0.414106	2.496984
1.000	-2.000371	0.921286	662.998267	17.190991	-2.730441	-1.342555	0.411832	2.592916
1.010	-2.240458	1.224571	662.440295	17.777665	-2.733157	-1.329890	0.412589	2.683663
1.020	-2.500664	1.383669	661.638729	18.311522	-2.767439	-1.314881	0.418270	2.767601
1.030	-2.736900	1.432680	660.715516	18.794049	-2.843779	-1.298134	0.430409	2.844499
1.040	-2.918853	1.428377	659.766213	19.234746	-2.968076	-1.280430	0.449868	2.915388
1.050	-3.034377	1.434314	658.861968	19.648591	-3.141133	-1.262402	0.476751	2.982201
1.060	-3.084941	1.504714	658.058800	20.052718	-3.359690	-1.244697	0.510546	3.047253
1.070	-3.076642	1.672256	657.404160	20.462674	-3.618320	-1.228239	0.550395	3.112647
1.080	-3.012593	1.942474	656.934484	20.888922	-3.911111	-1.214114	0.595358	3.179757
1.090	-2.890824	2.295876	656.664470	21.334627	-4.232261	-1.203002	0.644509	3.248939
1.100	-2.708360	2.696937	656.575292	21.795556	-4.575544	-1.194589	0.696880	3.319582
1.110	-2.468499	3.106970	656.611327	22.262186	-4.933438	-1.187492	0.751348	3.390466
1.120	-2.186258	3.496095	656.691090	22.723114	-5.297062	-1.179916	0.806629	3.460244
1.130	-1.887752	3.849636	656.729865	23.168234	-5.657526	-1.170687	0.861469	3.527818
1.140	-1.602723	4.166882	656.664831	23.590415	-6.008243	-1.159996	0.914963	3.592459
1.150	-1.353753	4.454136	656.472306	23.985447	-6.346910	-1.149369	0.966821	3.653687
1.160	-1.147939	4.716885	656.170443	24.351007	-6.675891	-1.140894	1.017402	3.711080
1.170	-0.975367	4.955685	655.806454	24.685791	-7.000602	-1.136218	1.067480	3.764189
1.180	-0.814839	5.167249	655.433237	24.989363	-7.326584	-1.135875	1.117823	3.812648
1.190	-0.643510	5.348567	655.084694	25.262540	-7.656612	-1.139209	1.168797	3.856378
1.200	-0.445697	5.500284	654.760273	25.507670	-7.989051	-1.144751	1.220149	3.895727
1.210	-0.217361	5.626991	654.426174	25.728397	-8.317945	-1.150740	1.271029	3.931444
1.220	0.034336	5.734794	654.033673	25.928856	-8.634575	-1.155547	1.320203	3.964453
1.230	0.294409	5.828337	653.546815	26.112559	-8.929709	-1.157925	1.366346	3.995515
1.240	0.543546	5.909130	652.966644	26.281340	-9.195782	-1.157162	1.408308	4.024913
1.250	0.760211	5.975439	652.340653	26.434764	-9.428524	-1.153169	1.445337	4.052294
1.260	0.922064	6.023044	651.753580	26.570248	-9.627843	-1.146484	1.477221	4.076732
1.270	1.008603	6.046628	651.304543	26.683863	-9.797927	-1.138145	1.504354	4.096987
1.280	1.006062	6.042294	651.080999	26.771546	-9.946540	-1.129485	1.527696	4.111861
1.290	0.913212	6.011140	651.139881	26.830249	-10.083540	-1.121862	1.548598	4.120505
1.300	0.744970	5.962009	651.501084	26.858531	-10.218918	-1.116354	1.568519	4.122561
1.310	0.530875	5.910569	652.151136	26.856250	-10.360899	-1.113406	1.588727	4.118102
1.320	0.307759	5.873414	653.050214	26.823529	-10.514696	-1.112565	1.610090	4.107422
1.330	0.108995	5.859244	654.136705	26.759599	-10.682179	-1.112565	1.633019	4.090827
1.340	-0.045249	5.861927	655.328824	26.662143	-10.862428	-1.111884	1.657554	4.068514
1.350	-0.152428	5.859930	656.527709	26.527416	-11.052850	-1.109551	1.683531	4.040563
1.360	-0.224675	5.823339	657.626848	26.351069	-11.250571	-1.105791	1.710783	4.006994
1.370	-0.279610	5.725578	658.528546	26.129363	-11.453777	-1.102126	1.739298	3.967841
1.380	-0.328867	5.554797	659.162703	25.860468	-11.662715	-1.100874	1.769323	3.923230
1.390	-0.369581	5.320526	659.500226	25.545584	-11.880027	-1.104293	1.801368	3.873476
1.400	-0.383126	5.053448	659.554808	25.189567	-12.110108	-1.113805	1.836103	3.819177
1.410	-0.342152	4.798469	659.371845	24.800586	-12.357468	-1.129672	1.874127	3.761244
1.420	-0.222901	4.602653	659.009137	24.388316	-12.624548	-1.151159	1.915686	3.700755
1.430	-0.016870	4.500512	658.517052	23.960714	-12.909870	-1.176907	1.960446	3.638587
1.440	0.263718	4.500105	657.924447	23.520432	-13.207397	-1.205156	2.007434	3.574944
1.450	0.588780	4.574575	657.233431	23.062619	-13.507457	-1.233754	2.055199	3.509045
1.460	0.919386	4.663488	656.424065	22.575457	-13.798960	-1.260194	2.102141	3.439157
1.470	1.218198	4.685474	655.468918	22.043445	-14.072084	-1.281941	2.146873	3.363004
1.480	1.457221	4.559057	654.355053	21.452257	-14.320480	-1.297007	2.188488	3.278382
1.490	1.621359	4.224976	653.107405	20.793674	-14.542337	-1.304484	2.226638	3.183806
1.500	1.708659	3.662876	651.804800	20.069424	-14.740205	-1.304784	2.261445	3.079054
1.510	1.728604	2.897699	650.580335	19.293145	-14.919910	-1.299575	2.293323	2.965528
1.520	1.698953	1.994652	649.602483	18.489712	-15.089041	-1.291514	2.322812	2.846312
1.530	1.640892	1.044576	649.040456	17.691520	-15.255460	-1.283805	2.350464	2.725796
1.540	1.572849	0.143517	649.024025	16.932071	-15.426150	-1.279530	2.376823	2.608851
1.550	1.504849	-0.628403	649.610652	16.238506	-15.606548	-1.280777	2.402446	2.499729
1.560	1.436221	-1.223216	650.769668	15.625583	-15.800315	-1.287881	2.427943	2.401093
1.570	1.358552	-1.632000	652.386020	15.093401	-16.009393	-1.299201	2.453975	2.313569
1.580	1.263061	-1.880963	654.279985	14.629700	-16.234196	-1.311623	2.481231	2.236000
1.590	1.148920	-2.019071	656.237470	14.215524	-16.473809	-1.321570	2.510343	2.166216
1.600	1.028299	-2.102353	658.045878	13.831742	-16.726228	-1.326011	2.541803	2.101942
1.610	0.925605	-2.180251	659.529632	13.464010	-16.988690	-1.323070	2.575880	2.041456
1.620	0.871469	-2.287059	660.578081	13.104911	-17.258249	-1.312176	2.612598	1.983855
1.630	0.894546	-2.438529	661.159673	12.753374	-17.532648	-1.293964	2.651802	1.928940
1.640	1.014549	-2.632285	661.319907	12.412287	-17.811340	-1.270091	2.693302	1.876896
1.650	1.238213	-2.851148	661.164207	12.085561	-18.096185	-1.242940	2.737018	1.827921
1.660	1.557824	-3.069177	660.829386	11.775830	-18.391230	-1.215088	2.783053	1.781977
1.670	1.951510	-3.259640	660.449635	11.483597	-18.701400	-1.188560	2.831616	1.738754
1.680	2.385815	-3.402742	660.125208	11.207838	-19.030621	-1.164168	2.882881	1.697835
1.690	2.822094	-3.490526	659.902349	10.947267	-19.380274	-1.141343	2.936840	1.658922
1.700	3.226796	-3.527518	659.769679	10.701177	-19.748652	-1.118699	2.993265	1.621956
1.710	3.582258	-3.527677	659.670276	10.469221	-20.131503	-1.095106	3.051752	1.587038
1.720	3.892383	-3.509546	659.523473	10.250430	-20.523171	-1.070731	3.111818	1.554218
1.730	4.179311	-3.491392	659.248858	10.042490	-20.917739	-1.047534	3.172965	1.523323
1.740	4.472304	-3.487135	658.786517	9.842207	-21.309805	-1.028966	3.234706	1.493990
1.750	4.794740	-3.503150	658.110116	9.647167	-21.694875	-1.019043	3.296542	1.465889
1.760	5.155646	-3.536376	657.231200	9.457497	-22.069589	-1.021154	3.357964	1.438991
1.770	5.548773	-3.574898	656.194364	9.276242	-22.431873	-1.037055	3.418480	1.413642
1.780	5.957745	-3.602089	655.064499	9.107660	-22.780809	-1.066286	3.477644	1.390345
1.790	6.363260	-3.603928	653.909207	8.954121	-23.115954	-1.106178	3.535040	1.369322
1.800	6.748629	-3.576777	652.781443	8.813503	-23.436112	-1.152402	3.590193	1.350146
1.810	7.102014	-3.531563	651.707980	8.678880	-23.738048	-1.199933	3.642436	1.331713
1.820	7.415965	-3.491417	650.687320	8.541037	-24.015821	-1.244161	3.690839	1.312618
1.830	7.685997	-3.483325	649.696203	8.392597	-24.261186	-1.281783	3.734235	1.291773
1.840	7.909798	-3.527718	648.700177	8.231599	-24.464923	-1.311221	3.771376	1.268937
1.850	8.087667	-3.630989	647.663767	8.062747	-24.618485	-1.332502	3.801121	1.244897
1.860	8.223524	-3.783960	646.559689	7.895856	-24.715300	-1.346791	3.822586	1.221211
1.870	8.325027	-3.966037	645.379816	7.742469	-24.751403	-1.355793	3.835168	1.199676
1.880	8.401564	-4.152305	644.149154	7.612317	-24.725572	-1.361280	3.838485	1.181763
1.890	8.460195	-4.320234	642.938994	7.511132	-24.639309	-1.364857	3.832293	1.168250
1.900	8.501192	-4.453648	641.871937	7.440295	-24.496917	-1.367961	3.816480	1.159156
1.910	8.515586	-4.543271	641.112621	7.397891	-24.305548	-1.371918	3.791151	1.153914
1.920	8.486500	-4.584762	640.843053	7.380220	-24.074927	-1.377869	3.756759	1.151642
1.930	8.394428	-4.576067	641.227226	7.383025	-23.816529	-1.386539	3.714210	1.151390
1.940	8.224697	-4.515885	642.373460	7.402203	-23.542211	-1.397951	3.664879	1.152321
1.950	7.973919	-4.404222	644.303756	7.433987	-23.262515	-1.411263	3.610489	1.153802
1.960	7.652342	-4.244854	646.938368	7.474666	-22.985031	-1.424822	3.552894	1.155391
1.970	7.280970	-4.048327	650.101078	7.520045	-22.713344	-1.436499	3.493817	1.156750
1.980	6.885175	-3.833397	653.545332	7.565195	-22.447022	-1.444217	3.434654	1.157562
1.990	6.488405	-3.625153	656.994132	7.605039	-22.182816	-1.446492	3.376410	1.157551
2.000	6.108915	-3.449660	660.181483	7.635773	-21.916706	-1.442761	3.319800	1.156617
2.010	5.759822	-3.327043	662.884205	7.656386	-21.645998	-1.433343	3.265427	1.155011
2.020	5.450553	-3.266132	664.938820	7.669334	-21.370519	-1.419126	3.213908	1.153389
2.030	5.187543	-3.263065	666.244630	7.680000	-21.092259	-1.401172	3.165843	1.152730
2.040	4.973702	-3.303913	666.757363	7.695345	-20.813600	-1.380544	3.121615	1.154145
2.050	4.807753	-3.369267	666.477926	7.722504	-20.535021	-1.358428	3.081125	1.158704
2.060	4.684597	-3.438445	665.439650	7.767761	-20.253367	-1.336391	3.043607	1.167313
2.070	4.596752	-3.492224	663.697323	7.835801	-19.961403	-1.316430	3.007606	1.180629
2.080	4.535755	-3.514453	661.322162	7.928921	-19.648744	-1.300617	2.971130	1.198950
2.090	4.492460	-3.493225	658.406388	8.045999	-19.303834	-1.290424	2.931903	1.222041
2.100	4.456159	-3.421676	655.076854	8.181484	-18.916498	-1.286070	2.887676	1.248935
2.110	4.413672	-3.298054	651.511232	8.325234	-18.480581	-1.286187	2.836571	1.277834
2.120	4.349807	-3.124945	647.947015	8.464049	-17.996053	-1.287950	2.777396	1.306287
2.130	4.249800	-2.908420	644.675396	8.585023	-17.469944	-1.287671	2.709882	1.331681
2.140	4.102819	-2.658287	642.016815	8.679479	-16.915724	-1.281766	2.634779	1.351908
2.150	3.904804	-2.390018	640.279790	8.745600	-16.351161	-1.267908	2.553753	1.365903
2.160	3.659422	-2.127368	639.709467	8.788262	-15.795161	-1.246090	2.469115	1.373790
2.170	3.377091	-1.903108	640.437381	8.816061	-15.264228	-1.219108	2.383407	1.376569
2.180	3.072566	-1.755186	642.447096	8.836956	-14.769234	-1.192070	2.298903	1.375515
2.190	2.761226	-1.717787	645.568600	8.854543	-14.313274	-1.170880	2.217158	1.371588
2.200	2.454351	-1.810123	649.506589	8.866370	-13.891373	-1.160261	2.138758	1.365093
2.210	2.154850	-2.027969	653.896416	8.864529	-13.492583	-1.162183	2.063413	1.355647
2.220	1.856044	-2.342427	658.370974	8.837748	-13.104227	-1.175364	1.990402	1.342366
2.230	1.545579	-2.707406	662.617127	8.773934	-12.717013	-1.195921	1.919210	1.324133
2.240	1.214035	-3.073187	666.404355	8.662485	-12.329053	-1.218693	1.850086	1.299884
2.250	0.864724	-3.400269	669.580455	8.496275	-11.947007	-1.238607	1.784253	1.268895
2.260	0.519510	-3.667573	672.043929	8.273465	-11.583809	-1.251638	1.723668	1.231090
2.270	0.216564	-3.872277	673.711903	7.998978	-11.253917	-1.255332	1.670435	1.187299
2.280	-0.000653	-4.023075	674.500952	7.684888	-10.967965	-1.249098	1.626086	1.139344
2.290	-0.099575	-4.131722	674.328611	7.348910	-10.728649	-1.234385	1.591012	1.089811
2.300	-0.073220	-4.207767	673.132932	7.010894	-10.529023	-1.214594	1.564182	1.041532
2.310	0.053580	-4.258603	670.901480	6.688446	-10.353594	-1.194465	1.543236	0.996934
2.320	0.230348	-4.293240	667.699779	6.393403	-10.181980	-1.178881	1.524934	0.957527
2.330	0.398275	-4.325700	663.690229	6.130534	-9.994255	-1.171398	1.505861	0.923704
2.340	0.512323	-4.374324	659.134012	5.898734	-9.776395	-1.173062	1.483218	0.894922
2.350	0.558946	-4.456128	654.370742	5.694120	-9.523865	-1.182043	1.455423	0.870167
2.360	0.561251	-4.579020	649.775371	5.513919	-9.241780	-1.194373	1.422304	0.848589
