Time[s]	Fx[N]	Fy[N]	Fz[N]	Mx[Nm]	My[Nm]	Mz[Nm]	COPx[cm]	COPy[cm]
0.010	4.189803	-0.920785	590.342106	10.243172	-2.538993	-0.219055	0.430088	1.735125
0.020	4.152643	-0.942137	590.345754	10.251896	-2.456503	-0.215900	0.416113	1.736592
0.030	4.122390	-0.968068	590.355635	10.256815	-2.377524	-0.214224	0.402727	1.737396
0.040	4.105499	-1.000811	590.371431	10.255818	-2.306009	-0.215104	0.390603	1.737181
0.050	4.106286	-1.040776	590.386484	10.249086	-2.245975	-0.218847	0.380425	1.735996
0.060	4.125885	-1.086257	590.392410	10.238771	-2.200925	-0.224869	0.372790	1.734231
0.070	4.161946	-1.133808	590.385814	10.227970	-2.172950	-0.231822	0.368056	1.732421
0.080	4.209330	-1.178968	590.372435	10.219568	-2.161858	-0.237996	0.366185	1.731037
0.090	4.261432	-1.216968	590.365538	10.215446	-2.164728	-0.241879	0.366676	1.730360
0.100	4.311600	-1.243436	590.378633	10.216341	-2.176210	-0.242649	0.368613	1.730473
0.110	4.354263	-1.255307	590.416432	10.222341	-2.189610	-0.240408	0.370859	1.731378
0.120	4.385709	-1.251772	590.469822	10.233736	-2.198424	-0.236023	0.372318	1.733151
0.130	4.404507	-1.234704	590.518472	10.251653	-2.197748	-0.230664	0.372173	1.736043
0.140	4.411580	-1.207941	590.539457	10.278071	-2.185082	-0.225273	0.370015	1.740455
0.150	4.409804	-1.175328	590.516317	10.315160	-2.160423	-0.220242	0.365853	1.746804
0.160	4.403054	-1.138310	590.443473	10.364332	-2.125763	-0.215448	0.360028	1.755347
0.170	4.394785	-1.094562	590.325299	10.425481	-2.084154	-0.210605	0.353052	1.766057
0.180	4.386616	-1.038887	590.173170	10.496784	-2.038534	-0.205685	0.345413	1.778594
0.190	4.377613	-0.966148	590.003843	10.575205	-1.990675	-0.201122	0.337400	1.792396
0.200	4.364709	-0.874581	589.838937	10.657521	-1.940684	-0.197671	0.329019	1.806853
0.210	4.344096	-0.767553	589.702407	10.741434	-1.887237	-0.196017	0.320032	1.821501
0.220	4.312834	-0.652949	589.614336	10.826200	-1.828343	-0.196378	0.310091	1.836149
0.230	4.269942	-0.540688	589.583838	10.912467	-1.762228	-0.198339	0.298894	1.850876
0.240	4.216691	-0.439771	589.606344	11.001414	-1.688074	-0.200952	0.286305	1.865891
0.250	4.156243	-0.356087	589.667697	11.093715	-1.606531	-0.203024	0.272447	1.881350
0.260	4.092939	-0.291516	589.752078	11.188900	-1.519934	-0.203469	0.257724	1.897221
0.270	4.031432	-0.244018	589.848142	11.285365	-1.432017	-0.201573	0.242777	1.913266
0.280	3.975788	-0.208309	589.949837	11.380875	-1.347063	-0.197087	0.228335	1.929126
0.290	3.928708	-0.176951	590.052811	11.473207	-1.268753	-0.190133	0.215024	1.944437
0.300	3.891230	-0.141934	590.150576	11.560640	-1.199232	-0.181055	0.203208	1.958931
0.310	3.863240	-0.096683	590.234605	11.642160	-1.138836	-0.170321	0.192946	1.972463
0.320	3.844490	-0.038055	590.299010	11.717447	-1.086488	-0.158471	0.184057	1.985002
0.330	3.835186	0.032352	590.345869	11.786735	-1.040434	-0.146061	0.176241	1.996581
0.340	3.835393	0.108265	590.385879	11.850587	-0.998932	-0.133575	0.169200	2.007261
0.350	3.843660	0.180387	590.432307	11.909567	-0.960626	-0.121374	0.162699	2.017093
0.360	3.856199	0.239147	590.491693	11.963768	-0.924611	-0.109747	0.156583	2.026069
0.370	3.867604	0.277462	590.557662	12.012405	-0.890329	-0.098991	0.150761	2.034078
0.380	3.872729	0.292456	590.612525	12.053790	-0.857542	-0.089461	0.145195	2.040897
0.390	3.868349	0.285766	590.636542	12.085876	-0.826448	-0.081505	0.139925	2.046246
0.400	3.853471	0.262704	590.619860	12.107094	-0.797789	-0.075318	0.135077	2.049896
0.410	3.828369	0.230641	590.570294	12.117043	-0.772640	-0.070770	0.130829	2.051753
0.420	3.793416	0.196967	590.512441	12.116638	-0.751804	-0.067350	0.127314	2.051885
0.430	3.748843	0.166981	590.478426	12.107745	-0.735073	-0.064328	0.124488	2.050497
0.440	3.695663	0.142394	590.494871	12.092502	-0.720851	-0.061118	0.122076	2.047859
0.450	3.636954	0.121255	590.572086	12.072693	-0.706515	-0.057603	0.119632	2.044237
0.460	3.578372	0.099608	590.699456	12.049447	-0.689459	-0.054177	0.116719	2.039861
0.470	3.527252	0.074216	590.847296	12.023344	-0.668377	-0.051469	0.113122	2.034933
0.480	3.490548	0.044900	590.973077	11.994777	-0.644175	-0.049992	0.109002	2.029665
0.490	3.472545	0.015105	591.030426	11.964312	-0.619939	-0.049972	0.104891	2.024314
0.500	3.473450	-0.009758	590.980530	11.932874	-0.599910	-0.051348	0.101511	2.019165
0.510	3.489547	-0.025393	590.804616	11.901697	-0.587932	-0.053812	0.099514	2.014490
0.520	3.514892	-0.031498	590.513348	11.872124	-0.586104	-0.056804	0.099253	2.010475
0.530	3.543743	-0.032785	590.148100	11.845299	-0.594102	-0.059593	0.100670	2.007174
0.540	3.572591	-0.037423	589.772332	11.821823	-0.609224	-0.061514	0.103298	2.004472
0.550	3.600797	-0.053641	589.456262	11.801450	-0.627061	-0.062272	0.106380	2.002091
0.560	3.629722	-0.086247	589.260547	11.782936	-0.642661	-0.062117	0.109062	1.999614
0.570	3.661128	-0.134907	589.223434	11.764195	-0.651899	-0.061734	0.110637	1.996559
0.580	3.695787	-0.194922	589.353353	11.742915	-0.652575	-0.061902	0.110727	1.992508
0.590	3.732885	-0.259679	589.627746	11.717557	-0.644833	-0.063165	0.109363	1.987280
0.600	3.770309	-0.323029	589.998480	11.688302	-0.630814	-0.065665	0.106918	1.981073
0.610	3.805584	-0.380187	590.402686	11.657375	-0.613863	-0.069168	0.103974	1.974479
0.620	3.836878	-0.427190	590.775616	11.628516	-0.597638	-0.073187	0.101162	1.968347
0.630	3.863502	-0.460099	591.061817	11.605899	-0.585274	-0.077139	0.099021	1.963568
0.640	3.885697	-0.475009	591.223129	11.593050	-0.578623	-0.080492	0.097869	1.960859
0.650	3.903981	-0.468985	591.244316	11.592162	-0.577651	-0.082886	0.097701	1.960638
0.660	3.918504	-0.441176	591.136968	11.603787	-0.580188	-0.084239	0.098148	1.962961
0.670	3.928700	-0.393385	590.939812	11.626759	-0.582292	-0.084846	0.098537	1.967503
0.680	3.933200	-0.329906	590.711920	11.658303	-0.579276	-0.085431	0.098064	1.973602
0.690	3.929969	-0.256827	590.517586	11.694524	-0.567187	-0.087081	0.096049	1.980385
0.700	3.916882	-0.181132	590.406968	11.731350	-0.544187	-0.090967	0.092172	1.986994
0.710	3.892884	-0.109785	590.400237	11.765678	-0.511257	-0.097915	0.086595	1.992831
0.720	3.859374	-0.048989	590.481732	11.796211	-0.471925	-0.107960	0.079922	1.997727
0.730	3.820905	-0.003611	590.606274	11.823602	-0.431100	-0.120097	0.072993	2.001943
0.740	3.784420	0.023451	590.715146	11.849907	-0.393474	-0.132394	0.066610	2.006027
0.750	3.757036	0.032019	590.756172	11.877601	-0.362139	-0.142526	0.061301	2.010576
0.760	3.743256	0.025012	590.701230	11.908450	-0.337904	-0.148580	0.057204	2.015985
0.770	3.743026	0.007978	590.555755	11.942572	-0.319516	-0.149775	0.054104	2.022260
0.780	3.751713	-0.012005	590.357332	11.978065	-0.304538	-0.146720	0.051585	2.028952
0.790	3.761967	-0.027633	590.163356	12.011495	-0.290424	-0.141076	0.049211	2.035283
0.800	3.766318	-0.032807	590.031046	12.039134	-0.275354	-0.134834	0.046668	2.040424
0.810	3.759347	-0.024298	589.996806	12.058447	-0.258574	-0.129612	0.043826	2.043816
0.820	3.738895	-0.003255	590.063579	12.069133	-0.240211	-0.126275	0.040709	2.045395
0.830	3.706244	0.024422	590.201801	12.073298	-0.220743	-0.124952	0.037401	2.045622
0.840	3.665346	0.049518	590.362969	12.074745	-0.200409	-0.125281	0.033947	2.045309
0.850	3.621391	0.062529	590.498534	12.077713	-0.178869	-0.126683	0.030291	2.045342
0.860	3.579327	0.057064	590.574943	12.085450	-0.155255	-0.128555	0.026289	2.046387
0.870	3.542885	0.032127	590.579513	12.099037	-0.128551	-0.130384	0.021767	2.048672
0.880	3.514288	-0.007752	590.518151	12.116958	-0.098112	-0.131820	0.016614	2.051920
0.890	3.494407	-0.054480	590.409609	12.135696	-0.064152	-0.132736	0.010866	2.055471
0.900	3.483114	-0.099368	590.280121	12.151179	-0.028093	-0.133232	0.004759	2.058545
0.910	3.479777	-0.135815	590.159019	12.160459	0.007339	-0.133608	-0.001244	2.060539
0.920	3.483961	-0.160901	590.074008	12.162798	0.038378	-0.134287	-0.006504	2.061233
0.930	3.496090	-0.175670	590.045597	12.159631	0.060842	-0.135677	-0.010311	2.060795
0.940	3.517563	-0.184357	590.082123	12.153420	0.071013	-0.138023	-0.012034	2.059615
0.950	3.549952	-0.192944	590.177423	12.146070	0.066555	-0.141350	-0.011277	2.058037
0.960	3.593558	-0.207528	590.312030	12.137776	0.047212	-0.145556	-0.007998	2.056163
0.970	3.646147	-0.232788	590.457434	12.126904	0.015039	-0.150546	-0.002547	2.053815
0.980	3.702856	-0.270692	590.582467	12.110897	-0.026046	-0.156296	0.004410	2.050670
0.990	3.757694	-0.319617	590.660613	12.087684	-0.071261	-0.162760	0.012065	2.046469
1.000	3.806019	-0.374391	590.676654	12.056828	-0.116151	-0.169723	0.019664	2.041189
1.010	3.846463	-0.427660	590.630630	12.019817	-0.157576	-0.176692	0.026679	2.035082
1.020	3.880992	-0.472189	590.537366	11.979453	-0.194299	-0.182914	0.032902	2.028568
1.030	3.913064	-0.503046	590.421135	11.938848	-0.227210	-0.187555	0.038483	2.022090
1.040	3.945233	-0.518774	590.307112	11.900664	-0.259191	-0.189964	0.043908	2.016012
1.050	3.977773	-0.521345	590.212976	11.866851	-0.294494	-0.189884	0.049896	2.010605
1.060	4.008968	-0.515117	590.144246	11.838669	-0.337626	-0.187435	0.057211	2.006064
1.070	4.036479	-0.505176	590.095182	11.816680	-0.391998	-0.182901	0.066430	2.002504
1.080	4.058701	-0.495710	590.054357	11.800600	-0.458812	-0.176528	0.077758	1.999917
1.090	4.075383	-0.489186	590.012047	11.789189	-0.536614	-0.168543	0.090950	1.998127
1.100	4.087534	-0.486678	589.966170	11.780429	-0.621699	-0.159354	0.105379	1.996797
1.110	4.097055	-0.488939	589.924342	11.772016	-0.709257	-0.149729	0.120228	1.995513
1.120	4.106456	-0.497313	589.900911	11.762017	-0.794827	-0.140746	0.134739	1.993897
1.130	4.118746	-0.513717	589.909932	11.749417	-0.875426	-0.133537	0.148400	1.991731
1.140	4.137262	-0.539745	589.957630	11.734490	-0.949846	-0.128967	0.161002	1.989039
1.150	4.165270	-0.575675	590.038904	11.718924	-1.018120	-0.127445	0.172551	1.986127
1.160	4.205348	-0.620032	590.140034	11.705582	-1.080692	-0.128876	0.183125	1.983526
1.170	4.258868	-0.669632	590.245347	11.697734	-1.137902	-0.132731	0.192785	1.981843
1.180	4.325767	-0.719726	590.343162	11.697939	-1.189971	-0.138214	0.201573	1.981549
1.190	4.404529	-0.764263	590.427785	11.707119	-1.237228	-0.144519	0.209548	1.982820
1.200	4.492202	-0.796799	590.497528	11.724403	-1.280162	-0.151080	0.216794	1.985513
1.210	4.584508	-0.812257	590.551127	11.747809	-1.319186	-0.157662	0.223382	1.989296
1.220	4.676246	-0.808925	590.585612	11.775251	-1.354293	-0.164267	0.229313	1.993826
1.230	4.762146	-0.789419	590.597508	11.805243	-1.384841	-0.170945	0.234481	1.998864
1.240	4.837949	-0.759766	590.586595	11.836937	-1.409584	-0.177681	0.238675	2.004268
1.250	4.901164	-0.727009	590.559171	11.869664	-1.426889	-0.184393	0.241617	2.009903
1.260	4.950987	-0.696712	590.528162	11.902343	-1.435065	-0.190990	0.243014	2.015542
1.270	4.987528	-0.671644	590.509994	11.933246	-1.432758	-0.197358	0.242631	2.020837
1.280	5.011013	-0.652041	590.519816	11.960341	-1.419431	-0.203272	0.240370	2.025392
1.290	5.021631	-0.637009	590.566389	11.982071	-1.395865	-0.208303	0.236360	2.028912
1.300	5.020143	-0.626142	590.647507	11.998076	-1.364440	-0.211870	0.231008	2.031343
1.310	5.008930	-0.620383	590.747352	12.009373	-1.328992	-0.213436	0.224968	2.032912
1.320	4.992772	-0.621427	590.837435	12.017803	-1.294114	-0.212771	0.219030	2.034029
1.330	4.978445	-0.629978	590.882108	12.025052	-1.264041	-0.210133	0.213924	2.035102
1.340	4.972595	-0.644239	590.848083	12.031964	-1.241372	-0.206270	0.210100	2.036389
1.350	4.978446	-0.660001	590.715236	12.038624	-1.226088	-0.202212	0.207560	2.037974
1.360	4.993083	-0.672342	590.484275	12.045070	-1.215350	-0.198934	0.205823	2.039863
1.370	5.007260	-0.677611	590.177877	12.052028	-1.204295	-0.197022	0.204056	2.042101
1.380	5.008466	-0.674402	589.835454	12.061146	-1.187591	-0.196497	0.201343	2.044832
1.390	4.986020	-0.663193	589.504831	12.074665	-1.161069	-0.196832	0.196957	2.048272
1.400	4.935570	-0.645216	589.233838	12.094802	-1.122719	-0.197109	0.190539	2.052632
1.410	4.860731	-0.621377	589.062616	12.123127	-1.072679	-0.196239	0.182099	2.058037
1.420	4.771312	-0.591806	589.016624	12.160165	-1.012452	-0.193221	0.171889	2.064486
1.430	4.679317	-0.556149	589.101502	12.205278	-0.943898	-0.187434	0.160227	2.071846
1.440	4.594663	-0.514439	589.301841	12.256780	-0.868541	-0.178900	0.147385	2.079882
1.450	4.522228	-0.468165	589.585030	12.312183	-0.787438	-0.168363	0.133558	2.088279
1.460	4.460975	-0.421053	589.909049	12.368530	-0.701449	-0.157109	0.118908	2.096684
1.470	4.405007	-0.379032	590.230794	12.422796	-0.611586	-0.146561	0.103618	2.104735
1.480	4.345863	-0.348997	590.511179	12.472324	-0.519127	-0.137817	0.087911	2.112123
1.490	4.275273	-0.336361	590.716219	12.515293	-0.425475	-0.131337	0.072027	2.118664
1.500	4.187859	-0.342217	590.817534	12.551239	-0.331879	-0.126913	0.056173	2.124385
1.510	4.083224	-0.361550	590.796731	12.581585	-0.239143	-0.123949	0.040478	2.129596
1.520	3.966679	-0.383703	590.654199	12.609906	-0.147340	-0.121904	0.024945	2.134905
1.530	3.847981	-0.395218	590.417270	12.641543	-0.055682	-0.120668	0.009431	2.141120
1.540	3.738286	-0.383967	590.140835	12.682377	0.037238	-0.120712	-0.006310	2.149043
1.550	3.646506	-0.342977	589.896635	12.737010	0.132735	-0.122928	-0.022501	2.159193
1.560	3.576642	-0.272556	589.753190	12.807001	0.231194	-0.128284	-0.039202	2.171587
1.570	3.527059	-0.180096	589.753414	12.889917	0.331685	-0.137377	-0.056241	2.185645
1.580	3.491565	-0.077771	589.899228	12.979720	0.432358	-0.150044	-0.073294	2.200328
1.590	3.461436	0.021031	590.150198	13.068541	0.531423	-0.165110	-0.090049	2.214443
1.600	3.427489	0.105314	590.437035	13.149233	0.628027	-0.180451	-0.106367	2.227034
1.610	3.381788	0.168953	590.684430	13.217562	0.722477	-0.193416	-0.122312	2.237669
1.620	3.318909	0.211389	590.834398	13.273013	0.815687	-0.201480	-0.138057	2.246486
1.630	3.236810	0.236682	590.861675	13.317916	0.908195	-0.202889	-0.153707	2.253982
1.640	3.137378	0.251482	590.776311	13.355498	0.999293	-0.197057	-0.169149	2.260669
1.650	3.026796	0.262635	590.614516	13.387919	1.086659	-0.184625	-0.183988	2.266778
1.660	2.915613	0.275018	590.423822	13.415226	1.166624	-0.167232	-0.197591	2.272135
1.670	2.817895	0.290125	590.249354	13.435579	1.234881	-0.147116	-0.209214	2.276255
1.680	2.748819	0.305639	590.124980	13.446498	1.287396	-0.126659	-0.218156	2.278585
1.690	2.720876	0.316096	590.069647	13.446403	1.321264	-0.107940	-0.223917	2.278782
1.700	2.739861	0.314546	590.087649	13.435722	1.335341	-0.092388	-0.226295	2.276903
1.710	2.802456	0.294899	590.171497	13.417087	1.330480	-0.080623	-0.225440	2.273422
1.720	2.896847	0.254372	590.306106	13.394538	1.309280	-0.072536	-0.221797	2.269083
1.730	3.006588	0.195151	590.472850	13.372107	1.275379	-0.067566	-0.215993	2.264644
1.740	3.116135	0.124391	590.652199	13.352406	1.232475	-0.065051	-0.208663	2.260621
1.750	3.215530	0.052201	590.824643	13.335904	1.183391	-0.064492	-0.200295	2.257168
1.760	3.302301	-0.011776	590.971032	13.321223	1.129565	-0.065634	-0.191137	2.254124
1.770	3.380240	-0.061734	591.074137	13.306327	1.071181	-0.068340	-0.181226	2.251211
1.780	3.456172	-0.097472	591.121907	13.289932	1.007878	-0.072359	-0.170503	2.248256
1.790	3.536252	-0.123755	591.110814	13.272309	0.939582	-0.077138	-0.158952	2.245317
1.800	3.623056	-0.147662	591.047182	13.255046	0.866952	-0.081813	-0.146681	2.242638
1.810	3.714160	-0.175184	590.945765	13.239995	0.791269	-0.085429	-0.133899	2.240475
1.820	3.802648	-0.208515	590.826175	13.228208	0.714008	-0.087289	-0.120849	2.238934
1.830	3.879603	-0.244919	590.707996	13.219553	0.636479	-0.087225	-0.107748	2.237917
1.840	3.937922	-0.277431	590.605772	13.213188	0.559622	-0.085585	-0.094754	2.237226
1.850	3.975807	-0.297178	590.525876	13.208540	0.483894	-0.082975	-0.081943	2.236742
1.860	3.998063	-0.296730	590.467101	13.206150	0.409253	-0.079958	-0.069310	2.236560
1.870	4.014302	-0.273360	590.424616	13.207833	0.335369	-0.076928	-0.056801	2.237006
1.880	4.034791	-0.230828	590.394245	13.216039	0.262104	-0.074125	-0.044395	2.238511
1.890	4.065907	-0.178539	590.373825	13.232729	0.190018	-0.071706	-0.032186	2.241415
1.900	4.107375	-0.128108	590.361423	13.258445	0.120563	-0.069800	-0.020422	2.245818
1.910	4.152531	-0.088757	590.353404	13.292151	0.055748	-0.068556	-0.009443	2.251558
1.920	4.191321	-0.063767	590.345276	13.331886	-0.002567	-0.068162	0.000435	2.258320
1.930	4.214553	-0.049697	590.334784	13.375666	-0.053316	-0.068788	0.009032	2.265776
1.940	4.217549	-0.038661	590.323687	13.421937	-0.096473	-0.070500	0.016342	2.273657
1.950	4.201946	-0.022441	590.315548	13.469349	-0.132827	-0.073214	0.022501	2.281720
1.960	4.175099	0.003688	590.310980	13.516229	-0.163475	-0.076735	0.027693	2.289679
1.970	4.147176	0.039295	590.304839	13.560385	-0.189300	-0.080800	0.032068	2.297183
1.980	4.126870	0.079887	590.288554	13.599563	-0.210685	-0.085098	0.035692	2.303884
1.990	4.117547	0.119798	590.256731	13.632334	-0.227500	-0.089277	0.038543	2.309560
2.000	4.115866	0.155092	590.213984	13.658901	-0.239224	-0.092992	0.040532	2.314229
2.010	4.113852	0.185093	590.177148	13.681289	-0.245034	-0.095997	0.041519	2.318166
2.020	4.103533	0.212159	590.169866	13.702742	-0.243908	-0.098224	0.041328	2.321830
2.030	4.081617	0.240205	590.210891	13.726594	-0.234891	-0.099807	0.039798	2.325710
2.040	4.051447	0.272597	590.302367	13.755179	-0.217540	-0.101056	0.036852	2.330192
2.050	4.021025	0.310123	590.425390	13.789224	-0.192377	-0.102385	0.032583	2.335473
2.060	3.998303	0.349868	590.545819	13.827792	-0.161075	-0.104191	0.027276	2.341527
2.070	3.986594	0.385639	590.627317	13.868622	-0.126177	-0.106682	0.021363	2.348117
2.080	3.982668	0.409957	590.645646	13.908732	-0.090370	-0.109736	0.015300	2.354835
2.090	3.978443	0.416877	590.598964	13.945234	-0.055648	-0.112879	0.009422	2.361202
2.100	3.965212	0.404561	590.510656	13.976135	-0.022873	-0.115429	0.003873	2.366788
2.110	3.938116	0.376537	590.422893	14.000809	0.007960	-0.116712	-0.001348	2.371319
2.120	3.898684	0.340962	590.381782	14.019883	0.036879	-0.116281	-0.006247	2.374715
2.130	3.854584	0.307982	590.418734	14.034606	0.063006	-0.114052	-0.010671	2.377060
2.140	3.817204	0.286150	590.535565	14.046027	0.084036	-0.110414	-0.014230	2.378523
2.150	3.798497	0.279527	590.700210	14.054385	0.096446	-0.106272	-0.016327	2.379275
2.160	3.808206	0.286864	590.855702	14.058992	0.096422	-0.102951	-0.016319	2.379429
2.170	3.851812	0.303191	590.939393	14.058579	0.081126	-0.101858	-0.013728	2.379022
2.180	3.929159	0.322701	590.905177	14.051874	0.049709	-0.103992	-0.008412	2.378025
2.190	4.033934	0.341143	590.740413	14.038132	0.003617	-0.109549	-0.000612	2.376362
2.200	4.154529	0.356503	590.471192	14.017447	-0.053827	-0.117860	0.009116	2.373943
2.210	4.276615	0.368080	590.153642	13.990826	-0.118183	-0.127665	0.020026	2.370709
2.220	4.386906	0.374885	589.854555	13.960054	-0.184643	-0.137572	0.031303	2.366694
2.230	4.476650	0.374414	589.629936	13.927399	-0.248689	-0.146474	0.042177	2.362058
2.240	4.543190	0.362385	589.510983	13.895192	-0.306786	-0.153777	0.052041	2.357071
2.250	4.588942	0.333659	589.501817	13.865254	-0.357056	-0.159376	0.060569	2.352029
2.260	4.618701	0.284266	589.586090	13.838299	-0.399616	-0.163435	0.067779	2.347121
2.270	4.637063	0.213825	589.736312	13.813579	-0.436267	-0.166098	0.073977	2.342331
2.280	4.647396	0.127081	589.921530	13.789182	-0.469649	-0.167369	0.079612	2.337460
2.290	4.652570	0.033425	590.112382	13.762999	-0.502275	-0.167232	0.085115	2.332268
2.300	4.656437	-0.055603	590.284270	13.733949	-0.535892	-0.165966	0.090785	2.326667
2.310	4.664532	-0.129707	590.418942	13.702710	-0.571246	-0.164352	0.096753	2.320845
2.320	4.683013	-0.182715	590.504262	13.671470	-0.608136	-0.163584	0.102986	2.315220
2.330	4.716094	-0.213966	590.533029	13.642764	-0.645562	-0.164844	0.109319	2.310246
2.340	4.763283	-0.227703	590.503297	13.618104	-0.681916	-0.168801	0.115481	2.306186
2.350	4.818030	-0.230670	590.421615	13.597255	-0.715221	-0.175324	0.121137	2.302974
2.360	4.868856	-0.228824	590.306926	13.578502	-0.743386	-0.183518	0.125932	2.300244
2.370	4.902771	-0.224722	590.190433	13.559635	-0.764353	-0.192017	0.129509	2.297502
2.380	4.909510	-0.216947	590.108317	13.539043	-0.776086	-0.199354	0.131516	2.294332
