Time[s]	Fx[N]	Fy[N]	Fz[N]	Mx[Nm]	My[Nm]	Mz[Nm]	COPx[cm]	COPy[cm]
0.010	-0.623362	2.965060	708.316766	1.376811	11.272534	-1.151944	-1.591454	0.194378
0.020	-0.683767	3.019649	708.060147	1.455183	11.336934	-1.133749	-1.601126	0.205517
0.030	-0.739126	3.076978	707.832829	1.534710	11.398785	-1.118470	-1.610378	0.216818
0.040	-0.786848	3.140404	707.667765	1.616892	11.456852	-1.107984	-1.618959	0.228482
0.050	-0.827955	3.212077	707.596105	1.703521	11.511663	-1.102507	-1.626869	0.240748
0.060	-0.865098	3.292144	707.639506	1.795955	11.564786	-1.100713	-1.634276	0.253795
0.070	-0.899304	3.378002	707.799920	1.894094	11.617406	-1.100396	-1.641340	0.267603
0.080	-0.927800	3.464046	708.052132	1.995706	11.669082	-1.099335	-1.648054	0.281859
0.090	-0.944466	3.542303	708.345009	2.096640	11.717429	-1.095995	-1.654198	0.295991
0.100	-0.942722	3.603896	708.614079	2.191927	11.759006	-1.089886	-1.659437	0.309326
0.110	-0.919055	3.640955	708.801977	2.277260	11.791005	-1.081513	-1.663512	0.321283
0.120	-0.875123	3.648658	708.878084	2.350197	11.812959	-1.072025	-1.666430	0.331538
0.130	-0.817611	3.627061	708.847978	2.410698	11.827629	-1.062776	-1.668571	0.340087
0.140	-0.756392	3.582279	708.748082	2.460882	11.840612	-1.055014	-1.670638	0.347215
0.150	-0.702110	3.526457	708.628570	2.504189	11.858751	-1.049734	-1.673479	0.353385
0.160	-0.663957	3.475990	708.533255	2.544221	11.887967	-1.047632	-1.677828	0.359083
0.170	-0.648057	3.447795	708.485168	2.583653	11.931287	-1.049065	-1.684056	0.364673
0.180	-0.656714	3.454301	708.481988	2.623528	11.987745	-1.054011	-1.692032	0.370303
0.190	-0.688433	3.498902	708.500734	2.663181	12.052502	-1.062051	-1.701128	0.375890
0.200	-0.738357	3.573870	708.508497	2.700863	12.118170	-1.072361	-1.710378	0.381204
0.210	-0.798865	3.661897	708.474921	2.734811	12.176920	-1.083755	-1.718751	0.386014
0.220	-0.860530	3.741116	708.382437	2.764189	12.222650	-1.094829	-1.725431	0.390211
0.230	-0.913797	3.792077	708.231687	2.789266	12.252441	-1.104234	-1.730005	0.393835
0.240	-0.951457	3.804151	708.041079	2.810660	12.266803	-1.111021	-1.732499	0.396963
0.250	-0.971218	3.778729	707.840933	2.828252	12.268799	-1.114886	-1.733271	0.399560
0.260	-0.977084	3.727738	707.664473	2.840606	12.262631	-1.116172	-1.732831	0.401406
0.270	-0.978434	3.668159	707.539303	2.845410	12.252433	-1.115689	-1.731696	0.402156
0.280	-0.986576	3.615088	707.482439	2.840611	12.241659	-1.114459	-1.730313	0.401510
0.290	-1.009841	3.576540	707.499962	2.825569	12.232909	-1.113512	-1.729033	0.399374
0.300	-1.049266	3.552152	707.590204	2.801599	12.227733	-1.113720	-1.728081	0.395935
0.310	-1.097037	3.535727	707.747704	2.771684	12.226189	-1.115639	-1.727478	0.391620
0.320	-1.138773	3.519572	707.964423	2.739488	12.226374	-1.119370	-1.726976	0.386953
0.330	-1.158799	3.498122	708.226639	2.708171	12.224439	-1.124482	-1.726063	0.382388
0.340	-1.145810	3.469475	708.510404	2.679636	12.215370	-1.130046	-1.724092	0.378207
0.350	-1.096213	3.434938	708.781042	2.654577	12.194409	-1.134846	-1.720476	0.374527
0.360	-1.014007	3.397461	708.999335	2.633147	12.158573	-1.137698	-1.714892	0.371389
0.370	-0.908281	3.359649	709.131500	2.615659	12.107695	-1.137792	-1.707398	0.368854
0.380	-0.790349	3.322003	709.157957	2.602847	12.044662	-1.134929	-1.698446	0.367034
0.390	-0.671771	3.282079	709.078123	2.595597	11.974886	-1.129556	-1.688796	0.366052
0.400	-0.563134	3.235108	708.911329	2.594390	11.905152	-1.122581	-1.679357	0.365968
0.410	-0.472834	3.175947	708.694467	2.598903	11.842105	-1.115025	-1.670975	0.366717
0.420	-0.405499	3.101719	708.475981	2.608016	11.790740	-1.107708	-1.664240	0.368116
0.430	-0.360664	3.014305	708.306014	2.620230	11.753390	-1.101132	-1.659366	0.369929
0.440	-0.332796	2.921664	708.224475	2.634310	11.729608	-1.095607	-1.656199	0.371960
0.450	-0.313271	2.836944	708.250502	2.649881	11.716940	-1.091441	-1.654350	0.374145
0.460	-0.293542	2.775075	708.376709	2.667755	11.712217	-1.088984	-1.653388	0.376601
0.470	-0.267955	2.747918	708.570465	2.689870	11.712897	-1.088417	-1.653032	0.379619
0.480	-0.235004	2.760070	708.782579	2.718833	11.717984	-1.089450	-1.653255	0.383592
0.490	-0.196910	2.807201	708.960866	2.757193	11.728251	-1.091194	-1.654288	0.388906
0.500	-0.158171	2.877483	709.063638	2.806636	11.745638	-1.092365	-1.656500	0.395823
0.510	-0.123692	2.955328	709.068745	2.867378	11.772082	-1.091781	-1.660217	0.404386
0.520	-0.096979	3.025938	708.976714	2.937975	11.808346	-1.088897	-1.665548	0.414397
0.530	-0.078977	3.079098	708.808882	3.015662	11.853412	-1.084130	-1.672300	0.425455
0.540	-0.068198	3.111035	708.601456	3.097124	11.904756	-1.078786	-1.680036	0.437076
0.550	-0.062248	3.123985	708.396222	3.179413	11.959349	-1.074592	-1.688229	0.448818
0.560	-0.059876	3.124076	708.229947	3.260590	12.014895	-1.073013	-1.696468	0.460386
0.570	-0.062128	3.118686	708.125894	3.339861	12.070785	-1.074636	-1.704610	0.471648
0.580	-0.071796	3.114183	708.090248	3.417287	12.128394	-1.078925	-1.712832	0.482606
0.590	-0.091709	3.114327	708.114086	3.493334	12.190631	-1.084446	-1.721563	0.493329
0.600	-0.123318	3.119458	708.179394	3.568532	12.260968	-1.089462	-1.731336	0.503902
0.610	-0.166666	3.126649	708.266245	3.643410	12.342351	-1.092662	-1.742615	0.514412
0.620	-0.221496	3.130978	708.358183	3.718575	12.436404	-1.093704	-1.755666	0.524957
0.630	-0.288259	3.127665	708.444586	3.794668	12.543083	-1.093348	-1.770510	0.535634
0.640	-0.367841	3.114370	708.520879	3.872090	12.660674	-1.093098	-1.786916	0.546503
0.650	-0.459887	3.092732	708.587951	3.950811	12.785978	-1.094517	-1.804431	0.557561
0.660	-0.560803	3.068374	708.650881	4.030499	12.914657	-1.098471	-1.822429	0.568757
0.670	-0.662967	3.049365	708.716090	4.110847	13.041788	-1.104680	-1.840199	0.580041
0.680	-0.756020	3.043843	708.786440	4.191725	13.162658	-1.111764	-1.857070	0.591395
0.690	-0.829835	3.057943	708.855538	4.272940	13.273628	-1.117834	-1.872543	0.602794
0.700	-0.877830	3.094810	708.904645	4.353847	13.372783	-1.121302	-1.886401	0.614165
0.710	-0.899287	3.154630	708.906295	4.433234	13.460156	-1.121549	-1.898721	0.625362
0.720	-0.899880	3.235042	708.835818	4.509751	13.537377	-1.119144	-1.909804	0.636219
0.730	-0.890279	3.331343	708.685994	4.582717	13.606800	-1.115560	-1.920004	0.646650
0.740	-0.883016	3.436454	708.475467	4.652764	13.670366	-1.112534	-1.929547	0.656729
0.750	-0.888448	3.541145	708.243674	4.721822	13.728643	-1.111371	-1.938407	0.666695
0.760	-0.911320	3.635274	708.033702	4.792309	13.780442	-1.112502	-1.946298	0.676848
0.770	-0.949726	3.710259	707.873260	4.865949	13.823182	-1.115472	-1.952776	0.687404
0.780	-0.997098	3.762060	707.765437	4.942962	13.853949	-1.119282	-1.957421	0.698390
0.790	-1.045925	3.793176	707.694261	5.022138	13.870916	-1.122816	-1.960015	0.709648
0.800	-1.090744	3.812319	707.640795	5.101713	13.874539	-1.125158	-1.960675	0.720947
0.810	-1.128723	3.831568	707.599716	5.180424	13.867874	-1.125704	-1.959847	0.732112
0.820	-1.158125	3.862229	707.586639	5.258027	13.855631	-1.124149	-1.958153	0.743093
0.830	-1.176435	3.911211	707.631646	5.334993	13.842350	-1.120415	-1.956152	0.753922
0.840	-1.179775	3.979264	707.761968	5.411714	13.830607	-1.114562	-1.954132	0.764623
0.850	-1.163860	4.061289	707.982948	5.487828	13.820229	-1.106735	-1.952057	0.775136
0.860	-1.125579	4.148229	708.267853	5.562125	13.808922	-1.097153	-1.949675	0.785314
0.870	-1.064187	4.229830	708.562744	5.633097	13.793917	-1.086192	-1.946746	0.795003
0.880	-0.981767	4.297773	708.804378	5.699887	13.773797	-1.074520	-1.943244	0.804155
0.890	-0.883169	4.348496	708.941976	5.763094	13.749600	-1.063188	-1.939454	0.812915
0.900	-0.775714	4.384657	708.952390	5.824886	13.724747	-1.053567	-1.935919	0.821619
0.910	-0.668762	4.414280	708.843660	5.888275	13.703877	-1.047054	-1.933272	0.830687
0.920	-0.572994	4.447658	708.649285	5.955941	13.691200	-1.044654	-1.932013	0.840464
0.930	-0.499234	4.493343	708.418663	6.029338	13.689076	-1.046591	-1.932343	0.851098
0.940	-0.456735	4.555037	708.207241	6.108471	13.697390	-1.052100	-1.934093	0.862526
0.950	-0.450924	4.630492	708.066801	6.192332	13.713845	-1.059519	-1.936801	0.874541
0.960	-0.480907	4.712667	708.035385	6.279592	13.734904	-1.066664	-1.939861	0.886904
0.970	-0.537735	4.792694	708.127998	6.369168	13.756794	-1.071412	-1.942699	0.899437
0.980	-0.604930	4.863741	708.331073	6.460390	13.776161	-1.072291	-1.944876	0.912058
0.990	-0.662165	4.924201	708.603460	6.552704	13.790294	-1.068853	-1.946123	0.924735
1.000	-0.691263	4.978390	708.884430	6.645052	13.797188	-1.061719	-1.946324	0.937396
1.010	-0.682090	5.033895	709.106901	6.735267	13.795642	-1.052289	-1.945495	0.949824
1.020	-0.635646	5.096775	709.213057	6.819863	13.785447	-1.042305	-1.943767	0.961610
1.030	-0.562995	5.167322	709.169311	6.894510	13.767575	-1.033416	-1.941366	0.972195
1.040	-0.480895	5.238768	708.976983	6.955151	13.744288	-1.026867	-1.938608	0.981012
1.050	-0.406407	5.299405	708.674936	6.999304	13.719053	-1.023354	-1.935874	0.987661
1.060	-0.352639	5.336868	708.331702	7.026877	13.696111	-1.023064	-1.933573	0.992032
1.070	-0.326550	5.342706	708.027618	7.040017	13.679596	-1.025867	-1.932071	0.994314
1.080	-0.328649	5.315505	707.831168	7.042075	13.672378	-1.031532	-1.931587	0.994881
1.090	-0.354024	5.261357	707.777121	7.036199	13.675100	-1.039834	-1.932119	0.994126
1.100	-0.394241	5.191373	707.855371	7.024155	13.685919	-1.050470	-1.933434	0.992315
1.110	-0.439796	5.117272	708.016582	7.005788	13.701194	-1.062880	-1.935152	0.989495
1.120	-0.482661	5.047163	708.193432	6.979250	13.716884	-1.076178	-1.936884	0.985501
1.130	-0.518183	4.983496	708.328186	6.941980	13.730088	-1.089293	-1.938380	0.980051
1.140	-0.545609	4.923921	708.393500	6.892103	13.740024	-1.101266	-1.939603	0.972920
1.150	-0.567083	4.864143	708.396818	6.829607	13.747984	-1.111541	-1.940718	0.964093
1.160	-0.585658	4.800956	708.367996	6.756659	13.756344	-1.120101	-1.941977	0.953835
1.170	-0.603341	4.733824	708.339061	6.676870	13.767170	-1.127398	-1.943585	0.942609
1.180	-0.620125	4.664369	708.328087	6.593986	13.781223	-1.134103	-1.945599	0.930923
1.190	-0.634384	4.594252	708.334567	6.510794	13.797877	-1.140750	-1.947932	0.919169
1.200	-0.644184	4.522887	708.345629	6.428693	13.815795	-1.147422	-1.950431	0.907564
1.210	-0.648554	4.446613	708.347041	6.347826	13.833763	-1.153666	-1.952964	0.896146
1.220	-0.648035	4.360116	708.332394	6.267359	13.851066	-1.158682	-1.955447	0.884805
1.230	-0.644408	4.259377	708.306369	6.185630	13.867301	-1.161696	-1.957811	0.873299
1.240	-0.639901	4.144371	708.281203	6.100286	13.881966	-1.162330	-1.959951	0.861280
1.250	-0.636200	4.019896	708.268662	6.008596	13.894295	-1.160805	-1.961727	0.848350
1.260	-0.633579	3.894097	708.272434	5.907935	13.903508	-1.157912	-1.963017	0.834133
1.270	-0.630448	3.775398	708.285872	5.796256	13.909337	-1.154754	-1.963803	0.818350
1.280	-0.623553	3.669199	708.296879	5.672406	13.912458	-1.152419	-1.964213	0.800851
1.290	-0.608839	3.575500	708.297237	5.536303	13.914471	-1.151692	-1.964496	0.781636
1.300	-0.582781	3.488077	708.290698	5.388937	13.917361	-1.152932	-1.964922	0.760837
1.310	-0.543799	3.395560	708.294150	5.232055	13.922638	-1.156103	-1.965658	0.738684
1.320	-0.493291	3.284447	708.329813	5.067502	13.930546	-1.160879	-1.966675	0.715416
1.330	-0.435805	3.143439	708.412527	4.896566	13.939688	-1.166750	-1.967736	0.691203
1.340	-0.378022	2.967697	708.540342	4.719780	13.947252	-1.173091	-1.968449	0.666127
1.350	-0.326763	2.761414	708.694331	4.537319	13.949870	-1.179219	-1.968390	0.640236
1.360	-0.286871	2.537643	708.846565	4.349739	13.944930	-1.184429	-1.967271	0.613636
1.370	-0.260057	2.315216	708.970161	4.158704	13.931926	-1.188055	-1.965093	0.586584
1.380	-0.245279	2.113642	709.045952	3.967403	13.913230	-1.189573	-1.962247	0.559541
1.390	-0.240265	1.947693	709.064368	3.780557	13.893718	-1.188773	-1.959444	0.533175
1.400	-0.243131	1.823583	709.024622	3.603924	13.879238	-1.185901	-1.957511	0.508293
1.410	-0.253206	1.737977	708.933650	3.443389	13.874510	-1.181664	-1.957096	0.485714
1.420	-0.270969	1.679984	708.805158	3.303863	13.881421	-1.177025	-1.958426	0.466117
1.430	-0.297459	1.635217	708.657474	3.188373	13.898443	-1.172860	-1.961236	0.449917
1.440	-0.333400	1.590502	708.509796	3.097688	13.921353	-1.169628	-1.964878	0.437212
1.450	-0.378058	1.537716	708.378238	3.030554	13.944825	-1.167153	-1.968556	0.427816
1.460	-0.428070	1.475658	708.273318	2.984348	13.964183	-1.164624	-1.971581	0.421355
1.470	-0.476993	1.409651	708.199231	2.955929	13.976759	-1.160861	-1.973563	0.417387
1.480	-0.516458	1.349349	708.154350	2.942460	13.982497	-1.154813	-1.974498	0.415511
1.490	-0.539047	1.305699	708.132621	2.941993	13.983647	-1.146117	-1.974721	0.415458
1.500	-0.541608	1.287955	708.125848	2.953764	13.983585	-1.135439	-1.974732	0.417124
1.510	-0.526971	1.301387	708.126293	2.978252	13.985130	-1.124357	-1.974949	0.420582
1.520	-0.502780	1.346184	708.128353	3.017038	13.989120	-1.114770	-1.975506	0.426058
1.530	-0.478026	1.417900	708.128402	3.072298	13.993970	-1.108102	-1.976191	0.433862
1.540	-0.459308	1.509491	708.123386	3.145858	13.996519	-1.104679	-1.976565	0.444253
1.550	-0.448869	1.614220	708.110103	3.238180	13.993672	-1.103541	-1.976200	0.457299
1.560	-0.445057	1.728122	708.086966	3.348001	13.983920	-1.102719	-1.974887	0.472823
1.570	-0.444164	1.850801	708.058002	3.473049	13.967977	-1.099868	-1.972716	0.490503
1.580	-0.442127	1.984223	708.036159	3.611429	13.948365	-1.093057	-1.970007	0.510063
1.590	-0.435418	2.130346	708.041885	3.762677	13.928317	-1.081469	-1.967160	0.531420
1.600	-0.421623	2.289035	708.095130	3.927639	13.910650	-1.065719	-1.964517	0.554677
1.610	-0.400289	2.457398	708.203617	4.107158	13.897171	-1.047603	-1.962313	0.579940
1.620	-0.373787	2.630773	708.354146	4.300391	13.888717	-1.029382	-1.960702	0.607096
1.630	-0.347199	2.804658	708.513292	4.503784	13.885494	-1.012920	-1.959807	0.635667
1.640	-0.326639	2.976464	708.638656	4.711382	13.887293	-0.999053	-1.959714	0.664850
1.650	-0.316578	3.146098	708.695145	4.916374	13.893554	-0.987471	-1.960442	0.693722
1.660	-0.317674	3.314981	708.667818	5.113109	13.903474	-0.977109	-1.961917	0.721510
1.670	-0.326454	3.483935	708.565546	5.298552	13.916290	-0.966850	-1.964009	0.747786
1.680	-0.337139	3.651150	708.415633	5.472448	13.931617	-0.956148	-1.966588	0.772491
1.690	-0.344685	3.811573	708.254007	5.636216	13.949683	-0.945258	-1.969588	0.795790
1.700	-0.347395	3.958173	708.116018	5.791241	13.971376	-0.935024	-1.973035	0.817838
1.710	-0.347707	4.084297	708.030022	5.937552	13.998141	-0.926417	-1.977055	0.838602
1.720	-0.350867	4.185732	708.013095	6.073535	14.031706	-0.920153	-1.981843	0.857828
1.730	-0.362347	4.261651	708.067862	6.196653	14.073659	-0.916554	-1.987614	0.875150
1.740	-0.385353	4.314551	708.181027	6.304566	14.124904	-0.915663	-1.994533	0.890248
1.750	-0.419531	4.349742	708.325478	6.395938	14.185195	-0.917487	-2.002638	0.902966
1.760	-0.461434	4.374650	708.466694	6.470676	14.252918	-0.922169	-2.011798	0.913335
1.770	-0.506640	4.397666	708.571477	6.529863	14.325233	-0.930006	-2.021706	0.921553
1.780	-0.552589	4.426369	708.615673	6.575742	14.398519	-0.941285	-2.031922	0.927970
1.790	-0.600529	4.465505	708.588842	6.611792	14.468987	-0.956004	-2.041944	0.933093
1.800	-0.655235	4.515570	708.495588	6.642618	14.533320	-0.973608	-2.051293	0.937567
1.810	-0.722421	4.572759	708.353702	6.673380	14.589272	-0.992902	-2.059603	0.942097
1.820	-0.805216	4.630505	708.189594	6.708844	14.636093	-1.012235	-2.066691	0.947323
1.830	-0.901648	4.682118	708.032256	6.752398	14.674614	-1.029922	-2.072591	0.953685
1.840	-1.004333	4.723268	707.907126	6.805394	14.706789	-1.044777	-2.077503	0.961340
1.850	-1.102417	4.752951	707.830890	6.867008	14.734820	-1.056528	-2.081686	0.970148
1.860	-1.184827	4.772597	707.808322	6.934628	14.760153	-1.065933	-2.085332	0.979733
1.870	-1.243589	4.784442	707.832253	7.004635	14.782812	-1.074499	-2.088463	0.989590
1.880	-1.276041	4.790663	707.886699	7.073331	14.801337	-1.083864	-2.090919	0.999218
1.890	-1.285204	4.793631	707.951662	7.137685	14.813413	-1.095145	-2.092433	1.008216
1.900	-1.278229	4.796471	708.008014	7.195614	14.816934	-1.108529	-2.092764	1.016318
1.910	-1.263418	4.802926	708.041867	7.245733	14.810981	-1.123255	-2.091823	1.023348
1.920	-1.246761	4.816252	708.048289	7.286880	14.796188	-1.137889	-2.089715	1.029150
1.930	-1.229220	4.837612	708.033390	7.317875	14.774296	-1.150744	-2.086667	1.033549
1.940	-1.206053	4.864706	708.013354	7.337756	14.747152	-1.160296	-2.082892	1.036387
1.950	-1.168745	4.891402	708.010004	7.346432	14.715674	-1.165542	-2.078456	1.037617
1.960	-1.108877	4.908870	708.044269	7.345388	14.679227	-1.166239	-2.073207	1.037419
1.970	-1.022292	4.908282	708.129708	7.337914	14.635649	-1.162972	-2.066803	1.036239
1.980	-0.911811	4.884393	708.267874	7.328603	14.581996	-1.157011	-2.058825	1.034722
1.990	-0.787527	4.838613	708.446882	7.322229	14.515859	-1.150012	-2.048969	1.033561
2.000	-0.664676	4.779943	708.644247	7.322510	14.436771	-1.143651	-2.037238	1.033313
2.010	-0.559725	4.722842	708.833546	7.331183	14.346985	-1.139330	-2.024027	1.034260
2.020	-0.485658	4.682568	708.991796	7.347609	14.251021	-1.137991	-2.010040	1.036346
2.030	-0.447700	4.669854	709.103666	7.368943	14.154105	-1.140028	-1.996056	1.039191
2.040	-0.441054	4.687208	709.161366	7.390790	14.060274	-1.145269	-1.982662	1.042187
2.050	-0.452018	4.728292	709.162478	7.408146	13.971182	-1.153027	-1.970096	1.044633
2.060	-0.462470	4.780348	709.108525	7.416337	13.886121	-1.162222	-1.958250	1.045868
2.070	-0.455936	4.828455	709.005196	7.411652	13.803027	-1.171572	-1.946816	1.045359
2.080	-0.422443	4.859962	708.863387	7.391608	13.719808	-1.179818	-1.935466	1.042741
2.090	-0.360258	4.867667	708.699843	7.354920	13.635370	-1.185970	-1.923998	1.037805
2.100	-0.274528	4.850700	708.536045	7.301370	13.550102	-1.189496	-1.912408	1.030487
2.110	-0.174487	4.812890	708.394651	7.231730	13.465777	-1.190421	-1.900886	1.020862
2.120	-0.071079	4.759593	708.294727	7.147753	13.385059	-1.189293	-1.889758	1.009150
2.130	0.024305	4.694874	708.248599	7.052147	13.310827	-1.186999	-1.879400	0.995716
2.140	0.100687	4.620498	708.262016	6.948355	13.245551	-1.184461	-1.870148	0.981043
2.150	0.149121	4.536774	708.336078	6.840024	13.190787	-1.182292	-1.862221	0.965647
2.160	0.165236	4.444080	708.467526	6.730174	13.146813	-1.180576	-1.855669	0.949962
2.170	0.151429	4.343939	708.645679	6.620307	13.112488	-1.178891	-1.850359	0.934220
2.180	0.117005	4.239257	708.848156	6.509847	13.085482	-1.176593	-1.846020	0.918370
2.190	0.075601	4.133791	709.039593	6.396259	13.062939	-1.173265	-1.842343	0.902102
2.200	0.040787	4.031016	709.176433	6.275950	13.042370	-1.169095	-1.839087	0.884963
2.210	0.021645	3.932705	709.217809	6.145731	13.022333	-1.164955	-1.836154	0.866551
2.220	0.019984	3.837954	709.139081	6.004253	13.002593	-1.162137	-1.833574	0.846696
2.230	0.030148	3.743480	708.942281	5.852724	12.983804	-1.161865	-1.831433	0.825557
2.240	0.041431	3.645395	708.657959	5.694572	12.967064	-1.164777	-1.829806	0.803571
2.250	0.042292	3.541650	708.336282	5.534287	12.953615	-1.170581	-1.828738	0.781308
2.260	0.024832	3.433667	708.030410	5.376123	12.944705	-1.178034	-1.828270	0.759307
2.270	-0.012161	3.326192	707.779777	5.223203	12.941450	-1.185277	-1.828457	0.737970
2.280	-0.062645	3.225502	707.601507	5.077282	12.944535	-1.190386	-1.829354	0.717534
2.290	-0.115320	3.137015	707.493586	4.939026	12.953830	-1.191894	-1.830947	0.698102
2.300	-0.157502	3.063436	707.446647	4.808599	12.968183	-1.189092	-1.833097	0.679712
2.310	-0.179644	3.004173	707.456703	4.686267	12.985637	-1.182092	-1.835538	0.662410
2.320	-0.178913	2.956172	707.531239	4.572839	13.004078	-1.171708	-1.837951	0.646309
2.330	-0.160284	2.915792	707.685042	4.469755	13.022003	-1.159248	-1.840084	0.631602
2.340	-0.134524	2.880855	707.927939	4.378781	13.039046	-1.146253	-1.841861	0.618535
2.350	-0.113837	2.851960	708.251097	4.301448	13.056064	-1.134175	-1.843423	0.607334
2.360	-0.107037	2.832531	708.619845	4.238472	13.074784	-1.124030	-1.845106	0.598131
2.370	-0.116389	2.827638	708.978467	4.189400	13.097185	-1.116095	-1.847332	0.590906
