Time[s]	Fx[N]	Fy[N]	Fz[N]	Mx[Nm]	My[Nm]	Mz[Nm]	COPx[cm]	COPy[cm]
0.010	3.021060	3.106787	629.557423	6.352163	20.384347	-1.489782	-3.237885	1.008989
0.020	3.046500	3.101287	629.388331	6.380532	20.437010	-1.487719	-3.247122	1.013767
0.030	3.058344	3.096074	629.229659	6.408041	20.488614	-1.486426	-3.256142	1.018395
0.040	3.046544	3.089934	629.090101	6.434696	20.539018	-1.486285	-3.264877	1.022858
0.050	3.006957	3.081424	628.978980	6.461564	20.589444	-1.487064	-3.273471	1.027310
0.060	2.941912	3.070193	628.904416	6.490284	20.642357	-1.488074	-3.282273	1.031998
0.070	2.858651	3.057946	628.869646	6.522263	20.700952	-1.488581	-3.291772	1.037141
0.080	2.766266	3.048056	628.869134	6.558066	20.768445	-1.488233	-3.302507	1.042835
0.090	2.672363	3.043978	628.887627	6.597233	20.847294	-1.487225	-3.314947	1.049032
0.100	2.580867	3.047530	628.904702	6.638472	20.938406	-1.486128	-3.329345	1.055561
0.110	2.491662	3.058241	628.903942	6.680064	21.040505	-1.485529	-3.345583	1.062176
0.120	2.401893	3.074222	628.881644	6.720416	21.149968	-1.485724	-3.363108	1.068630
0.130	2.308178	3.093908	628.848943	6.758621	21.261360	-1.486653	-3.380996	1.074761
0.140	2.208921	3.117397	628.825114	6.794778	21.368593	-1.488087	-3.398177	1.080551
0.150	2.105885	3.146332	628.825660	6.829850	21.466252	-1.489892	-3.413705	1.086128
0.160	2.004360	3.182139	628.852243	6.865167	21.550667	-1.492154	-3.426984	1.091698
0.170	1.911762	3.223668	628.890252	6.901897	21.620493	-1.495057	-3.437880	1.097472
0.180	1.835237	3.265999	628.915366	6.940752	21.676711	-1.498597	-3.446682	1.103607
0.190	1.779344	3.301659	628.905501	6.981979	21.722078	-1.502340	-3.453949	1.110179
0.200	1.744752	3.323823	628.852099	7.025527	21.760183	-1.505449	-3.460302	1.117199
0.210	1.728365	3.329788	628.765267	7.071147	21.794435	-1.507006	-3.466228	1.124608
0.220	1.724494	3.322746	628.670087	7.118306	21.827261	-1.506445	-3.471974	1.132280
0.230	1.726285	3.310753	628.595106	7.165955	21.859671	-1.503860	-3.477544	1.139995
0.240	1.726824	3.303163	628.557761	7.212320	21.891215	-1.500002	-3.482769	1.147439
0.250	1.719952	3.306313	628.553712	7.254962	21.920255	-1.495975	-3.487412	1.154231
0.260	1.701095	3.320842	628.556259	7.291341	21.944462	-1.492818	-3.491249	1.160014
0.270	1.668236	3.342296	628.527698	7.319863	21.961426	-1.491188	-3.494106	1.164605
0.280	1.622794	3.364566	628.438137	7.340956	21.969248	-1.491266	-3.495849	1.168127
0.290	1.569939	3.383940	628.282539	7.357418	21.967112	-1.492862	-3.496375	1.171036
0.300	1.517843	3.401265	628.086937	7.373648	21.955762	-1.495566	-3.495657	1.173985
0.310	1.475746	3.421212	627.900124	7.394036	21.937748	-1.498869	-3.493828	1.177582
0.320	1.451439	3.449445	627.774983	7.421288	21.917129	-1.502269	-3.491240	1.182157
0.330	1.449411	3.489469	627.749363	7.455426	21.898535	-1.505354	-3.488420	1.187644
0.340	1.470685	3.540613	627.835887	7.493768	21.885754	-1.507850	-3.485904	1.193587
0.350	1.514262	3.597701	628.023027	7.531808	21.880325	-1.509613	-3.484001	1.199288
0.360	1.578930	3.652250	628.282123	7.564558	21.880719	-1.510577	-3.482626	1.204007
0.370	1.663932	3.694817	628.573741	7.587934	21.882515	-1.510657	-3.481296	1.207167
0.380	1.767858	3.718068	628.851803	7.599824	21.879606	-1.509615	-3.479294	1.208524
0.390	1.886617	3.719762	629.068940	7.600600	21.866013	-1.506996	-3.475933	1.208230
0.400	2.012319	3.704438	629.186055	7.592954	21.837720	-1.502227	-3.470789	1.206790
0.410	2.134438	3.682682	629.184549	7.581138	21.793990	-1.494895	-3.463847	1.204915
0.420	2.242992	3.667831	629.075508	7.569865	21.737812	-1.485065	-3.455517	1.203332
0.430	2.332057	3.671335	628.899844	7.563248	21.675333	-1.473462	-3.446548	1.202616
0.440	2.401744	3.698799	628.717128	7.564034	21.614359	-1.461419	-3.437851	1.203090
0.450	2.457767	3.748329	628.586255	7.573272	21.562319	-1.450563	-3.430288	1.204810
0.460	2.509090	3.811601	628.545404	7.590314	21.524247	-1.442346	-3.424454	1.207600
0.470	2.564966	3.876757	628.599849	7.612971	21.501388	-1.437582	-3.420521	1.211100
0.480	2.632668	3.931674	628.723095	7.637830	21.490853	-1.436250	-3.418175	1.214816
0.490	2.716331	3.966424	628.870571	7.660911	21.486433	-1.437622	-3.416670	1.218201
0.500	2.816412	3.974676	628.998958	7.678692	21.480372	-1.440614	-3.415009	1.220780
0.510	2.929234	3.954528	629.081694	7.689213	21.465664	-1.444099	-3.412222	1.222292
0.520	3.046805	3.909225	629.113913	7.692723	21.438282	-1.447030	-3.407695	1.222787
0.530	3.157690	3.847454	629.106640	7.691549	21.398581	-1.448483	-3.401423	1.222614
0.540	3.249456	3.782316	629.076177	7.689249	21.351307	-1.447805	-3.394073	1.222308
0.550	3.312229	3.728425	629.035741	7.689474	21.304086	-1.444915	-3.386785	1.222422
0.560	3.342020	3.697884	628.992819	7.695002	21.264981	-1.440565	-3.380799	1.223385
0.570	3.342161	3.696850	628.951070	7.707186	21.240103	-1.436326	-3.377068	1.225403
0.580	3.321819	3.724257	628.913407	7.725816	21.232186	-1.434217	-3.376011	1.228439
0.590	3.292012	3.772929	628.883492	7.749269	21.240526	-1.436114	-3.377498	1.232226
0.600	3.261028	3.832069	628.864596	7.774861	21.262056	-1.443194	-3.381023	1.236333
0.610	3.231559	3.889856	628.856898	7.799323	21.292831	-1.455592	-3.385958	1.240238
0.620	3.200925	3.935630	628.855798	7.819405	21.329226	-1.472314	-3.391752	1.243434
0.630	3.164114	3.961807	628.853341	7.832598	21.368573	-1.491390	-3.398022	1.245536
0.640	3.117922	3.965510	628.842199	7.837803	21.409353	-1.510249	-3.404567	1.246386
0.650	3.063859	3.949366	628.819381	7.835609	21.451121	-1.526267	-3.411333	1.246083
0.660	3.008011	3.920794	628.787430	7.827961	21.494203	-1.537375	-3.418358	1.244930
0.670	2.957787	3.889714	628.753203	7.817331	21.539139	-1.542552	-3.425691	1.243307
0.680	2.917518	3.865390	628.725513	7.805731	21.586041	-1.542071	-3.433301	1.241517
0.690	2.885733	3.853577	628.712507	7.793884	21.634236	-1.537443	-3.441038	1.239658
0.700	2.855736	3.855064	628.719324	7.780791	21.682444	-1.531050	-3.448668	1.237562
0.710	2.818832	3.866074	628.746693	7.763857	21.729389	-1.525500	-3.455985	1.234815
0.720	2.767977	3.880062	628.790868	7.739623	21.774491	-1.522838	-3.462915	1.230874
0.730	2.699936	3.889925	628.844760	7.705007	21.818322	-1.523898	-3.469588	1.225264
0.740	2.615488	3.889771	628.899781	7.658683	21.862609	-1.528097	-3.476326	1.217791
0.750	2.518405	3.876052	628.947686	7.602035	21.909821	-1.533769	-3.483568	1.208691
0.760	2.414069	3.848223	628.981740	7.539131	21.962462	-1.538867	-3.491749	1.198625
0.770	2.308080	3.808873	628.996846	7.475548	22.022265	-1.541726	-3.501173	1.188487
0.780	2.204896	3.762985	628.989160	7.416476	22.089469	-1.541625	-3.511900	1.179110
0.790	2.106765	3.716290	628.956530	7.365049	22.162439	-1.538973	-3.523684	1.170995
0.800	2.013469	3.673279	628.900493	7.321720	22.237867	-1.535087	-3.535991	1.164210
0.810	1.923198	3.635821	628.828414	7.284909	22.311616	-1.531649	-3.548125	1.158489
0.820	1.834270	3.602923	628.753104	7.252383	22.379864	-1.530049	-3.559404	1.153455
0.830	1.746882	3.571665	628.688666	7.222426	22.439998	-1.530873	-3.569334	1.148808
0.840	1.663834	3.538841	628.644393	7.194146	22.490858	-1.533720	-3.577676	1.144390
0.850	1.589477	3.502684	628.620680	7.166924	22.532428	-1.537422	-3.584424	1.140103
0.860	1.527117	3.463973	628.610226	7.139695	22.565354	-1.540583	-3.589721	1.135791
0.870	1.476426	3.426084	628.604412	7.110752	22.590639	-1.542221	-3.593777	1.131197
0.880	1.432824	3.393968	628.601140	7.078289	22.609610	-1.542227	-3.596813	1.126038
0.890	1.389598	3.372429	628.609102	7.041267	22.623953	-1.541395	-3.599050	1.120134
0.900	1.341464	3.364296	628.645186	6.999929	22.635560	-1.541006	-3.600689	1.113494
0.910	1.287278	3.369187	628.725595	6.955566	22.646032	-1.542163	-3.601894	1.106296
0.920	1.230504	3.383553	628.855064	6.909672	22.655972	-1.545241	-3.602734	1.098770
0.930	1.177817	3.402137	629.019870	6.863074	22.664390	-1.549720	-3.603128	1.091074
0.940	1.137142	3.420162	629.188389	6.815711	22.668573	-1.554459	-3.602828	1.083254
0.950	1.116036	3.435014	629.319369	6.767268	22.664575	-1.558191	-3.601442	1.075331
0.960	1.120564	3.446542	629.374770	6.718137	22.648216	-1.559947	-3.598526	1.067430
0.970	1.154433	3.456047	629.332032	6.669837	22.616292	-1.559256	-3.593698	1.059828
0.980	1.218131	3.464820	629.190622	6.624422	22.567558	-1.556096	-3.586760	1.052848
0.990	1.308141	3.473105	628.970414	6.583228	22.503115	-1.550715	-3.577770	1.046667
1.000	1.416795	3.479765	628.703655	6.545853	22.425954	-1.543451	-3.567015	1.041167
1.010	1.533538	3.482537	628.425160	6.510070	22.339773	-1.534660	-3.554882	1.035934
1.020	1.647644	3.478817	628.165444	6.472752	22.247553	-1.524803	-3.541671	1.030421
1.030	1.751350	3.466770	627.949260	6.431310	22.150612	-1.514584	-3.527453	1.024177
1.040	1.841823	3.446187	627.798662	6.385011	22.048626	-1.504958	-3.512054	1.017048
1.050	1.921126	3.418398	627.736529	6.335545	21.940632	-1.496877	-3.495198	1.009268
1.060	1.994545	3.385223	627.785733	6.286520	21.826422	-1.490871	-3.476731	1.001380
1.070	2.068416	3.347830	627.962113	6.241907	21.707514	-1.486709	-3.456819	0.993994
1.080	2.148396	3.306419	628.263922	6.204021	21.587123	-1.483439	-3.435996	0.987486
1.090	2.238653	3.260937	628.663363	6.172050	21.469145	-1.479803	-3.415046	0.981773
1.100	2.341916	3.212166	629.105860	6.141994	21.356697	-1.474841	-3.394770	0.976305
1.110	2.459930	3.162356	629.519819	6.108196	21.250966	-1.468346	-3.375742	0.970294
1.120	2.593596	3.115000	629.834695	6.065843	21.150957	-1.460997	-3.358176	0.963085
1.130	2.742264	3.073988	630.000705	6.013308	21.054288	-1.454108	-3.341947	0.954492
1.140	2.902435	3.042833	630.002616	5.953252	20.958707	-1.449055	-3.326765	0.944957
1.150	3.066867	3.024296	629.863185	5.891899	20.863656	-1.446646	-3.312411	0.935425
1.160	3.225113	3.019943	629.636058	5.836680	20.771215	-1.446751	-3.298924	0.926993
1.170	3.365574	3.029128	629.390691	5.793233	20.685931	-1.448403	-3.286660	0.920451
1.180	3.478259	3.047899	629.193213	5.763064	20.613438	-1.450308	-3.276170	0.915945
1.190	3.557147	3.069052	629.088166	5.742858	20.558271	-1.451459	-3.267947	0.912886
1.200	3.601422	3.083956	629.086410	5.725658	20.521786	-1.451531	-3.262157	0.910154
1.210	3.615445	3.085399	629.163503	5.703330	20.501212	-1.450910	-3.258487	0.906494
1.220	3.607697	3.070082	629.270055	5.669261	20.490411	-1.450401	-3.256219	0.900927
1.230	3.588978	3.039594	629.351027	5.620265	20.482055	-1.450831	-3.254472	0.893025
1.240	3.570132	2.999498	629.366656	5.557101	20.470232	-1.452719	-3.252513	0.882967
1.250	3.559742	2.956934	629.306560	5.483663	20.452331	-1.456082	-3.249979	0.871382
1.260	3.562331	2.917937	629.191518	5.405382	20.429459	-1.460387	-3.246938	0.859100
1.270	3.577411	2.885751	629.062711	5.327544	20.405386	-1.464648	-3.243776	0.846902
1.280	3.599428	2.860654	628.963527	5.254060	20.384704	-1.467731	-3.240999	0.835352
1.290	3.618682	2.840893	628.922096	5.186975	20.371132	-1.468821	-3.239055	0.824741
1.300	3.623477	2.823881	628.942060	5.126778	20.366628	-1.467895	-3.238236	0.815143
1.310	3.603523	2.807174	629.004882	5.073225	20.371402	-1.465908	-3.238672	0.806548
1.320	3.553790	2.789234	629.081058	5.026142	20.384493	-1.464505	-3.240360	0.798966
1.330	3.477213	2.769992	629.142993	4.985655	20.404434	-1.465327	-3.243211	0.792452
1.340	3.384580	2.750913	629.172862	4.951731	20.429649	-1.469267	-3.247065	0.787022
1.350	3.291049	2.734309	629.164073	4.923366	20.458602	-1.476049	-3.251712	0.782525
1.360	3.210583	2.722140	629.120077	4.898026	20.489891	-1.484328	-3.256913	0.778552
1.370	3.151006	2.715021	629.053811	4.871942	20.522485	-1.492215	-3.262437	0.774487
1.380	3.112250	2.712000	628.986597	4.841360	20.556009	-1.497975	-3.268116	0.769708
1.390	3.088412	2.711124	628.942999	4.804232	20.590836	-1.500642	-3.273879	0.763858
1.400	3.071874	2.710415	628.941387	4.761378	20.627762	-1.500325	-3.279759	0.757046
1.410	3.056771	2.708832	628.985079	4.716399	20.667343	-1.498116	-3.285824	0.749843
1.420	3.040105	2.706912	629.059939	4.674322	20.709304	-1.495647	-3.292103	0.743065
1.430	3.020762	2.706873	629.140320	4.639688	20.752390	-1.494494	-3.298531	0.737465
1.440	2.997832	2.712128	629.199996	4.615012	20.794742	-1.495688	-3.304950	0.733473
1.450	2.969533	2.726212	629.222290	4.600193	20.834512	-1.499493	-3.311153	0.731092
1.460	2.933362	2.751159	629.204843	4.592829	20.870396	-1.505416	-3.316948	0.729942
1.470	2.887258	2.785650	629.157962	4.589052	20.901915	-1.512413	-3.322205	0.729396
1.480	2.830905	2.823868	629.098732	4.584549	20.929425	-1.519165	-3.326890	0.728749
1.490	2.766165	2.856251	629.044424	4.575652	20.953975	-1.524364	-3.331080	0.727397
1.500	2.696249	2.872411	629.007827	4.560267	20.977108	-1.526945	-3.334952	0.724994
1.510	2.624183	2.864808	628.995266	4.538278	21.000697	-1.526229	-3.338769	0.721512
1.520	2.551637	2.831105	629.006581	4.511205	21.026793	-1.522017	-3.342857	0.717195
1.530	2.478907	2.774196	629.036250	4.481269	21.057412	-1.514644	-3.347567	0.712402
1.540	2.406101	2.700560	629.075081	4.450237	21.094109	-1.504982	-3.353194	0.707425
1.550	2.334780	2.618273	629.111724	4.418512	21.137374	-1.494327	-3.359876	0.702341
1.560	2.268943	2.535377	629.133684	4.384863	21.186090	-1.484164	-3.367502	0.696968
1.570	2.214560	2.458550	629.129091	4.347013	21.237361	-1.475865	-3.375676	0.690957
1.580	2.177703	2.391984	629.090793	4.302881	21.286861	-1.470414	-3.383750	0.683984
1.590	2.162101	2.336846	629.021722	4.251835	21.329652	-1.468232	-3.390924	0.675944
1.600	2.167217	2.291806	628.937658	4.195350	21.361277	-1.469141	-3.396406	0.667053
1.610	2.187612	2.254539	628.864147	4.136860	21.378784	-1.472437	-3.399587	0.657830
1.620	2.213926	2.223282	628.827868	4.080976	21.381314	-1.477060	-3.400186	0.648981
1.630	2.235248	2.197464	628.846091	4.032380	21.370124	-1.481828	-3.398308	0.641235
1.640	2.242063	2.177200	628.918993	3.994586	21.348200	-1.485693	-3.394428	0.635151
1.650	2.228712	2.162403	629.028443	3.968901	21.319685	-1.487975	-3.389304	0.630957
1.660	2.194786	2.152598	629.143892	3.953975	21.289178	-1.488498	-3.383833	0.628469
1.670	2.145497	2.147814	629.232643	3.946338	21.260894	-1.487579	-3.378861	0.627167
1.680	2.091111	2.149840	629.269918	3.941876	21.237816	-1.485883	-3.374993	0.626421
1.690	2.045231	2.162562	629.244691	3.937666	21.221061	-1.484221	-3.372466	0.625777
1.700	2.021734	2.190613	629.159511	3.933285	21.209667	-1.483383	-3.371111	0.625165
1.710	2.030864	2.236935	629.025482	3.930922	21.200853	-1.484019	-3.370428	0.624923
1.720	2.075736	2.300724	628.855892	3.934244	21.190725	-1.486520	-3.369727	0.625619
1.730	2.150640	2.376864	628.662524	3.946610	21.175317	-1.490843	-3.368312	0.627779
1.740	2.241903	2.456842	628.456795	3.969508	21.151805	-1.496346	-3.365674	0.631628
1.750	2.331165	2.530436	628.254458	4.001927	21.119629	-1.501764	-3.361636	0.636991
1.760	2.400229	2.587586	628.079800	4.040817	21.081171	-1.505435	-3.356448	0.643360
1.770	2.436110	2.620286	627.965184	4.082265	21.041649	-1.505771	-3.350767	0.650078
1.780	2.434722	2.624355	627.944550	4.122738	21.007991	-1.501807	-3.345517	0.656545
1.790	2.401823	2.600637	628.043031	4.159884	20.986821	-1.493628	-3.341621	0.662356
1.800	2.350887	2.555047	628.266758	4.192714	20.982194	-1.482481	-3.339695	0.667346
1.810	2.298856	2.497187	628.596511	4.221222	20.993969	-1.470509	-3.339816	0.671531
1.820	2.261612	2.437883	628.987390	4.245699	21.017493	-1.460195	-3.341481	0.675005
1.830	2.250775	2.386626	629.375145	4.266078	21.044710	-1.453693	-3.343747	0.677828
1.840	2.272468	2.349952	629.688464	4.281687	21.066327	-1.452295	-3.345516	0.679969
1.850	2.327666	2.331075	629.865294	4.291627	21.074354	-1.456158	-3.345851	0.681356
1.860	2.413141	2.330322	629.869788	4.295683	21.064217	-1.464349	-3.344218	0.681995
1.870	2.522176	2.345789	629.704663	4.295276	21.035754	-1.475192	-3.340575	0.682110
1.880	2.644874	2.374035	629.413183	4.293767	20.992857	-1.486809	-3.335306	0.682186
1.890	2.768628	2.410924	629.068124	4.295733	20.942113	-1.497652	-3.329069	0.682873
1.900	2.879429	2.452674	628.751092	4.305448	20.891138	-1.506807	-3.322640	0.684762
1.910	2.964174	2.496732	628.530281	4.325331	20.847164	-1.513968	-3.316811	0.688166
1.920	3.013452	2.541800	628.444635	4.355141	20.816009	-1.519160	-3.312306	0.693003
1.930	3.023807	2.586676	628.498201	4.392248	20.801181	-1.522446	-3.309664	0.698848
1.940	2.998645	2.628574	628.663898	4.432818	20.802982	-1.523862	-3.309079	0.705117
1.950	2.947467	2.662339	628.893569	4.473402	20.817895	-1.523572	-3.310241	0.711313
1.960	2.883789	2.681628	629.130916	4.512266	20.838873	-1.522069	-3.312327	0.717222
1.970	2.822450	2.681949	629.324348	4.549883	20.856866	-1.520174	-3.314168	0.722979
1.980	2.776930	2.664162	629.437301	4.588415	20.863282	-1.518779	-3.314593	0.728971
1.990	2.757098	2.636420	629.454183	4.630530	20.852522	-1.518494	-3.312794	0.735642
2.000	2.767617	2.612899	629.380840	4.678161	20.823682	-1.519398	-3.308598	0.743296
2.010	2.807170	2.609227	629.239680	4.731667	20.780867	-1.521019	-3.302536	0.751966
2.020	2.868634	2.636472	629.061648	4.789603	20.731971	-1.522530	-3.295698	0.761389
2.030	2.940202	2.696563	628.878675	4.849082	20.686332	-1.523071	-3.289400	0.771068
2.040	3.007366	2.781304	628.719064	4.906638	20.652030	-1.522089	-3.284779	0.780418
2.050	3.055654	2.875247	628.605246	4.959342	20.633692	-1.519556	-3.282456	0.788944
2.060	3.074002	2.960904	628.551751	5.005697	20.631404	-1.515962	-3.282372	0.796386
2.070	3.058182	3.024112	628.562498	5.045914	20.640923	-1.512061	-3.283830	0.802770
2.080	3.012954	3.057642	628.628862	5.081467	20.655064	-1.508489	-3.285733	0.808341
2.090	2.951425	3.062145	628.730833	5.114302	20.665864	-1.505459	-3.286918	0.813433
2.100	2.891150	3.044582	628.842150	5.146124	20.666897	-1.502704	-3.286500	0.818349
2.110	2.848243	3.015130	628.937743	5.178034	20.655010	-1.499671	-3.284111	0.823298
2.120	2.831988	2.983835	629.000433	5.210471	20.630981	-1.495887	-3.279963	0.828373
2.130	2.842285	2.958118	629.024665	5.243352	20.598945	-1.491287	-3.274744	0.833569
2.140	2.870892	2.941657	629.016936	5.276315	20.564930	-1.486306	-3.269376	0.838819
2.150	2.905555	2.934767	628.993579	5.308962	20.535115	-1.481671	-3.264757	0.844041
2.160	2.934943	2.935959	628.976362	5.341004	20.514442	-1.478010	-3.261560	0.849158
2.170	2.952211	2.943872	628.986054	5.372168	20.505838	-1.475516	-3.260142	0.854100
2.180	2.956202	2.958244	629.034824	5.401915	20.509905	-1.473873	-3.260536	0.858763
2.190	2.950558	2.979161	629.119905	5.429247	20.524838	-1.472484	-3.262468	0.862991
2.200	2.941578	3.005241	629.221835	5.452950	20.546612	-1.470808	-3.265400	0.866618
2.210	2.935555	3.032472	629.309367	5.472432	20.569646	-1.468601	-3.268606	0.869593
2.220	2.936441	3.054954	629.349977	5.488819	20.588103	-1.465908	-3.271328	0.872141
2.230	2.944825	3.067258	629.321641	5.505590	20.597518	-1.462873	-3.272971	0.874845
2.240	2.958596	3.067020	629.220640	5.528112	20.596173	-1.459554	-3.273283	0.878565
2.250	2.974568	3.056341	629.062451	5.562063	20.585607	-1.455950	-3.272427	0.884183
2.260	2.989807	3.041241	628.876427	5.611373	20.570046	-1.452268	-3.270920	0.892285
2.270	3.002008	3.029356	628.697254	5.676655	20.555048	-1.449170	-3.269467	0.902923
2.280	3.009198	3.027030	628.556140	5.754715	20.545953	-1.447727	-3.268754	0.915545
2.290	3.009522	3.037339	628.473961	5.839282	20.546619	-1.449006	-3.269287	0.929121
2.300	3.001670	3.059859	628.458027	5.922695	20.558690	-1.453528	-3.271291	0.942417
2.310	2.985861	3.091764	628.503197	5.998048	20.581432	-1.460918	-3.274674	0.954339
2.320	2.964745	3.129206	628.596077	6.061169	20.612159	-1.469979	-3.279079	0.964239
2.330	2.943385	3.168281	628.719635	6.111707	20.647138	-1.479144	-3.283998	0.972088
2.340	2.927905	3.205595	628.856419	6.152915	20.682690	-1.487066	-3.288937	0.978429
2.350	2.923214	3.238667	628.990609	6.190189	20.716087	-1.493049	-3.293545	0.984146
2.360	2.930919	3.266202	629.109814	6.228958	20.745944	-1.497138	-3.297667	0.990122
2.370	2.948531	3.288201	629.206575	6.272749	20.772072	-1.499833	-3.301312	0.996930
2.380	2.970397	3.305926	629.278878	6.322157	20.795012	-1.501633	-3.304578	1.004667
2.390	2.989950	3.321741	629.329267	6.375049	20.815599	-1.502643	-3.307585	1.012991
2.400	3.002329	3.338710	629.362415	6.427810	20.834762	-1.502536	-3.310455	1.021321
