Time[s]	Fx[N]	Fy[N]	Fz[N]	Mx[Nm]	My[Nm]	Mz[Nm]	COPx[cm]	COPy[cm]
0.010	3.162438	-2.010012	691.557092	4.354549	11.989873	-0.283950	-1.733750	0.629673
0.020	3.263473	-1.977846	691.522034	4.351178	11.973291	-0.296729	-1.731440	0.629218
0.030	3.342409	-1.943752	691.528779	4.349437	11.961461	-0.308838	-1.729713	0.628960
0.040	3.382788	-1.906530	691.601234	4.351072	11.957821	-0.319904	-1.729005	0.629130
0.050	3.377822	-1.866715	691.739181	4.357948	11.963399	-0.329900	-1.729467	0.629999
0.060	3.331371	-1.826392	691.918832	4.371798	11.976695	-0.338971	-1.730939	0.631837
0.070	3.255978	-1.788226	692.101170	4.393730	11.994261	-0.347138	-1.733021	0.634839
0.080	3.168939	-1.754189	692.243954	4.423709	12.011603	-0.354126	-1.735169	0.639039
0.090	3.087787	-1.724753	692.313170	4.460353	12.024152	-0.359459	-1.736808	0.644268
0.100	3.026307	-1.699054	692.291489	4.501216	12.028104	-0.362776	-1.737433	0.650191
0.110	2.991841	-1.675877	692.182895	4.543477	12.021078	-0.364137	-1.736691	0.656398
0.120	2.984386	-1.654545	692.012608	4.584781	12.002561	-0.364094	-1.734443	0.662529
0.130	2.997689	-1.634942	691.821082	4.623887	11.974123	-0.363487	-1.730812	0.668365
0.140	3.021911	-1.616563	691.652466	4.660831	11.939278	-0.363083	-1.726196	0.673869
0.150	3.046779	-1.597367	691.541017	4.696539	11.902802	-0.363266	-1.721200	0.679141
0.160	3.064047	-1.573436	691.500942	4.732138	11.869503	-0.363890	-1.716484	0.684328
0.170	3.068807	-1.540001	691.524057	4.768335	11.842736	-0.364353	-1.712556	0.689540
0.180	3.059844	-1.493526	691.585835	4.805183	11.823189	-0.363835	-1.709576	0.694807
0.190	3.039432	-1.433753	691.656002	4.842245	11.808553	-0.361584	-1.707287	0.700094
0.200	3.012752	-1.364436	691.708253	4.879016	11.794370	-0.357110	-1.705108	0.705357
0.210	2.986827	-1.292148	691.726108	4.915413	11.775802	-0.350227	-1.702379	0.710601
0.220	2.968879	-1.223649	691.705115	4.952155	11.749520	-0.340986	-1.698631	0.715934
0.230	2.964394	-1.163250	691.652418	4.990838	11.714780	-0.329625	-1.693738	0.721582
0.240	2.975644	-1.111614	691.583806	5.033503	11.673296	-0.316601	-1.687908	0.727823
0.250	3.001341	-1.066667	691.518679	5.081675	11.628132	-0.302620	-1.681535	0.734857
0.260	3.037459	-1.025910	691.474565	5.135248	11.582304	-0.288561	-1.675015	0.742652
0.270	3.078723	-0.988523	691.463081	5.191825	11.537750	-0.275251	-1.668600	0.750846
0.280	3.120106	-0.955747	691.487788	5.247058	11.494954	-0.263261	-1.662351	0.758807
0.290	3.157922	-0.929468	691.543096	5.296021	11.453100	-0.252846	-1.656166	0.765827
0.300	3.190377	-0.910245	691.613744	5.335093	11.410402	-0.244054	-1.649823	0.771398
0.310	3.217731	-0.896226	691.676191	5.363459	11.364368	-0.236905	-1.643019	0.775429
0.320	3.242313	-0.883425	691.703793	5.383502	11.311969	-0.231543	-1.635378	0.778296
0.330	3.268445	-0.866866	691.675377	5.399850	11.249820	-0.228293	-1.626460	0.780691
0.340	3.301983	-0.841844	691.583736	5.417497	11.174547	-0.227581	-1.615791	0.783347
0.350	3.349118	-0.804944	691.440079	5.439816	11.083464	-0.229743	-1.602954	0.786737
0.360	3.414480	-0.754830	691.272432	5.467296	10.975528	-0.234817	-1.587728	0.790903
0.370	3.499246	-0.692940	691.118469	5.497541	10.852288	-0.242425	-1.570250	0.795456
0.380	3.600208	-0.623923	691.015391	5.526547	10.718381	-0.251771	-1.551106	0.799772
0.390	3.710436	-0.555332	690.990500	5.550688	10.581087	-0.261729	-1.531293	0.803294
0.400	3.821462	-0.496179	691.055122	5.568392	10.448780	-0.271028	-1.512004	0.805781
0.410	3.926121	-0.454541	691.202360	5.580604	10.328649	-0.278548	-1.494302	0.807376
0.420	4.020878	-0.435008	691.408223	5.589843	10.224559	-0.283677	-1.478802	0.808472
0.430	4.106803	-0.436999	691.636212	5.598537	10.136042	-0.286550	-1.465516	0.809463
0.440	4.188927	-0.454760	691.845558	5.607668	10.058960	-0.287998	-1.453931	0.810538
0.450	4.274233	-0.479300	692.001599	5.616436	9.987571	-0.289181	-1.443287	0.811622
0.460	4.368823	-0.501674	692.084850	5.622942	9.917057	-0.291076	-1.432925	0.812464
0.470	4.475115	-0.516260	692.095429	5.625353	9.845443	-0.294010	-1.422556	0.812800
0.480	4.590022	-0.522572	692.051477	5.622843	9.774205	-0.297421	-1.412352	0.812489
0.490	4.704823	-0.524852	691.982405	5.615794	9.707522	-0.299966	-1.402857	0.811552
0.500	4.806969	-0.529711	691.919329	5.605124	9.650547	-0.300023	-1.394750	0.810083
0.510	4.883573	-0.542930	691.885744	5.591142	9.607371	-0.296465	-1.388578	0.808102
0.520	4.925791	-0.566880	691.891222	5.572663	9.579354	-0.289391	-1.384517	0.805425
0.530	4.932637	-0.599650	691.929498	5.547058	9.564463	-0.280434	-1.382289	0.801680
0.540	4.912469	-0.636113	691.980786	5.511383	9.557902	-0.272389	-1.381238	0.796465
0.550	4.881123	-0.670326	692.017592	5.464028	9.553764	-0.268275	-1.380567	0.789579
0.560	4.857238	-0.698053	692.013115	5.405994	9.546989	-0.270220	-1.379597	0.781198
0.570	4.856515	-0.718220	691.950345	5.341045	9.534775	-0.278643	-1.377957	0.771883
0.580	4.886873	-0.732817	691.828769	5.274705	9.516980	-0.292049	-1.375627	0.762429
0.590	4.945918	-0.745629	691.665699	5.212731	9.495632	-0.307497	-1.372864	0.753649
0.600	5.021459	-0.760676	691.491330	5.159884	9.474017	-0.321573	-1.370085	0.746196
0.610	5.094940	-0.780977	691.339440	5.119345	9.455860	-0.331441	-1.367759	0.740497
0.620	5.146763	-0.807769	691.237438	5.092593	9.444776	-0.335582	-1.366358	0.736736
0.630	5.161768	-0.840092	691.199440	5.079387	9.443875	-0.334034	-1.366302	0.734866
0.640	5.133162	-0.874770	691.224182	5.077752	9.455255	-0.328187	-1.367900	0.734603
0.650	5.063924	-0.907047	691.297400	5.084168	9.479354	-0.320340	-1.371241	0.735453
0.660	4.965730	-0.932025	691.397107	5.094110	9.514436	-0.313114	-1.376117	0.736785
0.670	4.856089	-0.946653	691.500053	5.102896	9.556661	-0.308816	-1.382019	0.737946
0.680	4.754423	-0.951412	691.587766	5.106569	9.600932	-0.308845	-1.388245	0.738383
0.690	4.677632	-0.950707	691.650608	5.102473	9.642288	-0.313349	-1.394098	0.737724
0.700	4.636021	-0.951449	691.688773	5.089396	9.677301	-0.321268	-1.399083	0.735793
0.710	4.630892	-0.960311	691.710237	5.067438	9.705004	-0.330794	-1.403045	0.732596
0.720	4.654898	-0.980996	691.726877	5.037889	9.727118	-0.340060	-1.406208	0.728306
0.730	4.695113	-1.012831	691.750443	5.003108	9.747613	-0.347741	-1.409123	0.723253
0.740	4.737407	-1.051238	691.789166	4.966140	9.771678	-0.353350	-1.412523	0.717869
0.750	4.770081	-1.089668	691.844492	4.929925	9.804370	-0.357209	-1.417135	0.712577
0.760	4.785453	-1.121954	691.908196	4.896385	9.849355	-0.360180	-1.423506	0.707664
0.770	4.779578	-1.144027	691.962360	4.865843	9.908205	-0.363288	-1.431899	0.703195
0.780	4.751385	-1.154561	691.984925	4.837142	9.980409	-0.367307	-1.442287	0.699024
0.790	4.702350	-1.154799	691.959889	4.808469	10.063939	-0.372449	-1.454411	0.694906
0.800	4.636757	-1.148009	691.886619	4.778480	10.156106	-0.378262	-1.467886	0.690645
0.810	4.561664	-1.138733	691.781866	4.747155	10.254493	-0.383804	-1.482330	0.686221
0.820	4.485658	-1.131803	691.672681	4.715980	10.357761	-0.387981	-1.497495	0.681823
0.830	4.416371	-1.131073	691.584619	4.687436	10.466012	-0.389931	-1.513338	0.677782
0.840	4.357781	-1.138099	691.532163	4.664106	10.580551	-0.389278	-1.530016	0.674460
0.850	4.308699	-1.151256	691.516077	4.647754	10.703143	-0.386186	-1.547779	0.672111
0.860	4.263252	-1.165847	691.527840	4.638668	10.835145	-0.381230	-1.566841	0.670785
0.870	4.213032	-1.175460	691.557306	4.635526	10.976858	-0.375186	-1.587267	0.670303
0.880	4.149802	-1.174141	691.598403	4.635844	11.127203	-0.368807	-1.608911	0.670309
0.890	4.067709	-1.158506	691.649909	4.636783	11.283692	-0.362644	-1.631417	0.670395
0.900	3.964554	-1.128915	691.712126	4.635933	11.442711	-0.356953	-1.654259	0.670211
0.910	3.842312	-1.089322	691.782619	4.631801	11.600035	-0.351733	-1.676832	0.669546
0.920	3.707167	-1.046071	691.854051	4.623929	11.751450	-0.346896	-1.698545	0.668339
0.930	3.569044	-1.006250	691.915385	4.612660	11.893279	-0.342436	-1.718892	0.666651
0.940	3.440359	-0.976158	691.955381	4.598726	12.022790	-0.338492	-1.737509	0.664599
0.950	3.333744	-0.960140	691.966115	4.582899	12.138586	-0.335247	-1.754217	0.662301
0.960	3.258945	-0.959981	691.944986	4.565966	12.240918	-0.332726	-1.769059	0.659874
0.970	3.219781	-0.974911	691.895134	4.548995	12.331713	-0.330654	-1.782310	0.657469
0.980	3.212539	-1.001850	691.824897	4.533626	12.414079	-0.328518	-1.794396	0.655314
0.990	3.226790	-1.035400	691.747046	4.522111	12.491396	-0.325867	-1.805775	0.653723
1.000	3.248533	-1.067616	691.677886	4.517072	12.566379	-0.322687	-1.816796	0.653060
1.010	3.264373	-1.088401	691.635218	4.520947	12.640506	-0.319582	-1.827626	0.653661
1.020	3.265002	-1.087320	691.634290	4.535210	12.713980	-0.317581	-1.838252	0.655724
1.030	3.246806	-1.056604	691.682782	4.559647	12.786159	-0.317679	-1.848558	0.659211
1.040	3.211441	-0.994046	691.777538	4.592149	12.856225	-0.320381	-1.858433	0.663819
1.050	3.164162	-0.904232	691.904937	4.629224	12.923846	-0.325420	-1.867864	0.669055
1.060	3.111967	-0.797336	692.044472	4.667055	12.989523	-0.331711	-1.876978	0.674387
1.070	3.062148	-0.685988	692.173843	4.702570	13.054485	-0.337567	-1.886012	0.679391
1.080	3.021105	-0.581777	692.274022	4.734016	13.120213	-0.341161	-1.895234	0.683836
1.090	2.993006	-0.493102	692.332943	4.760838	13.187791	-0.341121	-1.904834	0.687652
1.100	2.978407	-0.424912	692.346094	4.783083	13.257370	-0.337015	-1.914847	0.690851
1.110	2.973688	-0.379488	692.313230	4.800819	13.327938	-0.329496	-1.925131	0.693446
1.120	2.972086	-0.356960	692.233382	4.813951	13.397469	-0.320064	-1.935398	0.695423
1.130	2.966242	-0.355034	692.102601	4.822416	13.463382	-0.310544	-1.945287	0.696778
1.140	2.951166	-0.368317	691.917164	4.826480	13.523190	-0.302490	-1.954452	0.697552
1.150	2.926173	-0.388089	691.680648	4.826772	13.575277	-0.296725	-1.962651	0.697832
1.160	2.894784	-0.403278	691.410524	4.823923	13.619632	-0.293180	-1.969833	0.697693
1.170	2.862673	-0.402981	691.140279	4.818001	13.658269	-0.291085	-1.976193	0.697109
1.180	2.834829	-0.380050	690.915244	4.808134	13.694990	-0.289382	-1.982152	0.695908
1.190	2.813538	-0.334329	690.782894	4.792641	13.734383	-0.287132	-1.988234	0.693798
1.200	2.798268	-0.273829	690.780519	4.769633	13.780279	-0.283730	-1.994885	0.690470
1.210	2.787344	-0.212938	690.924207	4.737822	13.834205	-0.278890	-2.002275	0.685722
1.220	2.780125	-0.168220	691.202561	4.697153	13.894499	-0.272517	-2.010192	0.679562
1.230	2.778205	-0.153435	691.576766	4.648965	13.956543	-0.264613	-2.018076	0.672227
1.240	2.784931	-0.175592	691.986871	4.595546	14.014109	-0.255286	-2.025199	0.664109
1.250	2.803724	-0.233180	692.363520	4.539249	14.061271	-0.244828	-2.030909	0.655616
1.260	2.836398	-0.316937	692.643673	4.481610	14.094076	-0.233768	-2.034823	0.647030
1.270	2.882476	-0.412740	692.786715	4.422912	14.111467	-0.222832	-2.036914	0.638423
1.280	2.939626	-0.505566	692.785276	4.362351	14.115352	-0.212824	-2.037479	0.629683
1.290	3.004527	-0.583251	692.665995	4.298547	14.110004	-0.204473	-2.037057	0.620580
1.300	3.073324	-0.639114	692.479632	4.230124	14.101056	-0.198303	-2.036314	0.610866
1.310	3.141540	-0.673037	692.284312	4.156204	14.094335	-0.194563	-2.035917	0.600361
1.320	3.204022	-0.690738	692.128193	4.076830	14.094834	-0.193215	-2.036448	0.589028
1.330	3.255568	-0.701343	692.038044	3.993298	14.106069	-0.193947	-2.038337	0.577034
1.340	3.292118	-0.713964	692.017476	3.908229	14.129805	-0.196181	-2.041828	0.564759
1.350	3.311827	-0.734644	692.053725	3.825171	14.165981	-0.199128	-2.046948	0.552727
1.360	3.315559	-0.764865	692.127838	3.747624	14.212658	-0.201933	-2.053473	0.541464
1.370	3.306913	-0.801998	692.222521	3.677747	14.265984	-0.203908	-2.060896	0.531296
1.380	3.291962	-0.841226	692.324685	3.615247	14.320351	-0.204765	-2.068444	0.522190
1.390	3.278542	-0.878098	692.423440	3.557090	14.368997	-0.204668	-2.075175	0.513716
1.400	3.274943	-0.910756	692.507033	3.498370	14.405192	-0.204086	-2.080151	0.505175
1.410	3.288266	-0.940891	692.562342	3.434158	14.423829	-0.203524	-2.082676	0.495863
1.420	3.323013	-0.972798	692.578029	3.361601	14.422930	-0.203351	-2.082499	0.485375
1.430	3.380257	-1.010845	692.549109	3.281295	14.404466	-0.203766	-2.079920	0.473800
1.440	3.457270	-1.056598	692.479475	3.197216	14.374117	-0.204892	-2.075746	0.461706
1.450	3.547412	-1.107125	692.380818	3.115124	14.340067	-0.206891	-2.071124	0.449915
1.460	3.640408	-1.155374	692.269432	3.040082	14.311305	-0.210039	-2.067303	0.439147
1.470	3.723357	-1.192606	692.163225	2.974307	14.295955	-0.214728	-2.065402	0.429712
1.480	3.782645	-1.212052	692.079456	2.916446	14.299974	-0.221348	-2.066233	0.421403
1.490	3.806546	-1.212310	692.031849	2.862575	14.326301	-0.230097	-2.070179	0.413648
1.500	3.787904	-1.198827	692.026400	2.808125	14.374516	-0.240811	-2.077163	0.405783
1.510	3.725999	-1.182508	692.057620	2.749605	14.441068	-0.252864	-2.086686	0.397309
1.520	3.626891	-1.175952	692.108464	2.685464	14.520128	-0.265221	-2.097956	0.388012
1.530	3.502175	-1.189000	692.155636	2.616066	14.604956	-0.276648	-2.110068	0.377959
1.540	3.366832	-1.225470	692.178203	2.543154	14.689477	-0.286050	-2.122210	0.367413
1.550	3.236949	-1.282192	692.164836	2.469146	14.769556	-0.292851	-2.133821	0.356728
1.560	3.127615	-1.350321	692.116289	2.396491	14.843568	-0.297250	-2.144664	0.346255
1.570	3.050928	-1.418117	692.043303	2.327165	14.912122	-0.300185	-2.154796	0.336275
1.580	3.014154	-1.474166	691.961774	2.262333	14.977138	-0.302970	-2.164446	0.326945
1.590	3.018359	-1.510233	691.886433	2.202104	15.040745	-0.306724	-2.173875	0.318275
1.600	3.057933	-1.523199	691.824735	2.145428	15.104459	-0.311875	-2.183278	0.310111
1.610	3.121371	-1.515717	691.774443	2.090230	15.168956	-0.317967	-2.192760	0.302155
1.620	3.193391	-1.495364	691.727917	2.033999	15.234402	-0.323869	-2.202369	0.294046
1.630	3.258025	-1.472319	691.681891	1.974760	15.301100	-0.328259	-2.212158	0.285501
1.640	3.301824	-1.456120	691.647271	1.912037	15.370104	-0.330178	-2.222246	0.276447
1.650	3.316135	-1.452673	691.652668	1.847297	15.443565	-0.329460	-2.232850	0.267085
1.660	3.297819	-1.462692	691.738457	1.783553	15.524591	-0.326852	-2.244286	0.257836
1.670	3.248542	-1.482086	691.942772	1.724249	15.616550	-0.323748	-2.256914	0.249190
1.680	3.173304	-1.503878	692.284562	1.671909	15.722017	-0.321653	-2.271034	0.241506
1.690	3.078741	-1.520771	692.750017	1.627214	15.841685	-0.321684	-2.286782	0.234892
1.700	2.971456	-1.527495	693.287550	1.588975	15.973647	-0.324347	-2.304044	0.229194
1.710	2.856599	-1.522360	693.813999	1.554950	16.113352	-0.329579	-2.322431	0.224116
1.720	2.737050	-1.507608	694.231093	1.522983	16.254417	-0.336887	-2.341355	0.219377
1.730	2.613546	-1.488377	694.447698	1.491818	16.390177	-0.345417	-2.360174	0.214821
1.740	2.485804	-1.470629	694.401223	1.461221	16.515467	-0.353989	-2.378375	0.210429
1.750	2.354144	-1.459018	694.071962	1.431463	16.627942	-0.361184	-2.395709	0.206241
1.760	2.220798	-1.455568	693.487052	1.402559	16.728355	-0.365542	-2.412209	0.202247
1.770	2.090167	-1.459371	692.714563	1.373731	16.819742	-0.365865	-2.428091	0.198311
1.780	1.967864	-1.467129	691.850768	1.343418	16.905908	-0.361556	-2.443577	0.194177
1.790	1.859123	-1.474454	691.003864	1.309869	16.989941	-0.352862	-2.458733	0.189560
1.800	1.767465	-1.477584	690.276555	1.272040	17.073362	-0.340894	-2.473409	0.184280
1.810	1.694149	-1.474738	689.749570	1.230336	17.156116	-0.327354	-2.487296	0.178374
1.820	1.638379	-1.466276	689.468886	1.186828	17.237088	-0.314045	-2.500053	0.172137
1.830	1.598058	-1.453692	689.439953	1.144808	17.314597	-0.302385	-2.511400	0.166049
1.840	1.571051	-1.438221	689.631158	1.107853	17.386603	-0.293092	-2.521145	0.160644
1.850	1.556750	-1.419978	689.985468	1.078701	17.450769	-0.286116	-2.529150	0.156337
1.860	1.557269	-1.397988	690.435918	1.058347	17.504788	-0.280738	-2.535324	0.153287
1.870	1.577368	-1.370928	690.919463	1.045804	17.547066	-0.275790	-2.539669	0.151364
1.880	1.622856	-1.338216	691.385407	1.038750	17.577476	-0.269987	-2.542356	0.150242
1.890	1.698106	-1.301019	691.798007	1.034749	17.597708	-0.262334	-2.543764	0.149574
1.900	1.803824	-1.262728	692.135671	1.032272	17.610981	-0.252472	-2.544441	0.149143
1.910	1.935804	-1.228500	692.389557	1.030818	17.621251	-0.240768	-2.544991	0.148878
1.920	2.084793	-1.203841	692.562499	1.030197	17.632325	-0.228127	-2.545954	0.148751
1.930	2.237183	-1.192759	692.667467	1.029652	17.647180	-0.215660	-2.547713	0.148650
1.940	2.376425	-1.196310	692.724252	1.027552	17.667582	-0.204392	-2.550450	0.148335
1.950	2.485221	-1.212132	692.753856	1.021855	17.693997	-0.195107	-2.554154	0.147506
1.960	2.548451	-1.235085	692.771607	1.011024	17.725794	-0.188309	-2.558678	0.145939
1.970	2.556379	-1.258641	692.781971	0.994817	17.761662	-0.184229	-2.563817	0.143597
1.980	2.507249	-1.276455	692.778231	0.974461	17.800053	-0.182796	-2.569372	0.140660
1.990	2.408279	-1.283694	692.747484	0.952063	17.839479	-0.183527	-2.575178	0.137433
2.000	2.274484	-1.278013	692.677680	0.929642	17.878597	-0.185432	-2.581085	0.134210
2.010	2.125483	-1.260274	692.562237	0.908390	17.916099	-0.187120	-2.586930	0.131164
2.020	1.981084	-1.234908	692.400099	0.888536	17.950451	-0.187133	-2.592497	0.128327
2.030	1.857015	-1.209543	692.192808	0.869697	17.979607	-0.184368	-2.597485	0.125644
2.040	1.762304	-1.193564	691.942260	0.851316	18.000890	-0.178347	-2.601502	0.123033
2.050	1.699275	-1.195720	691.652052	0.832886	18.011179	-0.169339	-2.604081	0.120420
2.060	1.665716	-1.221548	691.332356	0.813928	18.007427	-0.158407	-2.604742	0.117733
2.070	1.657621	-1.271638	691.004919	0.793881	17.987446	-0.147361	-2.603085	0.114888
2.080	1.670859	-1.341397	690.703555	0.772114	17.950821	-0.138462	-2.598918	0.111787
2.090	1.701253	-1.422181	690.468048	0.748098	17.899668	-0.133812	-2.592396	0.108346
2.100	1.743776	-1.503238	690.333945	0.721674	17.838865	-0.134639	-2.584092	0.104540
2.110	1.792077	-1.573908	690.323201	0.693248	17.775479	-0.140829	-2.574950	0.100424
2.120	1.839174	-1.625746	690.439144	0.663807	17.717374	-0.150990	-2.566102	0.096143
2.130	1.879301	-1.654264	690.666144	0.634634	17.671304	-0.163039	-2.558588	0.091887
2.140	1.910015	-1.659900	690.972956	0.606732	17.641077	-0.175027	-2.553078	0.087808
2.150	1.933558	-1.647862	691.318793	0.580212	17.626456	-0.185772	-2.549686	0.083928
2.160	1.956846	-1.626796	691.661144	0.554071	17.623305	-0.195006	-2.547968	0.080107
2.170	1.989976	-1.606712	691.963679	0.526569	17.624932	-0.203043	-2.547089	0.076098
2.180	2.043532	-1.596858	692.202028	0.495963	17.624023	-0.210280	-2.546081	0.071650
2.190	2.125455	-1.604099	692.365654	0.461144	17.614326	-0.216857	-2.544079	0.066604
2.200	2.238516	-1.631953	692.455569	0.421935	17.591566	-0.222636	-2.540461	0.060933
2.210	2.379258	-1.680175	692.479461	0.379012	17.553607	-0.227468	-2.534892	0.054733
2.220	2.538498	-1.744800	692.446858	0.333546	17.500238	-0.231530	-2.527304	0.048169
2.230	2.702989	-1.818581	692.366747	0.286697	17.432918	-0.235538	-2.517873	0.041408
2.240	2.857814	-1.891763	692.248635	0.239222	17.354523	-0.240672	-2.506978	0.034557
2.250	2.989287	-1.953268	692.105491	0.191489	17.268911	-0.248184	-2.495127	0.027668
2.260	3.087870	-1.992408	691.955343	0.143994	17.180188	-0.258778	-2.482846	0.020810
2.270	3.150178	-2.000980	691.819152	0.098058	17.091737	-0.272056	-2.470550	0.014174
2.280	3.179266	-1.975156	691.715032	0.056132	17.005292	-0.286369	-2.458425	0.008115
2.290	3.182942	-1.916521	691.651325	0.021329	16.920534	-0.299237	-2.446396	0.003084
2.300	3.170698	-1.831962	691.622243	-0.003606	16.835607	-0.308153	-2.434220	-0.000521
2.310	3.150467	-1.732504	691.609262	-0.017320	16.748484	-0.311409	-2.421669	-0.002504
2.320	3.126600	-1.631388	691.588759	-0.020396	16.658520	-0.308586	-2.408732	-0.002949
2.330	3.099974	-1.541635	691.542974	-0.015256	16.567305	-0.300537	-2.395701	-0.002206
2.340	3.070086	-1.473390	691.469135	-0.005572	16.478186	-0.288960	-2.383069	-0.000806
2.350	3.038101	-1.431699	691.381780	0.004596	16.394521	-0.275777	-2.371269	0.000665
2.360	3.009441	-1.415630	691.306115	0.011758	16.317447	-0.262592	-2.360379	0.001701
2.370	2.994781	-1.419210	691.264949	0.013918	16.244281	-0.250339	-2.349936	0.002013
