Time[s]	Fx[N]	Fy[N]	Fz[N]	Mx[Nm]	My[Nm]	Mz[Nm]	COPx[cm]	COPy[cm]
0.010	7.704816	0.763086	537.333902	6.071629	21.580098	0.845020	-4.016143	1.129955
0.020	7.889545	0.904432	537.770150	6.177300	21.496218	0.808618	-3.997287	1.148688
0.030	8.061698	1.040982	538.166469	6.280033	21.412465	0.775111	-3.978781	1.166931
0.040	8.213936	1.168933	538.475016	6.376523	21.329003	0.746893	-3.961001	1.184182
0.050	8.346071	1.285210	538.640004	6.463431	21.246074	0.725348	-3.944392	1.199954
0.060	8.463545	1.387999	538.605468	6.538132	21.164195	0.710736	-3.929443	1.213900
0.070	8.573233	1.477198	538.331155	6.599615	21.084664	0.702378	-3.916672	1.225940
0.080	8.678705	1.554389	537.810366	6.649008	21.010065	0.699042	-3.906593	1.236311
0.090	8.777128	1.622143	537.080913	6.689297	20.944241	0.699392	-3.899644	1.245491
0.100	8.859267	1.682836	536.222717	6.724285	20.891547	0.702302	-3.896058	1.254010
0.110	8.912852	1.737409	535.342342	6.757204	20.855761	0.706956	-3.895780	1.262221
0.120	8.927991	1.784497	534.551256	6.789576	20.839239	0.712712	-3.898455	1.270145
0.130	8.902126	1.820352	533.946033	6.820866	20.842663	0.718872	-3.903515	1.277445
0.140	8.841992	1.839955	533.594843	6.849020	20.865348	0.724506	-3.910335	1.283562
0.150	8.761499	1.839268	533.529781	6.871609	20.905823	0.728507	-3.918398	1.287952
0.160	8.676481	1.817849	533.743174	6.887024	20.962363	0.729938	-3.927425	1.290325
0.170	8.598734	1.780488	534.188259	6.895327	21.033301	0.728493	-3.937432	1.290805
0.180	8.531949	1.736819	534.786713	6.898545	21.117095	0.724754	-3.948695	1.289962
0.190	8.471134	1.698933	535.443923	6.900295	21.212257	0.720013	-3.961621	1.288705
0.200	8.405445	1.678075	536.068461	6.904707	21.317269	0.715702	-3.976595	1.288027
0.210	8.322598	1.681645	536.588980	6.914840	21.430573	0.712771	-3.993853	1.288666
0.220	8.212566	1.711140	536.962854	6.931122	21.550715	0.711315	-4.013446	1.290801
0.230	8.069380	1.761296	537.175801	6.950644	21.676568	0.710600	-4.035284	1.293923
0.240	7.891718	1.820821	537.236025	6.967840	21.807485	0.709459	-4.059200	1.296979
0.250	7.683520	1.875082	537.167226	6.976427	21.943228	0.706906	-4.084990	1.298744
0.260	7.454796	1.910369	537.003082	6.971662	22.083592	0.702772	-4.112377	1.298254
0.270	7.221505	1.918184	536.783607	6.951842	22.227815	0.698091	-4.140927	1.295092
0.280	7.003481	1.897666	536.552451	6.918358	22.373977	0.695019	-4.169951	1.289409
0.290	6.820463	1.855127	536.353915	6.874484	22.518743	0.696239	-4.198486	1.281707
0.300	6.687307	1.801076	536.229075	6.823706	22.657737	0.704063	-4.225384	1.272536
0.310	6.609912	1.745936	536.211135	6.768421	22.786477	0.719580	-4.249534	1.262268
0.320	6.583353	1.695952	536.320783	6.709338	22.901491	0.742183	-4.270111	1.250993
0.330	6.593182	1.650740	536.562645	6.645525	23.001074	0.769631	-4.286745	1.238537
0.340	6.619837	1.603503	536.923755	6.574944	23.085365	0.798614	-4.299561	1.224558
0.350	6.644833	1.543898	537.374199	6.495435	23.155735	0.825565	-4.309052	1.208736
0.360	6.656334	1.462371	537.869640	6.405964	23.213805	0.847435	-4.315879	1.190988
0.370	6.651666	1.354305	538.355812	6.307743	23.260566	0.862259	-4.320668	1.171668
0.380	6.635755	1.222552	538.775402	6.204678	23.296090	0.869459	-4.323896	1.151626
0.390	6.616842	1.077543	539.076401	6.102766	23.319936	0.869876	-4.325906	1.132078
0.400	6.602290	0.934877	539.219361	6.008437	23.332033	0.865498	-4.327002	1.114284
0.410	6.596700	0.811179	539.181525	5.926400	23.333507	0.858847	-4.327579	1.099148
0.420	6.602550	0.719562	538.958350	5.857902	23.327025	0.852181	-4.328168	1.086893
0.430	6.621750	0.666067	538.564069	5.800230	23.316495	0.846851	-4.329382	1.076980
0.440	6.656023	0.648016	538.031223	5.747682	23.306278	0.843105	-4.331770	1.068280
0.450	6.705102	0.654776	537.407456	5.693516	23.300318	0.840431	-4.335689	1.059441
0.460	6.763772	0.670813	536.748724	5.632018	23.301578	0.838181	-4.341245	1.049284
0.470	6.820251	0.680300	536.110540	5.559972	23.311893	0.836105	-4.348337	1.037094
0.480	6.858001	0.671924	535.540354	5.477238	23.332052	0.834505	-4.356731	1.022750
0.490	6.861011	0.642263	535.073663	5.386579	23.361866	0.833971	-4.366103	1.006699
0.500	6.820423	0.596466	534.734469	5.292960	23.400141	0.834898	-4.376030	0.989830
0.510	6.739281	0.545936	534.538391	5.202396	23.444696	0.837096	-4.385971	0.973250
0.520	6.632890	0.503863	534.495752	5.120405	23.492560	0.839732	-4.395275	0.957988
0.530	6.524350	0.480357	534.612837	5.050382	23.540314	0.841649	-4.403245	0.944680
0.540	6.437092	0.479030	534.891275	4.992609	23.584467	0.841926	-4.409208	0.933388
0.550	6.387275	0.496082	535.326503	4.944507	23.621744	0.840414	-4.412586	0.923643
0.560	6.378649	0.521812	535.905588	4.902220	23.649348	0.837986	-4.412969	0.914754
0.570	6.401640	0.543802	536.603777	4.862802	23.665261	0.836348	-4.410193	0.906218
0.580	6.437181	0.550897	537.380428	4.825836	23.668483	0.837471	-4.404418	0.898030
0.590	6.464122	0.537024	538.177839	4.793640	23.658927	0.842871	-4.396117	0.890717
0.600	6.467337	0.503754	538.926786	4.770084	23.636848	0.853038	-4.385911	0.885108
0.610	6.443241	0.460548	539.558695	4.758719	23.602095	0.867260	-4.374333	0.881965
0.620	6.400718	0.422190	540.020050	4.761140	23.553680	0.883839	-4.361631	0.881660
0.630	6.357612	0.404037	540.283559	4.776368	23.489923	0.900576	-4.347703	0.884048
0.640	6.334694	0.416878	540.352754	4.801567	23.408901	0.915329	-4.332152	0.888599
0.650	6.349493	0.463510	540.259294	4.833669	23.308747	0.926486	-4.314363	0.894694
0.660	6.411831	0.538235	540.053589	4.870914	23.187594	0.933186	-4.293573	0.901932
0.670	6.522034	0.629149	539.789974	4.913326	23.043479	0.935248	-4.268971	0.910229
0.680	6.672035	0.722025	539.509166	4.961957	22.874667	0.932838	-4.239903	0.919717
0.690	6.848819	0.804364	539.223477	5.017495	22.680495	0.926085	-4.206140	0.930504
0.700	7.038845	0.868420	538.911965	5.079159	22.462435	0.914909	-4.168108	0.942484
0.710	7.231647	0.912548	538.530149	5.144433	22.224866	0.899148	-4.126949	0.955273
0.720	7.421448	0.940703	538.031614	5.209616	21.975165	0.878910	-4.084363	0.968273
0.730	7.606700	0.960449	537.391499	5.270725	21.722973	0.854902	-4.042299	0.980798
0.740	7.788241	0.980262	536.620753	5.324297	21.478788	0.828537	-4.002601	0.992190
0.750	7.966834	1.007078	535.765945	5.367938	21.252225	0.801743	-3.966699	1.001919
0.760	8.140934	1.044730	534.897207	5.400653	21.050445	0.776522	-3.935419	1.009662
0.770	8.305670	1.093497	534.091056	5.422996	20.877214	0.754416	-3.908924	1.015369
0.780	8.453759	1.150605	533.414497	5.436939	20.732918	0.736070	-3.886831	1.019271
0.790	8.577996	1.211419	532.913977	5.445252	20.615513	0.721125	-3.868451	1.021788
0.800	8.673883	1.270994	532.609698	5.450462	20.522060	0.708520	-3.853114	1.023350
0.810	8.740888	1.325523	532.494690	5.453778	20.450311	0.697103	-3.840472	1.024194
0.820	8.781811	1.373073	532.539075	5.454560	20.399842	0.686227	-3.830675	1.024255
0.830	8.800936	1.413281	532.700580	5.450664	20.372272	0.676040	-3.824338	1.023213
0.840	8.802147	1.446347	532.939997	5.439476	20.370454	0.667342	-3.822279	1.020655
0.850	8.787816	1.472060	533.236139	5.419076	20.396940	0.661104	-3.825123	1.016262
0.860	8.758545	1.489226	533.592847	5.389015	20.452332	0.657930	-3.832947	1.009949
0.870	8.713362	1.495427	534.033592	5.350423	20.534149	0.657734	-3.845104	1.001889
0.880	8.650239	1.486970	534.585923	5.305417	20.636597	0.659819	-3.860296	0.992435
0.890	8.567136	1.459221	535.263773	5.256092	20.751301	0.663318	-3.876836	0.981963
0.900	8.463635	1.407629	536.056235	5.203606	20.868726	0.667735	-3.893011	0.970720
0.910	8.342473	1.329468	536.926840	5.147850	20.979851	0.673234	-3.907395	0.958762
0.920	8.209954	1.225718	537.821385	5.087849	21.077545	0.680493	-3.919060	0.946011
0.930	8.074731	1.102185	538.679034	5.022607	21.157312	0.690201	-3.927629	0.932393
0.940	7.945601	0.969087	539.441890	4.951833	21.217266	0.702494	-3.933188	0.917955
0.950	7.829631	0.838989	540.060920	4.876140	21.257543	0.716642	-3.936138	0.902887
0.960	7.731640	0.723742	540.498665	4.796766	21.279454	0.731181	-3.937004	0.887470
0.970	7.654911	0.631562	540.730213	4.715167	21.284600	0.744424	-3.936270	0.872000
0.980	7.602127	0.565274	540.743678	4.632766	21.274138	0.755079	-3.934237	0.856740
0.990	7.575698	0.522328	540.540925	4.550881	21.248470	0.762649	-3.930964	0.841912
1.000	7.577489	0.496543	540.138687	4.470827	21.207688	0.767437	-3.926341	0.827718
1.010	7.608570	0.480896	539.569090	4.394115	21.152749	0.770216	-3.920304	0.814375
1.020	7.669218	0.470134	538.877639	4.322695	21.086734	0.771796	-3.913084	0.802166
1.030	7.758739	0.462160	538.117437	4.259009	21.015317	0.772696	-3.905340	0.791465
1.040	7.874574	0.457845	537.340996	4.205621	20.945943	0.773048	-3.898073	0.782673
1.050	8.010782	0.459747	536.593341	4.164445	20.886090	0.772740	-3.892350	0.776089
1.060	8.156774	0.470496	535.909611	4.135896	20.841506	0.771671	-3.888996	0.771753
1.070	8.297426	0.491385	535.317177	4.118415	20.815136	0.769961	-3.888374	0.769341
1.080	8.415171	0.521331	534.839553	4.108649	20.806964	0.767967	-3.890319	0.768202
1.090	8.493645	0.556384	534.499063	4.102374	20.814622	0.766129	-3.894230	0.767518
1.100	8.521697	0.590156	534.316464	4.095847	20.834551	0.764783	-3.899290	0.766558
1.110	8.496412	0.615415	534.307313	4.086868	20.863276	0.764076	-3.904733	0.764891
1.120	8.424101	0.626477	534.476730	4.074878	20.898301	0.764072	-3.910049	0.762405
1.130	8.318917	0.621379	534.815402	4.060041	20.938282	0.764983	-3.915048	0.759148
1.140	8.199550	0.602847	535.299122	4.042063	20.982529	0.767336	-3.919777	0.755104
1.150	8.084938	0.577543	535.891941	4.019571	21.030171	0.771905	-3.924331	0.750071
1.160	7.990123	0.553865	536.550544	3.990486	21.079438	0.779373	-3.928696	0.743730
1.170	7.923406	0.539171	537.226950	3.953181	21.127399	0.789884	-3.932677	0.735849
1.180	7.885711	0.537583	537.869060	3.907832	21.170302	0.802692	-3.935958	0.726540
1.190	7.872206	0.549234	538.422046	3.857239	21.204352	0.816076	-3.938240	0.716397
1.200	7.875335	0.571076	538.834117	3.806575	21.226585	0.827607	-3.939354	0.706446
1.210	7.888019	0.598587	539.066375	3.761941	21.235501	0.834750	-3.939311	0.697862
1.220	7.906059	0.627299	539.101797	3.728212	21.231331	0.835621	-3.938279	0.691560
1.230	7.929131	0.653497	538.947703	3.707175	21.215920	0.829641	-3.936545	0.687854
1.240	7.960099	0.674245	538.630150	3.697005	21.192332	0.817860	-3.934487	0.686372
1.250	8.002842	0.687361	538.184077	3.693418	21.164318	0.802822	-3.932543	0.686274
1.260	8.059477	0.691801	537.645433	3.691808	21.135843	0.787959	-3.931186	0.686662
1.270	8.128167	0.688433	537.049175	3.689161	21.110816	0.776667	-3.930891	0.686932
1.280	8.202486	0.680679	536.432117	3.684826	21.092947	0.771347	-3.932081	0.686914
1.290	8.272745	0.674221	535.836004	3.680071	21.085504	0.772781	-3.935067	0.686791
1.300	8.328919	0.675313	535.306292	3.676972	21.090914	0.780065	-3.939971	0.686891
1.310	8.363941	0.688315	534.885298	3.677384	21.110368	0.791053	-3.946709	0.687509
1.320	8.375637	0.713916	534.602316	3.682440	21.143724	0.803048	-3.955038	0.688818
1.330	8.366110	0.749172	534.465846	3.692558	21.189861	0.813490	-3.964680	0.690887
1.340	8.338943	0.789131	534.462960	3.707669	21.247364	0.820498	-3.975461	0.693719
1.350	8.296031	0.828794	534.567330	3.727399	21.315182	0.823246	-3.987371	0.697274
1.360	8.236146	0.864137	534.751996	3.751195	21.392934	0.822074	-4.000534	0.701483
1.370	8.156243	0.891985	534.999455	3.778461	21.480765	0.818258	-4.015100	0.706255
1.380	8.054820	0.909598	535.303523	3.808688	21.578946	0.813499	-4.031161	0.711501
1.390	7.935433	0.915010	535.662696	3.841545	21.687487	0.809311	-4.048721	0.717158
1.400	7.808267	0.908222	536.069411	3.876908	21.805859	0.806486	-4.067731	0.723210
1.410	7.688502	0.892451	536.501211	3.914803	21.932775	0.804794	-4.088113	0.729691
1.420	7.591701	0.874384	536.918708	3.955216	22.066022	0.803016	-4.109751	0.736651
1.430	7.527965	0.862991	537.271818	3.997711	22.202521	0.799369	-4.132456	0.744076
1.440	7.497343	0.867321	537.511850	4.041009	22.338810	0.792225	-4.155966	0.751799
1.450	7.488664	0.894225	537.605081	4.082720	22.471916	0.780861	-4.180004	0.759427
1.460	7.482703	0.946821	537.543736	4.119458	22.600199	0.765900	-4.204346	0.766348
1.470	7.458823	1.024003	537.351217	4.147381	22.723730	0.749269	-4.228841	0.771819
1.480	7.402626	1.120829	537.079374	4.163038	22.843947	0.733706	-4.253365	0.775125
1.490	7.311435	1.229564	536.797502	4.164227	22.962709	0.721986	-4.277723	0.775754
1.500	7.195314	1.341182	536.575560	4.150476	23.081107	0.716120	-4.301558	0.773512
1.510	7.073267	1.447068	536.466496	4.122989	23.198523	0.716774	-4.324319	0.768545
1.520	6.966187	1.540434	536.493478	4.084176	23.312373	0.723085	-4.345323	0.761272
1.530	6.889295	1.617052	536.646596	4.037027	23.418728	0.732952	-4.363901	0.752269
1.540	6.847041	1.675136	536.890288	3.984423	23.513506	0.743703	-4.379574	0.742130
1.550	6.832399	1.714571	537.178180	3.928445	23.593652	0.752897	-4.392146	0.731311
1.560	6.830426	1.735943	537.468557	3.869911	23.657750	0.759009	-4.401699	0.720026
1.570	6.824018	1.739910	537.734038	3.808373	23.705943	0.761763	-4.408488	0.708226
1.580	6.799409	1.727163	537.963406	3.742577	23.739383	0.762014	-4.412825	0.695694
1.590	6.749861	1.698685	538.158313	3.671092	23.759549	0.761275	-4.414974	0.682158
1.600	6.677227	1.655830	538.328690	3.592885	23.767624	0.761160	-4.415077	0.667415
1.610	6.591638	1.600114	538.488272	3.507689	23.763992	0.762958	-4.413094	0.651396
1.620	6.509564	1.533013	538.649014	3.416128	23.747891	0.767424	-4.408788	0.634203
1.630	6.450510	1.456057	538.813490	3.319561	23.717381	0.774723	-4.401779	0.616087
1.640	6.432777	1.371141	538.967219	3.219757	23.669830	0.784491	-4.391701	0.597394
1.650	6.469036	1.280839	539.075544	3.118641	23.602881	0.795967	-4.378399	0.578517
1.660	6.562860	1.188590	539.089019	3.018175	23.515570	0.808168	-4.362094	0.559866
1.670	6.707442	1.098702	538.957279	2.920266	23.409118	0.820049	-4.343409	0.541836
1.680	6.887258	1.016065	538.646689	2.826559	23.287076	0.830584	-4.323256	0.524752
1.690	7.082359	0.945473	538.154504	2.738104	23.154841	0.838777	-4.302638	0.508795
1.700	7.273696	0.890609	537.513235	2.655097	23.018789	0.843708	-4.282460	0.493959
1.710	7.447264	0.853030	536.782929	2.576778	22.885388	0.844707	-4.263434	0.480041
1.720	7.595670	0.831445	536.034593	2.501530	22.760505	0.841666	-4.246089	0.466673
1.730	7.717324	0.821552	535.332392	2.427201	22.648978	0.835296	-4.230825	0.453401
1.740	7.814560	0.816592	534.722610	2.351736	22.554419	0.827107	-4.217966	0.439805
1.750	7.891795	0.808625	534.232653	2.273898	22.479210	0.819014	-4.207757	0.425638
1.760	7.954075	0.790226	533.876986	2.193600	22.424557	0.812765	-4.200323	0.410881
1.770	8.005955	0.756066	533.663772	2.111484	22.390458	0.809480	-4.195611	0.395658
1.780	8.050734	0.703959	533.597715	2.028012	22.375553	0.809478	-4.193338	0.380064
1.790	8.090063	0.635264	533.678795	1.942764	22.377061	0.812408	-4.192983	0.364033
1.800	8.123838	0.554590	533.899930	1.854416	22.391062	0.817523	-4.193869	0.347334
1.810	8.150267	0.468738	534.246729	1.761409	22.413205	0.823936	-4.195291	0.329699
1.820	8.166221	0.384898	534.699926	1.662919	22.439642	0.830746	-4.196679	0.311000
1.830	8.168131	0.308587	535.238284	1.559646	22.467780	0.837040	-4.197715	0.291393
1.840	8.153470	0.242320	535.839085	1.454071	22.496530	0.841869	-4.198374	0.271363
1.850	8.122271	0.185765	536.475082	1.350043	22.525929	0.844346	-4.198877	0.251651
1.860	8.077790	0.137140	537.110053	1.251788	22.556345	0.843858	-4.199576	0.233060
1.870	8.025832	0.094673	537.697628	1.162656	22.587652	0.840298	-4.200809	0.216229
1.880	7.973140	0.057032	538.186812	1.084036	22.618683	0.834155	-4.202757	0.201424
1.890	7.925768	0.022649	538.532456	1.014881	22.647119	0.826408	-4.205340	0.188453
1.900	7.888124	-0.011190	538.705003	0.952022	22.669850	0.818272	-4.208212	0.176724
1.910	7.862814	-0.048577	538.695152	0.891156	22.683835	0.810972	-4.210885	0.165429
1.920	7.851012	-0.094201	538.513493	0.828129	22.687289	0.805601	-4.212947	0.153781
1.930	7.853029	-0.151885	538.187483	0.760157	22.680723	0.803080	-4.214279	0.141244
1.940	7.868799	-0.222929	537.757148	0.686636	22.667251	0.804116	-4.215146	0.127685
1.950	7.897988	-0.304705	537.269375	0.609297	22.651876	0.809074	-4.216112	0.113406
1.960	7.939489	-0.390047	536.770869	0.531632	22.640072	0.817751	-4.217828	0.099043
1.970	7.990336	-0.468195	536.301145	0.457793	22.636338	0.829184	-4.220826	0.085361
1.980	8.044649	-0.527620	535.887590	0.391297	22.643248	0.841699	-4.225373	0.073019
1.990	8.093745	-0.559838	535.544092	0.333871	22.661177	0.853296	-4.231431	0.062342
2.000	8.128162	-0.562385	535.273153	0.284664	22.688639	0.862233	-4.238703	0.053181
2.010	8.141080	-0.539555	535.069870	0.240092	22.723064	0.867570	-4.246747	0.044871
2.020	8.131329	-0.500969	534.925486	0.194546	22.761787	0.869449	-4.255132	0.036369
2.030	8.104098	-0.459161	534.828885	0.141954	22.803006	0.869077	-4.263608	0.026542
2.040	8.068670	-0.427296	534.766721	0.077661	22.846404	0.868443	-4.272219	0.014522
2.050	8.034138	-0.417345	534.725066	-0.000137	22.893291	0.869829	-4.281320	-0.000026
2.060	8.005184	-0.438496	534.694896	-0.089941	22.946244	0.875141	-4.291465	-0.016821
2.070	7.980037	-0.495623	534.679512	-0.187496	23.008459	0.885268	-4.303224	-0.035067
2.080	7.951608	-0.588041	534.698238	-0.286947	23.083066	0.899759	-4.317027	-0.053665
2.090	7.910932	-0.709039	534.781813	-0.382119	23.172609	0.917030	-4.333096	-0.071453
2.100	7.850772	-0.846624	534.960226	-0.467626	23.278699	0.935041	-4.351482	-0.087413
2.110	7.767417	-0.985541	535.248782	-0.539677	23.401737	0.952073	-4.372123	-0.100827
2.120	7.660414	-1.110256	535.639326	-0.596538	23.540580	0.967194	-4.394856	-0.111369
2.130	7.531712	-1.208322	536.101016	-0.638536	23.692259	0.980181	-4.419365	-0.119107
2.140	7.385743	-1.273226	536.590414	-0.667509	23.851976	0.991042	-4.445099	-0.124398
2.150	7.230416	-1.305584	537.066056	-0.685799	24.013521	0.999537	-4.471242	-0.127694
2.160	7.077321	-1.312006	537.500107	-0.695148	24.170086	1.005055	-4.496759	-0.129330
2.170	6.939547	-1.302080	537.881292	-0.695984	24.315229	1.006935	-4.520557	-0.129394
2.180	6.827437	-1.284864	538.208477	-0.687431	24.443809	1.005017	-4.541699	-0.127726
2.190	6.744556	-1.266314	538.479823	-0.668044	24.552735	1.000043	-4.559639	-0.124061
2.200	6.686410	-1.248366	538.684843	-0.636878	24.641342	0.993622	-4.574352	-0.118228
2.210	6.642703	-1.229598	538.804476	-0.594392	24.711144	0.987726	-4.586292	-0.110317
2.220	6.601824	-1.206847	538.818759	-0.542780	24.764864	0.983984	-4.596140	-0.100735
2.230	6.555188	-1.176914	538.717038	-0.485543	24.805077	0.983122	-4.604472	-0.090130
2.240	6.499780	-1.137518	538.505190	-0.426392	24.833116	0.984804	-4.611491	-0.079181
2.250	6.438680	-1.087166	538.207382	-0.367865	24.848752	0.987893	-4.616947	-0.068350
2.260	6.380171	-1.024465	537.862848	-0.310223	24.850675	0.990952	-4.620262	-0.057677
2.270	6.335935	-0.947882	537.519087	-0.251089	24.837414	0.992741	-4.620750	-0.046713
2.280	6.318388	-0.856540	537.222733	-0.186034	24.808294	0.992526	-4.617879	-0.034629
2.290	6.337380	-0.751536	537.009432	-0.110013	24.764137	0.990113	-4.611490	-0.020486
2.300	6.396988	-0.636614	536.894629	-0.019167	24.707487	0.985685	-4.601925	-0.003570
2.310	6.493566	-0.517505	536.867599	0.087788	24.642177	0.979562	-4.589992	0.016352
2.320	6.616080	-0.400203	536.891136	0.209214	24.572334	0.972034	-4.576781	0.038968
2.330	6.748976	-0.288981	536.908819	0.341299	24.501273	0.963328	-4.563396	0.063567
2.340	6.876716	-0.185033	536.859885	0.479354	24.430957	0.953700	-4.550714	0.089288
2.350	6.988104	-0.086568	536.698261	0.618981	24.362317	0.943528	-4.539295	0.115331
2.360	7.078579	0.009290	536.408928	0.756573	24.296174	0.933343	-4.529413	0.141044
2.370	7.149764	0.103597	536.014664	0.889088	24.234066	0.923771	-4.521157	0.165870
2.380	7.207150	0.193477	535.570169	1.013494	24.178437	0.915439	-4.514523	0.189237
2.390	7.257328	0.272388	535.146258	1.126549	24.132109	0.908905	-4.509442	0.210512
2.400	7.305652	0.332917	534.810365	1.225325	24.097402	0.904577	-4.505784	0.229114
2.410	7.354452	0.370696	534.609911	1.308333	24.075379	0.902587	-4.503354	0.244727
