Time[s]	Fx[N]	Fy[N]	Fz[N]	Mx[Nm]	My[Nm]	Mz[Nm]	COPx[cm]	COPy[cm]
0.010	2.171229	-0.789531	620.033010	-3.079597	-0.762635	0.321902	0.122999	-0.496683
0.020	2.125834	-0.763265	620.358120	-3.078675	-0.770528	0.348717	0.124207	-0.496274
0.030	2.080849	-0.740586	620.645157	-3.078109	-0.777257	0.372706	0.125234	-0.495953
0.040	2.037776	-0.723543	620.861145	-3.077740	-0.782991	0.391676	0.126114	-0.495721
0.050	1.999680	-0.712406	620.981977	-3.077470	-0.789821	0.404646	0.127189	-0.495581
0.060	1.970039	-0.706661	620.994414	-3.077670	-0.801361	0.412031	0.129045	-0.495604
0.070	1.950959	-0.706348	620.896838	-3.079509	-0.821489	0.415485	0.132307	-0.495978
0.080	1.942099	-0.712416	620.698669	-3.084963	-0.852783	0.417440	0.137391	-0.497015
0.090	1.941047	-0.725624	620.418000	-3.096473	-0.895305	0.420436	0.144307	-0.499095
0.100	1.944792	-0.744900	620.078143	-3.116392	-0.946174	0.426376	0.152590	-0.502581
0.110	1.951267	-0.766625	619.704920	-3.146408	-1.000089	0.435915	0.161381	-0.507727
0.120	1.960125	-0.785619	619.325544	-3.187054	-1.050569	0.448198	0.169631	-0.514601
0.130	1.972385	-0.797237	618.967781	-3.237429	-1.091528	0.461067	0.176346	-0.523037
0.140	1.989156	-0.799289	618.657717	-3.295228	-1.118694	0.471687	0.180826	-0.532642
0.150	2.010054	-0.792732	618.416552	-3.357052	-1.130540	0.477374	0.182812	-0.542846
0.160	2.032045	-0.780962	618.258787	-3.418864	-1.128471	0.476383	0.182524	-0.552983
0.170	2.049295	-0.768310	618.193498	-3.476473	-1.116222	0.468442	0.180562	-0.562360
0.180	2.054363	-0.758707	618.227010	-3.526085	-1.098620	0.454856	0.177705	-0.570354
0.190	2.040633	-0.755181	618.362850	-3.564969	-1.080122	0.438163	0.174675	-0.576517
0.200	2.005267	-0.760093	618.596580	-3.592117	-1.063617	0.421384	0.171940	-0.580688
0.210	1.951233	-0.775447	618.908227	-3.608678	-1.049973	0.407128	0.169649	-0.583072
0.220	1.887198	-0.802701	619.258581	-3.617898	-1.038473	0.396879	0.167696	-0.584231
0.230	1.825151	-0.841962	619.594411	-3.624455	-1.027774	0.390754	0.165878	-0.584972
0.240	1.776763	-0.891089	619.862508	-3.633237	-1.016726	0.387760	0.164024	-0.586136
0.250	1.749888	-0.945437	620.026840	-3.647923	-1.004578	0.386388	0.162022	-0.588349
0.260	1.746378	-0.998632	620.080378	-3.669951	-0.990653	0.385230	0.159762	-0.591851
0.270	1.761898	-1.044002	620.045494	-3.698404	-0.973982	0.383401	0.157082	-0.596473
0.280	1.787717	-1.076004	619.962933	-3.730865	-0.953310	0.380682	0.153769	-0.601788
0.290	1.813530	-1.091398	619.875263	-3.764769	-0.927463	0.377429	0.149621	-0.607343
0.300	1.829943	-1.090415	619.812653	-3.798478	-0.895812	0.374353	0.144530	-0.612843
0.310	1.829813	-1.077817	619.786271	-3.831688	-0.858514	0.372253	0.138518	-0.618227
0.320	1.808800	-1.063117	619.790063	-3.865244	-0.816526	0.371797	0.131742	-0.623638
0.330	1.766036	-1.059140	619.808462	-3.900823	-0.771589	0.373415	0.124488	-0.629359
0.340	1.705248	-1.078815	619.826291	-3.940667	-0.726323	0.377310	0.117182	-0.635770
0.350	1.635581	-1.131131	619.836714	-3.987167	-0.684295	0.383503	0.110399	-0.643261
0.360	1.570716	-1.217765	619.843590	-4.042030	-0.649632	0.391835	0.104806	-0.652105
0.370	1.525584	-1.331779	619.857552	-4.105198	-0.625970	0.401941	0.100986	-0.662281
0.380	1.511453	-1.459076	619.889184	-4.174125	-0.615009	0.413245	0.099213	-0.673366
0.390	1.531468	-1.582235	619.943917	-4.244002	-0.615423	0.425013	0.099271	-0.684578
0.400	1.578754	-1.685374	620.020867	-4.308960	-0.622773	0.436424	0.100444	-0.694970
0.410	1.638076	-1.758222	620.114733	-4.363850	-0.630521	0.446661	0.101678	-0.703717
0.420	1.690396	-1.798079	620.218539	-4.405945	-0.631790	0.454961	0.101866	-0.710386
0.430	1.718492	-1.809380	620.325362	-4.435921	-0.621294	0.460601	0.100156	-0.715096
0.440	1.711697	-1.801478	620.428620	-4.457656	-0.596946	0.462859	0.096215	-0.718480
0.450	1.668442	-1.785406	620.521703	-4.476832	-0.560607	0.461066	0.090344	-0.721463
0.460	1.596103	-1.770368	620.597841	-4.498857	-0.517578	0.454817	0.083400	-0.724923
0.470	1.508349	-1.760862	620.650329	-4.526962	-0.474808	0.444248	0.076502	-0.729390
0.480	1.420922	-1.755494	620.672843	-4.561215	-0.438491	0.430168	0.070648	-0.734882
0.490	1.347143	-1.748121	620.659775	-4.598722	-0.412079	0.413929	0.066394	-0.740941
0.500	1.294444	-1.730999	620.607040	-4.634718	-0.395546	0.397056	0.063735	-0.746804
0.510	1.262849	-1.698676	620.513749	-4.663995	-0.386020	0.380851	0.062210	-0.751634
0.520	1.245843	-1.651059	620.384360	-4.682150	-0.379380	0.366158	0.061152	-0.754718
0.530	1.233351	-1.594421	620.229885	-4.686448	-0.372097	0.353351	0.059993	-0.755598
0.540	1.215725	-1.539823	620.066829	-4.676281	-0.362663	0.342461	0.058488	-0.754158
0.550	1.187129	-1.499352	619.914001	-4.653286	-0.352183	0.333352	0.056812	-0.750634
0.560	1.147089	-1.481461	619.788942	-4.621069	-0.344006	0.325848	0.055504	-0.745588
0.570	1.100072	-1.487382	619.705805	-4.584455	-0.342723	0.319794	0.055304	-0.739779
0.580	1.053757	-1.510467	619.675056	-4.548308	-0.352980	0.315061	0.056962	-0.733983
0.590	1.016852	-1.538958	619.703673	-4.516186	-0.378483	0.311541	0.061075	-0.728765
0.600	0.997040	-1.560732	619.793793	-4.489294	-0.421347	0.309211	0.067982	-0.724321
0.610	0.999486	-1.567412	619.938772	-4.466161	-0.481853	0.308266	0.077726	-0.720420
0.620	1.026085	-1.556014	620.118649	-4.443228	-0.558630	0.309190	0.090084	-0.716513
0.630	1.075532	-1.528115	620.299774	-4.416164	-0.649070	0.312624	0.104638	-0.711940
0.640	1.144147	-1.487875	620.442193	-4.381445	-0.749774	0.319024	0.120845	-0.706181
0.650	1.227196	-1.440306	620.513269	-4.337615	-0.856891	0.328278	0.138094	-0.699037
0.660	1.320181	-1.390275	620.501445	-4.285674	-0.966466	0.339500	0.155756	-0.690679
0.670	1.419692	-1.341956	620.423756	-4.228364	-1.074913	0.351131	0.173255	-0.681528
0.680	1.523630	-1.298321	620.323276	-4.168808	-1.179557	0.361272	0.190152	-0.672038
0.690	1.630969	-1.260641	620.255859	-4.109398	-1.278999	0.368161	0.206205	-0.662533
0.700	1.741374	-1.228360	620.269341	-4.051639	-1.373057	0.370680	0.221365	-0.653206
0.710	1.854944	-1.199558	620.382874	-3.996793	-1.462183	0.368742	0.235690	-0.644246
0.720	1.971982	-1.171759	620.575950	-3.946605	-1.546524	0.363385	0.249208	-0.635958
0.730	2.092416	-1.142617	620.793050	-3.903354	-1.625011	0.356488	0.261764	-0.628769
0.740	2.214667	-1.110321	620.962302	-3.869087	-1.694948	0.350204	0.272955	-0.623079
0.750	2.334342	-1.073987	621.019994	-3.844519	-1.752431	0.346330	0.282186	-0.619065
0.760	2.443586	-1.034200	620.931008	-3.828377	-1.793496	0.345833	0.288840	-0.616554
0.770	2.531837	-0.993437	620.698357	-3.817750	-1.815454	0.348688	0.292486	-0.615073
0.780	2.587918	-0.955865	620.360222	-3.809294	-1.817804	0.354031	0.293024	-0.614046
0.790	2.602625	-0.926304	619.977282	-3.800664	-1.802444	0.360500	0.290727	-0.613033
0.800	2.570883	-0.908729	619.615543	-3.791408	-1.773322	0.366591	0.286197	-0.611897
0.810	2.493143	-0.904964	619.330208	-3.782894	-1.735785	0.370905	0.280268	-0.610804
0.820	2.376121	-0.914165	619.154730	-3.777345	-1.695885	0.372298	0.273903	-0.610081
0.830	2.232699	-0.933204	619.097031	-3.776521	-1.659708	0.370073	0.268085	-0.610005
0.840	2.080405	-0.957639	619.142642	-3.780827	-1.632717	0.364252	0.263706	-0.610655
0.850	1.938301	-0.982851	619.262434	-3.789277	-1.619033	0.355796	0.261445	-0.611902
0.860	1.823103	-1.005037	619.421160	-3.800186	-1.620677	0.346574	0.261644	-0.613506
0.870	1.746008	-1.021816	619.583931	-3.812036	-1.637005	0.338972	0.264210	-0.615257
0.880	1.711266	-1.032150	619.720738	-3.824059	-1.664705	0.335264	0.268622	-0.617062
0.890	1.716539	-1.035713	619.811334	-3.836392	-1.698542	0.337005	0.274042	-0.618961
0.900	1.754487	-1.032351	619.851399	-3.849864	-1.732696	0.344627	0.279534	-0.621095
0.910	1.814920	-1.022319	619.856893	-3.865529	-1.762296	0.357306	0.284307	-0.623616
0.920	1.887074	-1.007261	619.861158	-3.884096	-1.784645	0.373114	0.287910	-0.626607
0.930	1.961624	-0.991130	619.902346	-3.905495	-1.799721	0.389419	0.290323	-0.630018
0.940	2.032117	-0.979973	620.005547	-3.928818	-1.809798	0.403461	0.291900	-0.633675
0.950	2.095685	-0.980157	620.168792	-3.952645	-1.818378	0.412933	0.293207	-0.637350
0.960	2.152954	-0.995743	620.360511	-3.975512	-1.828835	0.416463	0.294802	-0.640839
0.970	2.207023	-1.026495	620.529775	-3.996291	-1.843194	0.413899	0.297036	-0.644013
0.980	2.261583	-1.067748	620.624445	-4.014471	-1.861349	0.406386	0.299916	-0.646844
0.990	2.318712	-1.112247	620.609552	-4.030326	-1.880884	0.396180	0.303070	-0.649414
1.000	2.377205	-1.152946	620.478967	-4.044767	-1.897558	0.386202	0.305821	-0.651878
1.010	2.432226	-1.185387	620.256780	-4.058692	-1.906361	0.379447	0.307350	-0.654357
1.020	2.476569	-1.208823	619.989323	-4.072124	-1.902835	0.378322	0.306914	-0.656806
1.030	2.503221	-1.226042	619.732553	-4.083767	-1.884162	0.384033	0.304028	-0.658956
1.040	2.508218	-1.242254	619.539935	-4.091347	-1.849645	0.396193	0.298551	-0.660385
1.050	2.492410	-1.263323	619.453056	-4.092562	-1.800450	0.412830	0.290652	-0.660674
1.060	2.461077	-1.293642	619.494666	-4.086081	-1.738915	0.430877	0.280699	-0.659583
1.070	2.421537	-1.334279	619.664260	-4.072137	-1.667809	0.447003	0.269147	-0.657152
1.080	2.380086	-1.382173	619.937795	-4.052581	-1.589876	0.458507	0.256457	-0.653708
1.090	2.339916	-1.430813	620.272494	-4.030515	-1.507687	0.463933	0.243069	-0.649797
1.100	2.300923	-1.472045	620.615146	-4.009692	-1.423640	0.463254	0.229392	-0.646084
1.110	2.261167	-1.498204	620.910921	-3.993910	-1.339945	0.457670	0.215803	-0.643234
1.120	2.218841	-1.503971	621.110947	-3.986394	-1.258484	0.449164	0.202618	-0.641817
1.130	2.173528	-1.487744	621.178976	-3.989167	-1.180571	0.439908	0.190053	-0.642193
1.140	2.126151	-1.452249	621.098008	-4.002493	-1.106695	0.431576	0.178184	-0.644422
1.150	2.078012	-1.404136	620.876275	-4.024717	-1.036382	0.424766	0.166922	-0.648232
1.160	2.029751	-1.352606	620.550138	-4.052704	-0.968244	0.418853	0.156030	-0.653082
1.170	1.980753	-1.307496	620.180809	-4.082751	-0.900209	0.412442	0.145153	-0.658316
1.180	1.929095	-1.277180	619.842943	-4.111628	-0.829882	0.404208	0.133886	-0.663334
1.190	1.871972	-1.266444	619.606426	-4.137391	-0.755029	0.393667	0.121856	-0.667745
1.200	1.806568	-1.274660	619.516924	-4.159692	-0.674172	0.381487	0.108822	-0.671441
1.210	1.731049	-1.295178	619.583193	-4.179494	-0.587151	0.369262	0.094765	-0.674565
1.220	1.645153	-1.316933	619.776920	-4.198340	-0.495401	0.358909	0.079932	-0.677395
1.230	1.550206	-1.328360	620.044534	-4.217484	-0.401797	0.351991	0.064801	-0.680191
1.240	1.448942	-1.322151	620.324382	-4.237196	-0.310108	0.349231	0.049991	-0.683061
1.250	1.345701	-1.298530	620.561532	-4.256465	-0.224275	0.350358	0.036141	-0.685905
1.260	1.247067	-1.265290	620.716599	-4.273179	-0.147655	0.354315	0.023788	-0.688427
1.270	1.162223	-1.234497	620.769600	-4.284736	-0.082346	0.359729	0.013265	-0.690230
1.280	1.101740	-1.217463	620.720753	-4.288925	-0.028717	0.365457	0.004626	-0.690959
1.290	1.074171	-1.220384	620.588237	-4.284858	0.014638	0.370950	-0.002359	-0.690451
1.300	1.081607	-1.242432	620.402343	-4.273587	0.050480	0.376280	-0.008137	-0.688841
1.310	1.116958	-1.276686	620.197554	-4.258015	0.082253	0.381846	-0.013262	-0.686558
1.320	1.165185	-1.312948	620.006302	-4.241946	0.113540	0.387957	-0.018313	-0.684178
1.330	1.208227	-1.341055	619.857243	-4.228633	0.147810	0.394532	-0.023846	-0.682195
1.340	1.231011	-1.353650	619.776987	-4.219536	0.188164	0.401079	-0.030360	-0.680815
1.350	1.225613	-1.347915	619.790468	-4.213897	0.236794	0.406960	-0.038205	-0.679891
1.360	1.192215	-1.326080	619.915017	-4.209312	0.294169	0.411736	-0.047453	-0.679014
1.370	1.137372	-1.294608	620.147942	-4.202944	0.358449	0.415403	-0.057801	-0.677733
1.380	1.071018	-1.262193	620.454386	-4.192753	0.425594	0.418355	-0.068594	-0.675755
1.390	1.003515	-1.237018	620.765899	-4.178103	0.490277	0.421131	-0.078979	-0.673056
1.400	0.943394	-1.224186	620.995819	-4.159543	0.547239	0.424035	-0.088123	-0.669818
1.410	0.895905	-1.224436	621.066814	-4.138052	0.592592	0.426849	-0.095415	-0.666281
1.420	0.862455	-1.234692	620.937056	-4.114303	0.624653	0.428755	-0.100598	-0.662596
1.430	0.841080	-1.249925	620.611872	-4.088280	0.644085	0.428561	-0.103782	-0.658750
1.440	0.827846	-1.265110	620.137147	-4.059289	0.653333	0.425128	-0.105353	-0.654579
1.450	0.818614	-1.276360	619.581536	-4.026263	0.655657	0.417823	-0.105823	-0.649836
1.460	0.810484	-1.281118	619.018652	-3.988279	0.654238	0.406835	-0.105690	-0.644291
1.470	0.802523	-1.277907	618.516095	-3.945224	0.651768	0.393260	-0.105376	-0.637853
1.480	0.795625	-1.266182	618.130736	-3.898387	0.650503	0.378958	-0.105237	-0.630674
1.490	0.791629	-1.246538	617.905651	-3.850585	0.652457	0.366147	-0.105592	-0.623167
1.500	0.791965	-1.221117	617.865439	-3.805471	0.659409	0.356774	-0.106724	-0.615906
1.510	0.796379	-1.193707	618.010930	-3.766155	0.672615	0.351850	-0.108836	-0.609399
1.520	0.802503	-1.168990	618.317440	-3.733810	0.692344	0.351012	-0.111972	-0.603866
1.530	0.807001	-1.150894	618.739869	-3.706978	0.717405	0.352580	-0.115946	-0.599117
1.540	0.808108	-1.140833	619.223197	-3.681958	0.744887	0.354151	-0.120294	-0.594609
1.550	0.808119	-1.136918	619.712873	-3.654108	0.770307	0.353519	-0.124301	-0.589645
1.560	0.813899	-1.134694	620.160437	-3.619568	0.788297	0.349525	-0.127112	-0.583650
1.570	0.834533	-1.128954	620.524607	-3.576744	0.793773	0.342445	-0.127920	-0.576406
1.580	0.877048	-1.115673	620.771926	-3.526982	0.783316	0.333766	-0.126184	-0.568161
1.590	0.942384	-1.093308	620.880495	-3.474158	0.756387	0.325527	-0.121825	-0.559553
1.600	1.023815	-1.063147	620.846222	-3.423339	0.715931	0.319565	-0.115315	-0.551399
1.610	1.108779	-1.028699	620.687346	-3.379025	0.668078	0.316935	-0.107635	-0.544400
1.620	1.183238	-0.994235	620.442820	-3.343649	0.620843	0.317630	-0.100064	-0.538913
1.630	1.236271	-0.963020	620.163749	-3.316887	0.582126	0.320638	-0.093867	-0.534841
1.640	1.262721	-0.936003	619.901112	-3.295959	0.557671	0.324380	-0.089961	-0.531691
1.650	1.263260	-0.911690	619.694509	-3.276762	0.549668	0.327421	-0.088700	-0.528771
1.660	1.242826	-0.887371	619.565617	-3.255379	0.556456	0.329146	-0.089814	-0.525429
1.670	1.208828	-0.861138	619.517767	-3.229411	0.573242	0.329964	-0.092530	-0.521278
1.680	1.169946	-0.833405	619.540555	-3.198610	0.593377	0.330891	-0.095777	-0.516287
1.690	1.135536	-0.806759	619.616210	-3.164665	0.609664	0.332771	-0.098394	-0.510746
1.700	1.115045	-0.784100	619.724024	-3.130292	0.615383	0.335666	-0.099299	-0.505111
1.710	1.116692	-0.766373	619.841677	-3.098041	0.604972	0.338800	-0.097601	-0.499812
1.720	1.145244	-0.751567	619.945534	-3.069324	0.574538	0.341010	-0.092676	-0.495096
1.730	1.199704	-0.735694	620.012711	-3.044103	0.522371	0.341388	-0.084252	-0.490974
1.740	1.272354	-0.715161	620.025833	-3.021411	0.449480	0.339744	-0.072494	-0.487304
1.750	1.350167	-0.689187	619.979139	-3.000389	0.359818	0.336751	-0.058037	-0.483950
1.760	1.418595	-0.660920	619.883059	-2.981184	0.259773	0.333740	-0.041907	-0.480927
1.770	1.466689	-0.636456	619.763945	-2.965130	0.156761	0.332265	-0.025294	-0.478429
1.780	1.491648	-0.622035	619.657393	-2.954113	0.057281	0.333548	-0.009244	-0.476733
1.790	1.500619	-0.620835	619.597271	-2.949517	-0.034880	0.337987	0.005629	-0.476038
1.800	1.508520	-0.631315	619.605236	-2.951351	-0.119526	0.344885	0.019291	-0.476328
1.810	1.532602	-0.648191	619.684993	-2.957963	-0.199565	0.352498	0.032204	-0.477333
1.820	1.586094	-0.665339	619.822456	-2.966485	-0.279334	0.358431	0.045067	-0.478602
1.830	1.673431	-0.678496	619.990570	-2.973871	-0.362392	0.360303	0.058451	-0.479664
1.840	1.788565	-0.685912	620.157013	-2.978239	-0.449738	0.356548	0.072520	-0.480239
1.850	1.916529	-0.686911	620.292790	-2.979996	-0.539163	0.347145	0.086921	-0.480418
1.860	2.037561	-0.680160	620.378889	-2.982201	-0.625945	0.333940	0.100897	-0.480706
1.870	2.132709	-0.663410	620.408104	-2.989774	-0.704440	0.320326	0.113545	-0.481904
1.880	2.189525	-0.634991	620.381706	-3.007699	-0.769833	0.310263	0.124090	-0.484814
1.890	2.206045	-0.595934	620.304260	-3.038855	-0.819432	0.307018	0.132102	-0.489897
1.900	2.191430	-0.551261	620.181116	-3.082403	-0.853276	0.312132	0.137585	-0.497017
1.910	2.162683	-0.509585	620.020205	-3.133463	-0.874087	0.325057	0.140977	-0.505381
1.920	2.138580	-0.481085	619.835501	-3.184321	-0.886626	0.343479	0.143042	-0.513736
1.930	2.133325	-0.474632	619.648183	-3.226809	-0.896511	0.364102	0.144681	-0.520749
1.940	2.152472	-0.495089	619.483964	-3.254981	-0.908658	0.383508	0.146680	-0.525434
1.950	2.192431	-0.541599	619.368528	-3.267065	-0.925790	0.398835	0.149473	-0.527483
1.960	2.243153	-0.607305	619.324105	-3.265984	-0.947543	0.408192	0.152996	-0.527347
1.970	2.292414	-0.680599	619.368444	-3.258233	-0.970544	0.410822	0.156699	-0.526057
1.980	2.329870	-0.747828	619.514675	-3.251573	-0.989459	0.407104	0.159715	-0.524858
1.990	2.349632	-0.796987	619.769311	-3.252498	-0.998713	0.398400	0.161143	-0.524792
2.000	2.351013	-0.821393	620.126852	-3.264481	-0.994318	0.386779	0.160341	-0.526421
2.010	2.337758	-0.822083	620.562255	-3.287623	-0.975225	0.374624	0.157152	-0.529781
2.020	2.316216	-0.807840	621.025487	-3.319578	-0.943736	0.364178	0.151964	-0.534532
2.030	2.292958	-0.792488	621.444196	-3.357059	-0.904798	0.357094	0.145596	-0.540203
2.040	2.272652	-0.790154	621.738151	-3.397092	-0.864425	0.354079	0.139034	-0.546386
2.050	2.257276	-0.810244	621.841992	-3.437502	-0.827825	0.354745	0.133125	-0.552793
2.060	2.247081	-0.854285	621.726097	-3.476702	-0.797936	0.357721	0.128342	-0.559201
2.070	2.242404	-0.915980	621.405377	-3.513244	-0.774801	0.361010	0.124685	-0.565371
2.080	2.244661	-0.984213	620.932841	-3.545644	-0.755849	0.362557	0.121728	-0.571019
2.090	2.255563	-1.047427	620.382888	-3.572710	-0.736811	0.360932	0.118767	-0.575888
2.100	2.275134	-1.097397	619.832777	-3.594238	-0.712909	0.355881	0.115016	-0.579872
2.110	2.299961	-1.131118	619.348754	-3.611577	-0.679974	0.348458	0.109789	-0.583125
2.120	2.322883	-1.150672	618.978934	-3.627508	-0.635255	0.340613	0.102630	-0.586047
2.130	2.334469	-1.161686	618.751232	-3.645276	-0.577742	0.334445	0.093372	-0.589134
2.140	2.325815	-1.171203	618.673221	-3.667234	-0.508005	0.331464	0.082112	-0.592758
2.150	2.291470	-1.185633	618.732362	-3.693924	-0.427676	0.332102	0.069121	-0.597015
2.160	2.231215	-1.209228	618.897965	-3.724132	-0.338837	0.335602	0.054748	-0.601736
2.170	2.149938	-1.243259	619.127053	-3.755773	-0.243659	0.340273	0.039355	-0.606624
2.180	2.055789	-1.285852	619.373619	-3.786916	-0.144414	0.344061	0.023316	-0.611411
2.190	1.957549	-1.332347	619.597625	-3.816320	-0.043752	0.345245	0.007061	-0.615935
2.200	1.862436	-1.376209	619.770352	-3.843441	0.055129	0.342988	-0.008895	-0.620140
2.210	1.775144	-1.410659	619.876157	-3.868250	0.148771	0.337555	-0.024000	-0.624036
2.220	1.697880	-1.430872	619.913553	-3.891064	0.234266	0.330148	-0.037790	-0.627678
2.230	1.630612	-1.435985	619.897099	-3.912263	0.310231	0.322475	-0.050046	-0.631115
2.240	1.571098	-1.429722	619.857457	-3.931751	0.377402	0.316191	-0.060885	-0.634299
2.250	1.515141	-1.419073	619.835274	-3.948307	0.438485	0.312395	-0.070742	-0.636993
2.260	1.457772	-1.411474	619.868164	-3.959279	0.497335	0.311345	-0.080232	-0.638729
2.270	1.395495	-1.411749	619.975622	-3.961035	0.557735	0.312510	-0.089961	-0.638902
2.280	1.328786	-1.420091	620.148881	-3.950244	0.622139	0.314876	-0.100321	-0.636983
2.290	1.263415	-1.431918	620.350482	-3.925437	0.690693	0.317360	-0.111339	-0.632777
2.300	1.209405	-1.439732	620.524363	-3.888001	0.760968	0.319147	-0.122633	-0.626567
2.310	1.177607	-1.436304	620.613698	-3.841969	0.828710	0.319844	-0.133531	-0.619060
2.320	1.175193	-1.417989	620.580910	-3.792659	0.889458	0.319427	-0.143327	-0.611147
2.330	1.202058	-1.386779	620.422772	-3.744856	0.940357	0.318039	-0.151567	-0.603597
2.340	1.249742	-1.349970	620.174128	-3.701444	0.981363	0.315780	-0.158240	-0.596839
2.350	1.303370	-1.317218	619.897523	-3.663129	1.015341	0.312622	-0.163792	-0.590925
2.360	1.345893	-1.296192	619.662130	-3.629184	1.047043	0.308502	-0.168970	-0.585671
2.370	1.362913	-1.289055	619.520839	-3.598603	1.081442	0.303522	-0.174561	-0.580869
