Time[s]	Fx[N]	Fy[N]	Fz[N]	Mx[Nm]	My[Nm]	Mz[Nm]	COPx[cm]	COPy[cm]
0.010	4.723659	-1.427796	726.834214	-1.810749	-0.035175	-0.254156	0.004839	-0.249128
0.020	4.715058	-1.363222	726.817284	-1.955557	-0.035207	-0.232139	0.004844	-0.269058
0.030	4.726709	-1.305477	726.810807	-2.098854	-0.036482	-0.213538	0.005019	-0.288776
0.040	4.767767	-1.260689	726.806000	-2.239608	-0.039303	-0.200691	0.005408	-0.308144
0.050	4.831613	-1.235070	726.772690	-2.378055	-0.042547	-0.194163	0.005854	-0.327208
0.060	4.898471	-1.234195	726.663874	-2.515147	-0.043804	-0.192787	0.006028	-0.346122
0.070	4.944170	-1.261775	726.432347	-2.651591	-0.040003	-0.194293	0.005507	-0.365016
0.080	4.950333	-1.318449	726.054018	-2.787140	-0.028237	-0.196194	0.003889	-0.383875
0.090	4.911025	-1.401484	725.547261	-2.920730	-0.006448	-0.196553	0.000889	-0.402555
0.100	4.833253	-1.505947	724.977529	-3.051594	0.026222	-0.194369	-0.003617	-0.420923
0.110	4.732163	-1.627059	724.442798	-3.180762	0.069345	-0.189542	-0.009572	-0.439063
0.120	4.624198	-1.762603	724.044629	-3.311968	0.121291	-0.182587	-0.016752	-0.457426
0.130	4.521634	-1.913863	723.855780	-3.451193	0.179421	-0.174368	-0.024787	-0.476779
0.140	4.430226	-2.084117	723.895775	-3.604747	0.240410	-0.165988	-0.033211	-0.497965
0.150	4.349708	-2.274993	724.122655	-3.776475	0.300715	-0.158796	-0.041528	-0.521524
0.160	4.275863	-2.482453	724.444381	-3.965163	0.357166	-0.154362	-0.049302	-0.547338
0.170	4.203092	-2.694628	724.747634	-4.163382	0.407550	-0.154322	-0.056233	-0.574460
0.180	4.127018	-2.893108	724.935101	-4.358651	0.451008	-0.160110	-0.062214	-0.601247
0.190	4.046687	-3.057786	724.957583	-4.536865	0.487942	-0.172618	-0.067306	-0.625811
0.200	3.965547	-3.173713	724.827853	-4.686799	0.519374	-0.191859	-0.071655	-0.646609
0.210	3.890466	-3.237279	724.610479	-4.803824	0.546006	-0.216747	-0.075352	-0.662953
0.220	3.829015	-3.258835	724.392545	-4.891139	0.567569	-0.245161	-0.078351	-0.675206
0.230	3.786369	-3.260108	724.248762	-4.957862	0.582883	-0.274393	-0.080481	-0.684552
0.240	3.763403	-3.266840	724.216135	-5.014758	0.590682	-0.301863	-0.081561	-0.692439
0.250	3.756776	-3.299292	724.287693	-5.069627	0.590758	-0.325793	-0.081564	-0.699947
0.260	3.760542	-3.364406	724.425095	-5.124596	0.584798	-0.345551	-0.080726	-0.707402
0.270	3.768147	-3.453057	724.581338	-5.176412	0.576370	-0.361572	-0.079545	-0.714400
0.280	3.773770	-3.543805	724.721148	-5.219170	0.569988	-0.374941	-0.078649	-0.720162
0.290	3.772807	-3.611642	724.829648	-5.247696	0.569635	-0.386827	-0.078589	-0.723990
0.300	3.761909	-3.637859	724.907459	-5.259888	0.577487	-0.397936	-0.079664	-0.725594
0.310	3.738995	-3.616831	724.958275	-5.257117	0.593444	-0.408209	-0.081859	-0.725161
0.320	3.703253	-3.557361	724.978661	-5.242901	0.615609	-0.416869	-0.084914	-0.723180
0.330	3.655103	-3.478718	724.957453	-5.220786	0.641329	-0.422825	-0.088464	-0.720151
0.340	3.596296	-3.403318	724.885063	-5.192487	0.668211	-0.425227	-0.092182	-0.716319
0.350	3.530222	-3.348646	724.765875	-5.157023	0.694665	-0.423912	-0.095847	-0.711543
0.360	3.462107	-3.320989	724.624617	-5.110994	0.719879	-0.419497	-0.099345	-0.705330
0.370	3.398539	-3.313061	724.501273	-5.049675	0.743335	-0.413080	-0.102600	-0.696986
0.380	3.346179	-3.306379	724.436232	-4.968378	0.764202	-0.405719	-0.105489	-0.685827
0.390	3.310121	-3.277469	724.453362	-4.863455	0.780929	-0.397972	-0.107796	-0.671327
0.400	3.292601	-3.205357	724.550066	-4.732650	0.791273	-0.389716	-0.109209	-0.653185
0.410	3.292480	-3.077455	724.699303	-4.574835	0.792772	-0.380304	-0.109393	-0.631274
0.420	3.305535	-2.892025	724.861888	-4.389554	0.783497	-0.368940	-0.108089	-0.605571
0.430	3.325419	-2.657204	725.002178	-4.176990	0.762759	-0.355107	-0.105208	-0.576135
0.440	3.345135	-2.387785	725.099200	-3.938713	0.731418	-0.338878	-0.100871	-0.543196
0.450	3.358863	-2.101125	725.148887	-3.678829	0.691538	-0.321017	-0.095365	-0.507321
0.460	3.363822	-1.813239	725.158609	-3.404475	0.645423	-0.302814	-0.089004	-0.469480
0.470	3.361556	-1.535858	725.139251	-3.124803	0.594508	-0.285718	-0.081985	-0.430924
0.480	3.358110	-1.274933	725.100270	-2.848653	0.538758	-0.270878	-0.074301	-0.392863
0.490	3.362810	-1.030712	725.049818	-2.582133	0.477038	-0.258736	-0.065794	-0.356132
0.500	3.385726	-0.799203	724.997690	-2.327423	0.408199	-0.248789	-0.056303	-0.321025
0.510	3.434342	-0.574569	724.957364	-2.083341	0.332157	-0.239694	-0.045817	-0.287374
0.520	3.510604	-0.351837	724.945496	-1.847311	0.250274	-0.229805	-0.034523	-0.254821
0.530	3.609840	-0.129201	724.979596	-1.617782	0.164885	-0.218071	-0.022743	-0.223149
0.540	3.722427	0.090599	725.074342	-1.396182	0.078396	-0.204920	-0.010812	-0.192557
0.550	3.837717	0.300132	725.235668	-1.187647	-0.007556	-0.192576	0.001042	-0.163760
0.560	3.948494	0.488361	725.453058	-1.000206	-0.092577	-0.184542	0.012761	-0.137873
0.570	4.053819	0.642751	725.694339	-0.842484	-0.177535	-0.184413	0.024464	-0.116094
0.580	4.158712	0.752031	725.909038	-0.720634	-0.264087	-0.194572	0.036380	-0.099273
0.590	4.270519	0.809089	726.042164	-0.635556	-0.353758	-0.215313	0.048724	-0.087537
0.600	4.393556	0.813291	726.052543	-0.581592	-0.446857	-0.244664	0.061546	-0.080103
0.610	4.524628	0.771441	725.925577	-0.547488	-0.541716	-0.278869	0.074624	-0.075419
0.620	4.651666	0.696765	725.673694	-0.519640	-0.634643	-0.313315	0.087456	-0.071608
0.630	4.756234	0.605890	725.326447	-0.486593	-0.720639	-0.343643	0.099354	-0.067086
0.640	4.819107	0.514703	724.919126	-0.442962	-0.794620	-0.366779	0.109615	-0.061105
0.650	4.826935	0.434627	724.487995	-0.390999	-0.852761	-0.381554	0.117705	-0.053969
0.660	4.777495	0.370687	724.072711	-0.339150	-0.893554	-0.388710	0.123407	-0.046839
0.670	4.681412	0.321787	723.719391	-0.298353	-0.918196	-0.390307	0.126872	-0.041225
0.680	4.559500	0.282512	723.476965	-0.277797	-0.930136	-0.388827	0.128565	-0.038397
0.690	4.436759	0.245479	723.384967	-0.281889	-0.934006	-0.386372	0.129116	-0.038968
0.700	4.335587	0.203567	723.458138	-0.309427	-0.934483	-0.384255	0.129169	-0.042771
0.710	4.270966	0.151730	723.677412	-0.354867	-0.935529	-0.383024	0.129274	-0.049037
0.720	4.249003	0.088199	723.994427	-0.410749	-0.940080	-0.382777	0.129846	-0.056734
0.730	4.268283	0.014911	724.348585	-0.470159	-0.949916	-0.383532	0.131141	-0.064908
0.740	4.322433	-0.062845	724.687604	-0.528461	-0.965462	-0.385513	0.133225	-0.072923
0.750	4.402396	-0.137483	724.981217	-0.583981	-0.985546	-0.389169	0.135941	-0.080551
0.760	4.497748	-0.200781	725.223247	-0.637681	-1.007378	-0.394895	0.138906	-0.087929
0.770	4.597291	-0.245808	725.424060	-0.692141	-1.027041	-0.402564	0.141578	-0.095412
0.780	4.689645	-0.268642	725.598798	-0.750348	-1.040551	-0.411216	0.143406	-0.103411
0.790	4.764471	-0.269221	725.756566	-0.814650	-1.045245	-0.419169	0.144021	-0.112248
0.800	4.814434	-0.250993	725.893993	-0.886059	-1.040999	-0.424586	0.143409	-0.122064
0.810	4.837392	-0.219559	725.994991	-0.963986	-1.030636	-0.426201	0.141962	-0.132781
0.820	4.837785	-0.181166	726.036865	-1.046475	-1.019192	-0.423770	0.140377	-0.144135
0.830	4.826229	-0.141885	726.000457	-1.130881	-1.012200	-0.417984	0.139421	-0.155769
0.840	4.816815	-0.107694	725.879777	-1.214774	-1.013694	-0.409882	0.139650	-0.167352
0.850	4.822787	-0.084940	725.686767	-1.296678	-1.024802	-0.400157	0.141218	-0.178683
0.860	4.852177	-0.080437	725.449617	-1.376389	-1.043491	-0.388759	0.143841	-0.189729
0.870	4.905142	-0.100725	725.206121	-1.454799	-1.065498	-0.375006	0.146924	-0.200605
0.880	4.973965	-0.150545	724.994896	-1.533388	-1.085972	-0.358103	0.149790	-0.211503
0.890	5.045628	-0.230944	724.847117	-1.613626	-1.101099	-0.337748	0.151908	-0.222616
0.900	5.106060	-0.337695	724.780711	-1.696541	-1.109108	-0.314500	0.153027	-0.234076
0.910	5.144595	-0.460805	724.797687	-1.782534	-1.110365	-0.289751	0.153197	-0.245935
0.920	5.156898	-0.585777	724.884158	-1.871292	-1.106674	-0.265360	0.152669	-0.258151
0.930	5.145096	-0.696691	725.012771	-1.961725	-1.100156	-0.243126	0.151743	-0.270578
0.940	5.115181	-0.780327	725.148013	-2.052109	-1.092142	-0.224395	0.150609	-0.282992
0.950	5.073319	-0.829885	725.254250	-2.140716	-1.082419	-0.209961	0.149247	-0.295168
0.960	5.023198	-0.846875	725.304671	-2.226908	-1.069093	-0.200215	0.147399	-0.307031
0.970	4.965578	-0.840473	725.288467	-2.312166	-1.049053	-0.195292	0.144639	-0.318793
0.980	4.899729	-0.824682	725.213840	-2.400323	-1.018884	-0.195051	0.140494	-0.330981
0.990	4.825463	-0.814421	725.105369	-2.496533	-0.975863	-0.198906	0.134582	-0.344299
1.000	4.744422	-0.821902	724.996276	-2.605240	-0.918773	-0.205764	0.126728	-0.359345
1.010	4.659833	-0.854332	724.918802	-2.728060	-0.848345	-0.214169	0.117026	-0.376326
1.020	4.574932	-0.913258	724.896754	-2.862746	-0.767207	-0.222625	0.105837	-0.394918
1.030	4.491159	-0.995257	724.942078	-3.003819	-0.679343	-0.229923	0.093710	-0.414353
1.040	4.407526	-1.093497	725.054397	-3.144616	-0.589167	-0.235349	0.081258	-0.433708
1.050	4.321799	-1.199751	725.221316	-3.279745	-0.500564	-0.238758	0.069022	-0.452241
1.060	4.232821	-1.306338	725.418263	-3.406850	-0.416261	-0.240548	0.057382	-0.469639
1.070	4.142433	-1.407499	725.608634	-3.526960	-0.337738	-0.241590	0.046546	-0.486069
1.080	4.055552	-1.499902	725.746838	-3.643378	-0.265610	-0.243072	0.036598	-0.502018
1.090	3.978204	-1.582371	725.786886	-3.759721	-0.200128	-0.246153	0.027574	-0.518020
1.100	3.914665	-1.655200	725.696731	-3.878081	-0.141476	-0.251433	0.019495	-0.534394
1.110	3.865476	-1.719436	725.474070	-3.998114	-0.089717	-0.258484	0.012367	-0.551104
1.120	3.827352	-1.776419	725.155613	-4.117334	-0.044589	-0.265733	0.006149	-0.567786
1.130	3.794812	-1.827630	724.812747	-4.232346	-0.005404	-0.270894	0.000746	-0.583923
1.140	3.762312	-1.874700	724.532715	-4.340341	0.028783	-0.271799	-0.003973	-0.599054
1.150	3.725671	-1.919474	724.391582	-4.440140	0.058865	-0.267299	-0.008126	-0.612947
1.160	3.682292	-1.964135	724.428837	-4.532373	0.085482	-0.257837	-0.011800	-0.625648
1.170	3.630565	-2.011361	724.632701	-4.618969	0.109049	-0.245468	-0.015049	-0.637422
1.180	3.569159	-2.064348	724.941809	-4.702347	0.129900	-0.233264	-0.017919	-0.648652
1.190	3.496729	-2.126444	725.263737	-4.784631	0.148369	-0.224279	-0.020457	-0.659709
1.200	3.412330	-2.200331	725.504482	-4.866963	0.164750	-0.220461	-0.022708	-0.670838
1.210	3.316508	-2.286845	725.598235	-4.949059	0.179226	-0.221941	-0.024700	-0.682066
1.220	3.212556	-2.383759	725.526453	-5.029155	0.191900	-0.227080	-0.026450	-0.693173
1.230	3.107076	-2.485114	725.319728	-5.104429	0.202968	-0.233280	-0.027983	-0.703749
1.240	3.009107	-2.581769	725.042814	-5.171767	0.212864	-0.238209	-0.029359	-0.713305
1.250	2.927880	-2.663426	724.769639	-5.228676	0.222198	-0.240847	-0.030658	-0.721426
1.260	2.870018	-2.721592	724.558739	-5.274063	0.231393	-0.241855	-0.031936	-0.727900
1.270	2.837309	-2.752281	724.438353	-5.308542	0.240182	-0.243078	-0.033154	-0.732780
1.280	2.825868	-2.757294	724.404776	-5.333967	0.247242	-0.246449	-0.034130	-0.736324
1.290	2.827063	-2.743553	724.431320	-5.352250	0.250286	-0.252868	-0.034549	-0.738821
1.300	2.830123	-2.720651	724.482320	-5.364012	0.246640	-0.261670	-0.034044	-0.740392
1.310	2.825789	-2.697308	724.527149	-5.367849	0.234041	-0.270934	-0.032303	-0.740876
1.320	2.809756	-2.677958	724.550293	-5.360621	0.211264	-0.278425	-0.029158	-0.739855
1.330	2.784406	-2.661013	724.554503	-5.338645	0.178300	-0.282669	-0.024608	-0.736818
1.340	2.757775	-2.639972	724.556403	-5.299143	0.136095	-0.283658	-0.018783	-0.731364
1.350	2.739910	-2.607096	724.577406	-5.241366	0.086049	-0.282950	-0.011876	-0.723369
1.360	2.738226	-2.557838	724.634681	-5.167097	0.029574	-0.283164	-0.004081	-0.713062
1.370	2.754119	-2.493560	724.735879	-5.080517	-0.032034	-0.287055	0.004420	-0.701016
1.380	2.782573	-2.421005	724.878209	-4.987568	-0.097441	-0.296499	0.013442	-0.688056
1.390	2.814989	-2.348868	725.049522	-4.894994	-0.165079	-0.311810	0.022768	-0.675125
1.400	2.843787	-2.283692	725.228913	-4.809252	-0.233240	-0.331638	0.032161	-0.663136
1.410	2.866401	-2.227601	725.387343	-4.735495	-0.300577	-0.353452	0.041437	-0.652823
1.420	2.886834	-2.178937	725.491479	-4.676703	-0.366862	-0.374405	0.050567	-0.644625
1.430	2.914348	-2.134807	725.512353	-4.633174	-0.433526	-0.392263	0.059754	-0.638607
1.440	2.960066	-2.093554	725.435423	-4.602545	-0.503504	-0.406045	0.069407	-0.634453
1.450	3.032731	-2.055670	725.265572	-4.580492	-0.580283	-0.416109	0.080010	-0.631561
1.460	3.135011	-2.022839	725.023096	-4.561971	-0.666567	-0.423703	0.091937	-0.629217
1.470	3.261704	-1.995919	724.732929	-4.542561	-0.763192	-0.430201	0.105307	-0.626791
1.480	3.400603	-1.973139	724.414362	-4.519415	-0.868643	-0.436381	0.119910	-0.623872
1.490	3.535756	-1.949521	724.078730	-4.491489	-0.979198	-0.442021	0.135234	-0.620304
1.500	3.651927	-1.917879	723.737004	-4.459055	-1.089568	-0.445960	0.150548	-0.616115
1.510	3.738666	-1.871080	723.411419	-4.422796	-1.193981	-0.446604	0.165049	-0.611380
1.520	3.792526	-1.804786	723.141100	-4.383023	-1.287539	-0.442688	0.178048	-0.606109
1.530	3.816700	-1.719479	722.975195	-4.339390	-1.367524	-0.433922	0.189152	-0.600213
1.540	3.818553	-1.620625	722.956007	-4.291098	-1.434167	-0.421170	0.198375	-0.593549
1.550	3.806584	-1.516695	723.101715	-4.237185	-1.490623	-0.406054	0.206143	-0.585974
1.560	3.788514	-1.416024	723.398088	-4.176658	-1.542155	-0.390241	0.213182	-0.577367
1.570	3.771091	-1.324293	723.802373	-4.108638	-1.594822	-0.374894	0.220339	-0.567646
1.580	3.760854	-1.243872	724.256063	-4.032787	-1.654085	-0.360626	0.228384	-0.556818
1.590	3.764590	-1.174928	724.700570	-3.950035	-1.723703	-0.347836	0.237850	-0.545058
1.600	3.788710	-1.117031	725.090690	-3.863136	-1.805169	-0.337038	0.248958	-0.532780
1.610	3.837660	-1.069851	725.402261	-3.776481	-1.897679	-0.328814	0.261604	-0.520605
1.620	3.912024	-1.032532	725.631923	-3.694986	-1.998482	-0.323421	0.275413	-0.509209
1.630	4.007237	-1.002474	725.789377	-3.622501	-2.103499	-0.320345	0.289822	-0.499112
1.640	4.113856	-0.974776	725.886023	-3.560463	-2.208131	-0.318161	0.304198	-0.490499
1.650	4.219811	-0.943113	725.925954	-3.507443	-2.308160	-0.314856	0.317961	-0.483168
1.660	4.314055	-0.901834	725.904378	-3.459744	-2.400490	-0.308562	0.330690	-0.476612
1.670	4.390074	-0.848084	725.814475	-3.412856	-2.483514	-0.298412	0.342169	-0.470211
1.680	4.447647	-0.782676	725.658244	-3.363312	-2.557089	-0.285123	0.352382	-0.463484
1.690	4.492070	-0.709253	725.453837	-3.310219	-2.622316	-0.271017	0.361473	-0.456296
1.700	4.531376	-0.632462	725.234253	-3.255719	-2.681237	-0.259416	0.369706	-0.448920
1.710	4.573079	-0.556348	725.038388	-3.203971	-2.736415	-0.253585	0.377417	-0.441904
1.720	4.621943	-0.483766	724.899882	-3.159099	-2.790346	-0.255579	0.384928	-0.435798
1.730	4.679327	-0.416755	724.838768	-3.123180	-2.844798	-0.265387	0.392473	-0.430879
1.740	4.743680	-0.357382	724.857737	-3.095297	-2.900327	-0.280754	0.400124	-0.427021
1.750	4.811360	-0.308486	724.942722	-3.071964	-2.956276	-0.297808	0.407794	-0.423753
1.760	4.877439	-0.273862	725.067022	-3.048503	-3.011363	-0.312269	0.415322	-0.420444
1.770	4.936576	-0.257464	725.197773	-3.020707	-3.064607	-0.320775	0.422589	-0.416536
1.780	4.984099	-0.261548	725.303003	-2.986255	-3.116030	-0.321831	0.429618	-0.411725
1.790	5.017119	-0.284479	725.357776	-2.945614	-3.166692	-0.316095	0.436570	-0.406091
1.800	5.035269	-0.319620	725.348671	-2.902149	-3.218113	-0.305967	0.443664	-0.400104
1.810	5.040707	-0.356566	725.276297	-2.861289	-3.271543	-0.294691	0.451075	-0.394510
1.820	5.037415	-0.384669	725.155625	-2.828877	-3.327515	-0.285299	0.458869	-0.390106
1.830	5.030090	-0.397200	725.013980	-2.809225	-3.385723	-0.279762	0.466987	-0.387472
1.840	5.022986	-0.393826	724.886807	-2.803654	-3.445037	-0.278574	0.475252	-0.386771
1.850	5.018978	-0.379956	724.811291	-2.810149	-3.503526	-0.280833	0.483371	-0.387708
1.860	5.018970	-0.363428	724.817857	-2.824226	-3.558616	-0.284730	0.490967	-0.389646
1.870	5.021750	-0.350700	724.920323	-2.840523	-3.607577	-0.288294	0.497652	-0.391839
1.880	5.024362	-0.344741	725.107666	-2.854414	-3.648433	-0.290123	0.503157	-0.393654
1.890	5.023073	-0.345422	725.341982	-2.863156	-3.680969	-0.289797	0.507481	-0.394732
1.900	5.014822	-0.351549	725.566229	-2.866459	-3.707324	-0.287839	0.510956	-0.395065
1.910	4.998716	-0.362932	725.721062	-2.866544	-3.731727	-0.285307	0.514210	-0.394993
1.920	4.976923	-0.381183	725.764677	-2.867758	-3.759351	-0.283273	0.517985	-0.395136
1.930	4.954493	-0.408867	725.686907	-2.875637	-3.794658	-0.282430	0.522906	-0.396264
1.940	4.938160	-0.447757	725.511286	-2.895488	-3.839846	-0.282904	0.529261	-0.399096
1.950	4.934528	-0.497570	725.284847	-2.930831	-3.894018	-0.284310	0.536895	-0.404094
1.960	4.948208	-0.556112	725.061121	-2.982319	-3.953419	-0.285962	0.545253	-0.411320
1.970	4.980348	-0.620519	724.883770	-3.047515	-4.012664	-0.287158	0.553560	-0.420414
1.980	5.027865	-0.688529	724.776786	-3.121464	-4.066397	-0.287426	0.561055	-0.430679
1.990	5.083487	-0.758843	724.743489	-3.197802	-4.110645	-0.286658	0.567186	-0.441232
2.000	5.136817	-0.830510	724.772666	-3.270302	-4.143283	-0.285137	0.571666	-0.451218
2.010	5.176548	-0.902147	724.847849	-3.334802	-4.163639	-0.283489	0.574416	-0.460069
2.020	5.193470	-0.971945	724.955912	-3.391109	-4.171704	-0.282550	0.575442	-0.467768
2.030	5.183216	-1.038747	725.092378	-3.443888	-4.167566	-0.283138	0.574763	-0.474959
2.040	5.147412	-1.103458	725.261472	-3.501663	-4.151423	-0.285720	0.572404	-0.482814
2.050	5.092569	-1.169716	725.469672	-3.573893	-4.124087	-0.290126	0.568471	-0.492632
2.060	5.027002	-1.243077	725.714414	-3.667208	-4.087619	-0.295456	0.563255	-0.505324
2.070	4.957130	-1.328814	725.973494	-3.782521	-4.045621	-0.300366	0.557268	-0.521027
2.080	4.884930	-1.429207	726.202229	-3.914385	-4.002849	-0.303672	0.551203	-0.539021
2.090	4.807986	-1.541524	726.342536	-4.052872	-3.964144	-0.305078	0.545768	-0.557984
2.100	4.722218	-1.657602	726.342000	-4.187018	-3.933041	-0.305669	0.541486	-0.576453
2.110	4.625832	-1.765295	726.175194	-4.308319	-3.910702	-0.307822	0.538534	-0.593289
2.120	4.522208	-1.851455	725.857553	-4.412971	-3.895765	-0.314435	0.536712	-0.607966
2.130	4.419972	-1.905617	725.445406	-4.502118	-3.885234	-0.327701	0.535565	-0.620601
2.140	4.330081	-1.923167	725.022334	-4.580127	-3.875918	-0.347946	0.534593	-0.631722
2.150	4.261327	-1.906723	724.677485	-4.651621	-3.865595	-0.373085	0.533423	-0.641888
2.160	4.216405	-1.865080	724.483009	-4.718693	-3.853466	-0.399040	0.531892	-0.651319
2.170	4.190445	-1.810152	724.476300	-4.779641	-3.839987	-0.421019	0.530036	-0.659737
2.180	4.172857	-1.753249	724.650524	-4.829846	-3.826537	-0.435148	0.528053	-0.666507
2.190	4.151866	-1.702204	724.955127	-4.864201	-3.815162	-0.439742	0.526262	-0.670966
2.200	4.119706	-1.660272	725.306223	-4.879734	-3.808402	-0.435676	0.525075	-0.672783
2.210	4.076231	-1.626812	725.605158	-4.877226	-3.809044	-0.425734	0.524947	-0.672160
2.220	4.029669	-1.599009	725.761967	-4.861292	-3.819770	-0.413336	0.526312	-0.669819
2.230	3.994584	-1.573833	725.718982	-4.839156	-3.842751	-0.401243	0.529509	-0.666809
2.240	3.987807	-1.549584	725.468658	-4.818680	-3.879326	-0.390781	0.534734	-0.664216
2.250	4.023468	-1.526625	725.059637	-4.806314	-3.929878	-0.381817	0.542008	-0.662885
2.260	4.108509	-1.507048	724.586669	-4.805612	-3.993985	-0.373421	0.551209	-0.663221
2.270	4.240156	-1.493358	724.164445	-4.816742	-4.070818	-0.364814	0.562140	-0.665145
2.280	4.406339	-1.486823	723.892511	-4.837093	-4.159580	-0.356104	0.574613	-0.668206
2.290	4.588784	-1.486381	723.824561	-4.862637	-4.259729	-0.348405	0.588503	-0.671798
2.300	4.767204	-1.488740	723.954973	-4.889477	-4.370776	-0.343307	0.603736	-0.675384
2.310	4.922759	-1.489703	724.226922	-4.914991	-4.491672	-0.342027	0.620202	-0.678653
2.320	5.040070	-1.486135	724.555704	-4.938266	-4.620049	-0.344666	0.637639	-0.681558
2.330	5.108531	-1.477888	724.855576	-4.959852	-4.751849	-0.349946	0.655558	-0.684254
2.340	5.124141	-1.468976	725.060100	-4.981093	-4.881899	-0.355574	0.673310	-0.686990
