Time[s]	Fx[N]	Fy[N]	Fz[N]	Mx[Nm]	My[Nm]	Mz[Nm]	COPx[cm]	COPy[cm]
0.010	0.836397	1.553095	629.663754	4.119878	10.724547	-1.089278	-1.703218	0.654298
0.020	0.770348	1.442243	629.684786	4.095848	10.741027	-1.107189	-1.705778	0.650460
0.030	0.699374	1.344360	629.684093	4.077765	10.762016	-1.122803	-1.709114	0.647589
0.040	0.619345	1.269897	629.656629	4.070539	10.791230	-1.134549	-1.713828	0.646470
0.050	0.527903	1.224998	629.615532	4.077686	10.831080	-1.141995	-1.720269	0.647647
0.060	0.425325	1.210540	629.586602	4.100982	10.882514	-1.145639	-1.728517	0.651377
0.070	0.314849	1.222246	629.596038	4.140268	10.944910	-1.146446	-1.738402	0.657607
0.080	0.202348	1.251857	629.658258	4.193376	11.015923	-1.145479	-1.749508	0.665976
0.090	0.095610	1.289246	629.769401	4.256269	11.091447	-1.143751	-1.761192	0.675846
0.100	0.003440	1.325172	629.908368	4.323636	11.165942	-1.142232	-1.772630	0.686391
0.110	-0.065498	1.353938	630.043879	4.389957	11.233186	-1.141831	-1.782921	0.696770
0.120	-0.104432	1.374826	630.144488	4.450732	11.287249	-1.143283	-1.791216	0.706303
0.130	-0.110887	1.391429	630.188464	4.503334	11.323414	-1.146976	-1.796830	0.714601
0.140	-0.088926	1.408992	630.170998	4.547167	11.338853	-1.152804	-1.799330	0.721577
0.150	-0.049706	1.431040	630.106695	4.583155	11.332934	-1.160133	-1.798574	0.727362
0.160	-0.008988	1.457068	630.025922	4.612917	11.307127	-1.167929	-1.794708	0.732179
0.170	0.018185	1.482480	629.965254	4.637975	11.264506	-1.175032	-1.788115	0.736227
0.180	0.023426	1.500748	629.954586	4.659247	11.208918	-1.180485	-1.779322	0.739616
0.190	0.008426	1.506701	630.005399	4.676852	11.144016	-1.183823	-1.768876	0.742351
0.200	-0.016049	1.499387	630.105296	4.690141	11.072460	-1.185261	-1.757240	0.744342
0.210	-0.035009	1.483163	630.222289	4.697928	10.995604	-1.185690	-1.744718	0.745440
0.220	-0.035337	1.466340	630.317630	4.698975	10.913713	-1.186456	-1.731462	0.745493
0.230	-0.010186	1.457837	630.360740	4.692720	10.826522	-1.188944	-1.717512	0.744450
0.240	0.040179	1.463296	630.338574	4.679976	10.733801	-1.194046	-1.702863	0.742454
0.250	0.111057	1.482453	630.255871	4.663219	10.635679	-1.201703	-1.687518	0.739893
0.260	0.197691	1.509060	630.128514	4.646194	10.532678	-1.210701	-1.671513	0.737341
0.270	0.298677	1.533404	629.975321	4.632898	10.425578	-1.218906	-1.654918	0.735409
0.280	0.416381	1.546321	629.812861	4.626317	10.315252	-1.223939	-1.637828	0.734554
0.290	0.554208	1.542900	629.655018	4.627477	10.202581	-1.224084	-1.620345	0.734923
0.300	0.712503	1.524299	629.515873	4.635240	10.088390	-1.219081	-1.602563	0.736318
0.310	0.885761	1.496845	629.412582	4.646885	9.973347	-1.210414	-1.584548	0.738289
0.320	1.063228	1.468860	629.365131	4.659108	9.857787	-1.200885	-1.566307	0.740287
0.330	1.233019	1.446804	629.391797	4.668917	9.741527	-1.193537	-1.547768	0.741814
0.340	1.387567	1.432655	629.501788	4.674137	9.623740	-1.190355	-1.528787	0.742514
0.350	1.526967	1.423673	629.688612	4.673499	9.503031	-1.191329	-1.509164	0.742192
0.360	1.657981	1.414421	629.928042	4.666477	9.377811	-1.194364	-1.488712	0.740795
0.370	1.789415	1.399885	630.182412	4.653017	9.246933	-1.196130	-1.467342	0.738360
0.380	1.927003	1.378221	630.409433	4.633348	9.110298	-1.193466	-1.445140	0.734974
0.390	2.070798	1.351969	630.571478	4.608021	8.969056	-1.184707	-1.422369	0.730769
0.400	2.216034	1.327330	630.642145	4.578210	8.825242	-1.170331	-1.399406	0.725960
0.410	2.356278	1.311998	630.609458	4.546036	8.681116	-1.152737	-1.376623	0.720896
0.420	2.486849	1.312536	630.476818	4.514612	8.538719	-1.135347	-1.354327	0.716063
0.430	2.606828	1.332291	630.262795	4.487603	8.399909	-1.121483	-1.332763	0.712021
0.440	2.718812	1.370464	629.999908	4.468545	8.266666	-1.113409	-1.312169	0.709293
0.450	2.826497	1.422415	629.731435	4.460277	8.141290	-1.111820	-1.292819	0.708282
0.460	2.931090	1.480937	629.504857	4.464623	8.026264	-1.115838	-1.275012	0.709228
0.470	3.028385	1.537977	629.361699	4.482176	7.923972	-1.123434	-1.259049	0.712178
0.480	3.108411	1.586335	629.326313	4.512012	7.836595	-1.132121	-1.245236	0.716959
0.490	3.158503	1.621101	629.398365	4.551457	7.766237	-1.139729	-1.233914	0.723144
0.500	3.168742	1.640799	629.553181	4.596203	7.714974	-1.145008	-1.225468	0.730074
0.510	3.137023	1.647962	629.750595	4.640977	7.684481	-1.147872	-1.220242	0.736955
0.520	3.070954	1.648499	629.948293	4.680622	7.675282	-1.149187	-1.218399	0.743017
0.530	2.985493	1.649457	630.113229	4.711211	7.686127	-1.150215	-1.219801	0.747677
0.540	2.897802	1.655864	630.226577	4.730684	7.714017	-1.151976	-1.224007	0.750632
0.550	2.822064	1.668290	630.282703	4.738822	7.754971	-1.154804	-1.230396	0.751857
0.560	2.766473	1.682507	630.286205	4.736817	7.805001	-1.158307	-1.238327	0.751534
0.570	2.732789	1.691478	630.249735	4.726913	7.860800	-1.161697	-1.247252	0.750006
0.580	2.717471	1.688676	630.191489	4.712333	7.919995	-1.164241	-1.256760	0.747762
0.590	2.713153	1.671221	630.130305	4.697172	7.981183	-1.165534	-1.266592	0.745429
0.600	2.709926	1.641584	630.079519	4.685806	8.043976	-1.165473	-1.276660	0.743685
0.610	2.696640	1.607251	630.043341	4.681739	8.109049	-1.164104	-1.287062	0.743082
0.620	2.662613	1.578403	630.017760	4.686384	8.178067	-1.161597	-1.298069	0.743849
0.630	2.599811	1.564332	629.994406	4.698543	8.253352	-1.158438	-1.310068	0.745807
0.640	2.504951	1.569806	629.964500	4.714993	8.337263	-1.155613	-1.323450	0.748454
0.650	2.380590	1.592816	629.921413	4.731830	8.431493	-1.154489	-1.338499	0.751178
0.660	2.234396	1.624793	629.861833	4.745790	8.536614	-1.156308	-1.355315	0.753465
0.670	2.076616	1.653377	629.786172	4.754945	8.652097	-1.161548	-1.373815	0.755009
0.680	1.916726	1.666662	629.698837	4.758772	8.776850	-1.169604	-1.393817	0.755722
0.690	1.760673	1.657283	629.608679	4.757820	8.910104	-1.179024	-1.415181	0.755679
0.700	1.609589	1.624914	629.529142	4.753142	9.052262	-1.188198	-1.437942	0.755031
0.710	1.459838	1.576402	629.477309	4.745592	9.205286	-1.196073	-1.462370	0.753894
0.720	1.303699	1.523476	629.471331	4.735230	9.372411	-1.202491	-1.488934	0.752255
0.730	1.130530	1.478783	629.526137	4.721206	9.557273	-1.208023	-1.518169	0.749962
0.740	0.929155	1.451649	629.647578	4.702247	9.762692	-1.213498	-1.550501	0.746806
0.750	0.692116	1.445084	629.826074	4.677553	9.989363	-1.219513	-1.586051	0.742674
0.760	0.420922	1.455123	630.032729	4.647675	10.234613	-1.226167	-1.624457	0.737688
0.770	0.129880	1.472633	630.221857	4.614886	10.491565	-1.233029	-1.664741	0.732264
0.780	-0.153921	1.486786	630.341432	4.582721	10.749165	-1.239269	-1.705292	0.727022
0.790	-0.395384	1.488814	630.347979	4.554749	10.993462	-1.243835	-1.744031	0.722577
0.800	-0.559925	1.474767	630.219262	4.533163	11.210089	-1.245659	-1.778760	0.719299
0.810	-0.623321	1.446599	629.960100	4.518005	11.387365	-1.243863	-1.807633	0.717189
0.820	-0.579826	1.411502	629.601476	4.507554	11.519042	-1.237962	-1.829577	0.715938
0.830	-0.445673	1.379818	629.195941	4.499564	11.605786	-1.228040	-1.844542	0.715129
0.840	-0.256274	1.362127	628.811045	4.492494	11.654842	-1.214881	-1.853473	0.714443
0.850	-0.057509	1.366157	628.519740	4.486052	11.677973	-1.200008	-1.858012	0.713749
0.860	0.106304	1.394136	628.386666	4.481047	11.688413	-1.185531	-1.860067	0.713103
0.870	0.203890	1.441290	628.452527	4.478895	11.697871	-1.173709	-1.861377	0.712686
0.880	0.224196	1.496354	628.721964	4.480996	11.714377	-1.166301	-1.863205	0.712715
0.890	0.177138	1.544485	629.159964	4.488024	11.741285	-1.163990	-1.866184	0.713336
0.900	0.088149	1.571794	629.698463	4.499235	11.777315	-1.166175	-1.870310	0.714506
0.910	-0.010959	1.569639	630.251170	4.512080	11.817408	-1.171236	-1.875031	0.715918
0.920	-0.091344	1.536879	630.732351	4.522429	11.854189	-1.177111	-1.879432	0.717012
0.930	-0.133726	1.479490	631.074403	4.525637	11.879818	-1.181917	-1.882475	0.717132
0.940	-0.130823	1.408115	631.239564	4.518193	11.887791	-1.184436	-1.883246	0.715765
0.950	-0.086032	1.334628	631.223086	4.499318	11.874199	-1.184344	-1.881142	0.712794
0.960	-0.009996	1.268769	631.048197	4.471746	11.838119	-1.182133	-1.875945	0.708622
0.970	0.083051	1.215893	630.756188	4.441277	11.781203	-1.178751	-1.867790	0.704119
0.980	0.178200	1.176575	630.396445	4.415263	11.706895	-1.175124	-1.857069	0.700395
0.990	0.262142	1.147992	630.019772	4.400597	11.619691	-1.171823	-1.844337	0.698486
1.000	0.325281	1.126080	629.674477	4.401873	11.524690	-1.169026	-1.830262	0.699071
1.010	0.363554	1.107332	629.402229	4.420114	11.427326	-1.166697	-1.815584	0.702272
1.020	0.379134	1.089753	629.231915	4.452325	11.333016	-1.164791	-1.801087	0.707581
1.030	0.379295	1.073041	629.173246	4.492036	11.246537	-1.163332	-1.787510	0.713959
1.040	0.373687	1.058290	629.214098	4.530869	11.171216	-1.162373	-1.775424	0.720084
1.050	0.371362	1.047413	629.324567	4.560834	11.108218	-1.161951	-1.765102	0.724719
1.060	0.378977	1.042559	629.467278	4.576704	11.056248	-1.162139	-1.756445	0.727076
1.070	0.400763	1.045752	629.609556	4.577617	11.011835	-1.163113	-1.748994	0.727056
1.080	0.439670	1.058815	629.731453	4.567189	10.970188	-1.165131	-1.742042	0.725260
1.090	0.498556	1.083304	629.826059	4.552046	10.926363	-1.168360	-1.734822	0.722747
1.100	0.580526	1.120114	629.893368	4.539417	10.876318	-1.172689	-1.726692	0.720664
1.110	0.688041	1.168737	629.932529	4.534883	10.817514	-1.177661	-1.717250	0.719900
1.120	0.820971	1.226568	629.937079	4.541125	10.749083	-1.182542	-1.706374	0.720885
1.130	0.974286	1.288787	629.895414	4.557853	10.671803	-1.186460	-1.694218	0.723589
1.140	1.136612	1.349162	629.796522	4.582541	10.588181	-1.188571	-1.681207	0.727622
1.150	1.290958	1.401524	629.638976	4.611384	10.502602	-1.188235	-1.668036	0.732385
1.160	1.418136	1.441262	629.439186	4.640146	10.421239	-1.185227	-1.655639	0.737187
1.170	1.501931	1.466074	629.234174	4.664868	10.351326	-1.179900	-1.645067	0.741356
1.180	1.533988	1.475737	629.075804	4.682622	10.299668	-1.173175	-1.637270	0.744365
1.190	1.516420	1.471183	629.017166	4.692276	10.270761	-1.166291	-1.632827	0.745969
1.200	1.461250	1.453584	629.095634	4.694900	10.265280	-1.160402	-1.631752	0.746294
1.210	1.387196	1.424164	629.318697	4.693394	10.279704	-1.156240	-1.633466	0.745790
1.220	1.314983	1.384916	629.657681	4.691320	10.307313	-1.154007	-1.636971	0.745059
1.230	1.262369	1.339705	630.052048	4.691484	10.340226	-1.153481	-1.641170	0.744618
1.240	1.239862	1.294742	630.423936	4.695013	10.371668	-1.154243	-1.645189	0.744739
1.250	1.248114	1.257672	630.699132	4.701318	10.397655	-1.155915	-1.648592	0.745414
1.260	1.277986	1.235547	630.827702	4.708783	10.417630	-1.158322	-1.651422	0.746445
1.270	1.313708	1.232752	630.797319	4.715684	10.434026	-1.161494	-1.654101	0.747575
1.280	1.338534	1.249997	630.634987	4.720913	10.451059	-1.165525	-1.657228	0.748597
1.290	1.340969	1.284662	630.396796	4.724409	10.473202	-1.170397	-1.661367	0.749434
1.300	1.319080	1.331996	630.149056	4.727332	10.503741	-1.175956	-1.666866	0.750193
1.310	1.280914	1.386516	629.947339	4.731959	10.543744	-1.182059	-1.673750	0.751167
1.320	1.240770	1.443295	629.821174	4.741167	10.591678	-1.188754	-1.681696	0.752780
1.330	1.212906	1.499163	629.769772	4.757509	10.643839	-1.196312	-1.690116	0.755436
1.340	1.205394	1.553614	629.769189	4.782224	10.695577	-1.205078	-1.698333	0.759361
1.350	1.216730	1.608845	629.786442	4.814712	10.742928	-1.215235	-1.705805	0.764499
1.360	1.236603	1.668414	629.793941	4.852720	10.784011	-1.226640	-1.712308	0.770525
1.370	1.250371	1.734850	629.779001	4.893064	10.819657	-1.238764	-1.718008	0.776949
1.380	1.245075	1.807329	629.746416	4.932396	10.853093	-1.250705	-1.723407	0.783235
1.390	1.214264	1.880644	629.715006	4.967661	10.888879	-1.261247	-1.729176	0.788874
1.400	1.159785	1.945960	629.710194	4.996252	10.931492	-1.269004	-1.735956	0.793421
1.410	1.090482	1.992983	629.754662	5.016144	10.984009	-1.272695	-1.744173	0.796524
1.420	1.018917	2.012606	629.859033	5.026195	11.047271	-1.271524	-1.753928	0.797987
1.430	0.957493	1.999105	630.015071	5.026466	11.119715	-1.265526	-1.764992	0.797833
1.440	0.915042	1.951572	630.194424	5.018306	11.197828	-1.255714	-1.776885	0.796311
1.450	0.894697	1.874632	630.354822	5.004079	11.276935	-1.243927	-1.788982	0.793851
1.460	0.893557	1.778298	630.452516	4.986623	11.351987	-1.232395	-1.800609	0.790959
1.470	0.904064	1.676480	630.456253	4.968668	11.418204	-1.223163	-1.811102	0.788107
1.480	0.916488	1.583991	630.357110	4.952402	11.471648	-1.217530	-1.819865	0.785650
1.490	0.921756	1.512789	630.170729	4.939295	11.509817	-1.215712	-1.826460	0.783803
1.500	0.913960	1.468870	629.932257	4.930177	11.532152	-1.216866	-1.830697	0.782652
1.510	0.891916	1.451143	629.687134	4.925423	11.540178	-1.219461	-1.832684	0.782202
1.520	0.859209	1.452657	629.481317	4.925033	11.537101	-1.221822	-1.832795	0.782395
1.530	0.822491	1.463541	629.352827	4.928572	11.526935	-1.222607	-1.831554	0.783118
1.540	0.788629	1.474415	629.324871	4.935115	11.513425	-1.221095	-1.829488	0.784192
1.550	0.761888	1.479084	629.401214	4.943355	11.499184	-1.217298	-1.827004	0.785406
1.560	0.742446	1.475738	629.565461	4.951921	11.485348	-1.211968	-1.824329	0.786562
1.570	0.726896	1.466363	629.784975	4.959789	11.471817	-1.206485	-1.821545	0.787537
1.580	0.710482	1.454715	630.017726	4.966642	11.457783	-1.202581	-1.818645	0.788334
1.590	0.690095	1.443836	630.219552	4.973017	11.442149	-1.201847	-1.815581	0.789093
1.600	0.666884	1.434526	630.350973	4.980138	11.423649	-1.205119	-1.812268	0.790058
1.610	0.647331	1.425691	630.384093	4.989481	11.400806	-1.211992	-1.808549	0.791499
1.620	0.641732	1.416247	630.309322	5.002253	11.372046	-1.220763	-1.804201	0.793619
1.630	0.660003	1.406947	630.139778	5.018996	11.336217	-1.228932	-1.799000	0.796489
1.640	0.706476	1.400656	629.910807	5.039417	11.293402	-1.234108	-1.792857	0.800021
1.650	0.776520	1.401020	629.673343	5.062472	11.245649	-1.234904	-1.785950	0.803984
1.660	0.857129	1.410729	629.482097	5.086611	11.197170	-1.231384	-1.778791	0.808063
1.670	0.931398	1.430424	629.381774	5.110123	11.153748	-1.224885	-1.772175	0.811927
1.680	0.984603	1.458377	629.395602	5.131507	11.121448	-1.217369	-1.767004	0.815307
1.690	1.008832	1.490602	629.519761	5.149810	11.105007	-1.210651	-1.764044	0.818054
1.700	1.004070	1.521479	629.725278	5.164834	11.106529	-1.205827	-1.763710	0.820173
1.710	0.975776	1.545312	629.966817	5.177059	11.125054	-1.203031	-1.765975	0.821799
1.720	0.930769	1.558732	630.195598	5.187184	11.157172	-1.201558	-1.770430	0.823107
1.730	0.873895	1.562728	630.371720	5.195486	11.198321	-1.200234	-1.776463	0.824194
1.740	0.807247	1.562732	630.471384	5.201384	11.244076	-1.197920	-1.783440	0.824999
1.750	0.731947	1.566240	630.487830	5.203508	11.290943	-1.193935	-1.790827	0.825315
1.760	0.650811	1.579150	630.428772	5.200192	11.336567	-1.188260	-1.798231	0.824866
1.770	0.569818	1.602872	630.313448	5.190010	11.379583	-1.181470	-1.805385	0.823401
1.780	0.497318	1.633809	630.169267	5.172098	11.419356	-1.174469	-1.812109	0.820747
1.790	0.441537	1.665359	630.026109	5.146317	11.455774	-1.168187	-1.818302	0.816842
1.800	0.407826	1.691199	629.908412	5.113409	11.489177	-1.163341	-1.823944	0.811770
1.810	0.396995	1.707978	629.828499	5.075093	11.520357	-1.160324	-1.829126	0.805790
1.820	0.405237	1.716103	629.784576	5.033839	11.550527	-1.159216	-1.834044	0.799295
1.830	0.425359	1.718560	629.763700	4.992278	11.581096	-1.159857	-1.838959	0.792722
1.840	0.448668	1.718893	629.747294	4.952553	11.613222	-1.161972	-1.844108	0.786435
1.850	0.466915	1.719615	629.716983	4.916031	11.647248	-1.165287	-1.849600	0.780673
1.860	0.473995	1.721590	629.660045	4.883443	11.682275	-1.169599	-1.855330	0.775568
1.870	0.467317	1.723987	629.574304	4.855146	11.716121	-1.174740	-1.860959	0.771179
1.880	0.448660	1.724370	629.471206	4.831141	11.745774	-1.180467	-1.865975	0.767492
1.890	0.424151	1.719015	629.374671	4.810850	11.768174	-1.186347	-1.869820	0.764386
1.900	0.403034	1.703843	629.314311	4.792917	11.781068	-1.191737	-1.872048	0.761609
1.910	0.395285	1.675923	629.314747	4.775452	11.783640	-1.195872	-1.872456	0.758834
1.920	0.408711	1.634906	629.385726	4.756773	11.776737	-1.198033	-1.871148	0.755780
1.930	0.446689	1.583791	629.517945	4.736316	11.762620	-1.197752	-1.868512	0.752372
1.940	0.507544	1.528594	629.686712	4.715170	11.744296	-1.194958	-1.865101	0.748812
1.950	0.585587	1.476781	629.861358	4.695851	11.724598	-1.190010	-1.861457	0.745537
1.960	0.673059	1.434747	630.015334	4.681304	11.705394	-1.183610	-1.857954	0.743046
1.970	0.762167	1.405340	630.132426	4.673489	11.687276	-1.176702	-1.854733	0.741668
1.980	0.846802	1.386765	630.207749	4.672216	11.669832	-1.170381	-1.851744	0.741377
1.990	0.923581	1.373593	630.245323	4.674858	11.652290	-1.165773	-1.848850	0.741752
2.000	0.991890	1.359350	630.254846	4.677227	11.634103	-1.163803	-1.845936	0.742117
2.010	1.052765	1.339221	630.248936	4.675215	11.615204	-1.164928	-1.842955	0.741805
2.020	1.107008	1.311499	630.240432	4.666328	11.595930	-1.169022	-1.839922	0.740404
2.030	1.153459	1.277315	630.238987	4.650361	11.576773	-1.175476	-1.836886	0.737873
2.040	1.188525	1.239288	630.247336	4.629104	11.558181	-1.183412	-1.833912	0.734490
2.050	1.207499	1.200237	630.258774	4.605480	11.540503	-1.191826	-1.831074	0.730728
2.060	1.206995	1.162747	630.257719	4.582679	11.524037	-1.199677	-1.828464	0.727112
2.070	1.187046	1.129512	630.224404	4.563572	11.508953	-1.205991	-1.826167	0.724119
2.080	1.151675	1.103710	630.142633	4.550319	11.494945	-1.210017	-1.824181	0.722109
2.090	1.107767	1.088646	630.007535	4.543989	11.480813	-1.211362	-1.822330	0.721259
2.100	1.062886	1.086477	629.829955	4.544177	11.464446	-1.210027	-1.820245	0.721493
2.110	1.023012	1.096643	629.635602	4.548832	11.443490	-1.206361	-1.817478	0.722455
2.120	0.991120	1.114901	629.459087	4.554580	11.416554	-1.200992	-1.813709	0.723570
2.130	0.967039	1.133682	629.334584	4.557633	11.384315	-1.194753	-1.808945	0.724199
2.140	0.948516	1.143993	629.286080	4.555006	11.349876	-1.188576	-1.803612	0.723837
2.150	0.932890	1.138504	629.320664	4.545510	11.318025	-1.183334	-1.798451	0.722288
2.160	0.918565	1.114657	629.427452	4.530029	11.293514	-1.179654	-1.794252	0.719706
2.170	0.905677	1.076250	629.582349	4.510952	11.278995	-1.177784	-1.791504	0.716499
2.180	0.895864	1.032403	629.756061	4.491075	11.273589	-1.177589	-1.790152	0.713145
2.190	0.891552	0.994143	629.921545	4.472532	11.272987	-1.178673	-1.789586	0.710014
2.200	0.895039	0.970145	630.058432	4.456230	11.271244	-1.180572	-1.788920	0.707273
2.210	0.907488	0.963626	630.154676	4.441962	11.263421	-1.182893	-1.787406	0.704900
2.220	0.928005	0.971745	630.207081	4.429090	11.247718	-1.185354	-1.784765	0.702799
2.230	0.953362	0.987569	630.221364	4.417417	11.226072	-1.187746	-1.781290	0.700931
2.240	0.978962	1.003465	630.210704	4.407706	11.203110	-1.189894	-1.777677	0.699402
2.250	1.001025	1.014144	630.191907	4.401534	11.184100	-1.191640	-1.774713	0.698443
2.260	1.019104	1.018049	630.180485	4.400626	11.172837	-1.192803	-1.772958	0.698312
2.270	1.037553	1.016842	630.187247	4.406112	11.170187	-1.193119	-1.772519	0.699175
2.280	1.064917	1.013739	630.217754	4.418024	11.173606	-1.192230	-1.772975	0.701031
2.290	1.111239	1.011714	630.273513	4.435120	11.177651	-1.189812	-1.773460	0.703682
2.300	1.184236	1.012367	630.352722	4.455064	11.175442	-1.185807	-1.772887	0.706757
2.310	1.285763	1.015832	630.449401	4.475005	11.160828	-1.180604	-1.770297	0.709812
2.320	1.409832	1.021635	630.551927	4.492504	11.130598	-1.175057	-1.765215	0.712472
2.330	1.542968	1.029955	630.643341	4.506585	11.085829	-1.170331	-1.757860	0.714601
2.340	1.666989	1.042495	630.704880	4.518457	11.031729	-1.167708	-1.749111	0.716414
2.350	1.763571	1.062285	630.721765	4.531487	10.976057	-1.168372	-1.740238	0.718461
2.360	1.819362	1.092244	630.688651	4.550196	10.926816	-1.173152	-1.732521	0.721465
2.370	1.830022	1.133137	630.612099	4.578514	10.890181	-1.182174	-1.726922	0.726043
2.380	1.801704	1.182068	630.508818	4.618054	10.869265	-1.194602	-1.723888	0.732433
2.390	1.749240	1.232543	630.400492	4.667208	10.863919	-1.208703	-1.723336	0.740356
2.400	1.691569	1.276293	630.307632	4.721471	10.871340	-1.222291	-1.724767	0.749074
