Time[s]	Fx[N]	Fy[N]	Fz[N]	Mx[Nm]	My[Nm]	Mz[Nm]	COPx[cm]	COPy[cm]
0.010	7.346803	0.894826	695.216686	2.670923	-1.324494	0.580864	0.190515	0.384186
0.020	7.361547	0.878112	694.869459	2.673523	-1.475142	0.585675	0.212291	0.384752
0.030	7.374733	0.881604	694.586083	2.684173	-1.629399	0.586550	0.234586	0.386442
0.040	7.381396	0.922542	694.416626	2.710044	-1.790019	0.580493	0.257773	0.390262
0.050	7.372754	1.013420	694.385209	2.757280	-1.958578	0.566090	0.282059	0.397082
0.060	7.339986	1.160872	694.481288	2.830635	-2.135110	0.543683	0.307440	0.407590
0.070	7.280417	1.365024	694.660239	2.933016	-2.318051	0.515028	0.333696	0.422223
0.080	7.202346	1.618745	694.854935	3.064840	-2.504551	0.482642	0.360442	0.441076
0.090	7.125197	1.906931	694.994630	3.223510	-2.691108	0.449165	0.387213	0.463818
0.100	7.074191	2.206721	695.024415	3.403454	-2.874425	0.416899	0.413572	0.489688
0.110	7.071856	2.489810	694.918970	3.596914	-3.052256	0.387601	0.439225	0.517602
0.120	7.130445	2.727293	694.687032	3.795192	-3.223963	0.362495	0.464089	0.546317
0.130	7.248734	2.896038	694.366467	3.989833	-3.390537	0.342525	0.488292	0.574600
0.140	7.414213	2.984338	694.013050	4.173412	-3.554038	0.328681	0.512100	0.601345
0.150	7.608794	2.994543	693.687418	4.339909	-3.716715	0.322141	0.535791	0.625629
0.160	7.814795	2.941696	693.443564	4.484905	-3.880202	0.324052	0.559556	0.646759
0.170	8.018575	2.848941	693.320403	4.605775	-4.045046	0.335023	0.583431	0.664307
0.180	8.211157	2.741616	693.336986	4.701858	-4.210533	0.354628	0.607285	0.678149
0.190	8.386751	2.641968	693.491426	4.774484	-4.374673	0.381206	0.630819	0.688471
0.200	8.540621	2.565758	693.762807	4.826694	-4.534256	0.412058	0.653574	0.695727
0.210	8.667327	2.521056	694.115051	4.862620	-4.685065	0.443884	0.674970	0.700550
0.220	8.759919	2.508867	694.502125	4.886682	-4.822389	0.473285	0.694366	0.703624
0.230	8.810347	2.524867	694.874130	4.902819	-4.941852	0.497263	0.711187	0.705569
0.240	8.811152	2.561451	695.183456	4.913898	-5.040375	0.513752	0.725042	0.706849
0.250	8.758075	2.609394	695.390201	4.921293	-5.116983	0.522136	0.735843	0.707702
0.260	8.652720	2.658794	695.466580	4.924629	-5.173186	0.523492	0.743844	0.708104
0.270	8.504069	2.699406	695.400388	4.921811	-5.212836	0.520312	0.749616	0.707767
0.280	8.327921	2.720976	695.197396	4.909386	-5.241482	0.515695	0.753956	0.706186
0.290	8.144074	2.714191	694.882268	4.883227	-5.265356	0.512351	0.757734	0.702742
0.300	7.972014	2.672398	694.497457	4.839401	-5.290233	0.511877	0.761735	0.696821
0.310	7.826559	2.593608	694.099317	4.775046	-5.320489	0.514577	0.766531	0.687949
0.320	7.714937	2.481846	693.750591	4.689092	-5.358652	0.519830	0.772418	0.675905
0.330	7.636204	2.347019	693.509323	4.582628	-5.405546	0.526772	0.779448	0.660788
0.340	7.583022	2.203183	693.416701	4.458832	-5.461002	0.534943	0.787550	0.643023
0.350	7.545082	2.065806	693.488447	4.322478	-5.524899	0.544645	0.796682	0.623295
0.360	7.513227	1.948985	693.713615	4.179209	-5.598089	0.556923	0.806974	0.602440
0.370	7.483231	1.863321	694.060870	4.034716	-5.682681	0.573233	0.818758	0.581320
0.380	7.458107	1.814632	694.488541	3.893923	-5.781443	0.594952	0.832475	0.560689
0.390	7.447914	1.803292	694.953850	3.760304	-5.896610	0.622870	0.848489	0.541087
0.400	7.466859	1.823977	695.418822	3.635511	-6.028748	0.656813	0.866923	0.522780
0.410	7.528758	1.865915	695.852955	3.519579	-6.176304	0.695484	0.887588	0.505793
0.420	7.642636	1.914168	696.233592	3.411676	-6.336045	0.736559	0.910046	0.490019
0.430	7.809728	1.952390	696.544468	3.311104	-6.504027	0.776981	0.933756	0.475362
0.440	8.022141	1.966888	696.772739	3.218059	-6.676517	0.813378	0.958206	0.461852
0.450	8.263017	1.950949	696.905834	3.133897	-6.850382	0.842544	0.982971	0.449687
0.460	8.508346	1.908019	696.930341	3.060962	-7.022864	0.861990	1.007685	0.439206
0.470	8.730736	1.852560	696.834356	3.002168	-7.191045	0.870462	1.031959	0.430829
0.480	8.904863	1.807911	696.612256	2.960407	-7.351506	0.868266	1.055323	0.424972
0.490	9.013215	1.801110	696.268718	2.937636	-7.500522	0.857260	1.077245	0.421911
0.500	9.050105	1.855503	695.818948	2.933661	-7.634835	0.840440	1.097245	0.421613
0.510	9.022397	1.982903	695.284940	2.945139	-7.752677	0.821254	1.115036	0.423587
0.520	8.946858	2.177806	694.690971	2.965583	-7.854620	0.802774	1.130664	0.426892
0.530	8.845335	2.416072	694.062465	2.986705	-7.943841	0.786983	1.144543	0.430322
0.540	8.739509	2.659391	693.430173	3.000697	-8.025573	0.774396	1.157373	0.432732
0.550	8.646725	2.864848	692.837668	3.002469	-8.105869	0.764192	1.169952	0.433358
0.560	8.577811	2.996891	692.346479	2.990812	-8.190172	0.754822	1.182959	0.431982
0.570	8.536993	3.037897	692.032212	2.967964	-8.282281	0.744781	1.196806	0.428877
0.580	8.523078	2.993814	691.969070	2.937795	-8.384066	0.733178	1.211624	0.424556
0.590	8.530823	2.892866	692.207645	2.903480	-8.495897	0.719879	1.227363	0.419452
0.600	8.552163	2.777440	692.756035	2.865713	-8.617413	0.705311	1.243932	0.413668
0.610	8.577883	2.691488	693.572997	2.822252	-8.748172	0.690200	1.261320	0.406915
0.620	8.600337	2.667333	694.575284	2.768861	-8.887915	0.675422	1.279619	0.398641
0.630	8.616674	2.716245	695.654515	2.701156	-9.036411	0.662000	1.298980	0.388290
0.640	8.630847	2.826111	696.696155	2.616471	-9.193076	0.651096	1.319524	0.375554
0.650	8.652870	2.966935	697.595024	2.514960	-9.356643	0.643821	1.341271	0.360519
0.660	8.695229	3.101685	698.265867	2.399434	-9.525061	0.640846	1.364102	0.343628
0.670	8.768007	3.197888	698.650378	2.273954	-9.695691	0.642047	1.387774	0.325478
0.680	8.874629	3.235789	698.722327	2.141737	-9.865725	0.646449	1.411967	0.306522
0.690	9.009485	3.211079	698.491046	2.003279	-10.032738	0.652525	1.436344	0.286801
0.700	9.157883	3.132563	698.002157	1.855651	-10.195191	0.658671	1.460625	0.265852
0.710	9.298549	3.016660	697.333372	1.693503	-10.352653	0.663584	1.484606	0.242854
0.720	9.408752	2.881138	696.582984	1.511493	-10.505543	0.666474	1.508154	0.216987
0.730	9.471291	2.740307	695.851057	1.307108	-10.654520	0.667094	1.531149	0.187843
0.740	9.481093	2.603010	695.218013	1.082637	-10.799963	0.665631	1.553464	0.155726
0.750	9.448362	2.473406	694.728568	0.845477	-10.941952	0.662457	1.574997	0.121699
0.760	9.396298	2.353300	694.387290	0.606594	-11.080684	0.657853	1.595750	0.087357
0.770	9.353809	2.244386	694.166006	0.377660	-11.216767	0.651894	1.615862	0.054405
0.780	9.345860	2.149208	694.017427	0.167854	-11.350852	0.644603	1.635528	0.024186
0.790	9.385107	2.070631	693.888128	-0.018439	-11.482604	0.636297	1.654821	-0.002657
0.800	9.468062	2.010500	693.727595	-0.182148	-11.609646	0.627843	1.673517	-0.026256
0.810	9.577290	1.968511	693.494483	-0.328123	-11.727234	0.620561	1.691035	-0.047314
0.820	9.688445	1.942034	693.162945	-0.462541	-11.829013	0.615729	1.706527	-0.066729
0.830	9.778708	1.927055	692.729497	-0.590313	-11.908637	0.613957	1.719089	-0.085215
0.840	9.833030	1.919770	692.217658	-0.713588	-11.961631	0.614801	1.728016	-0.103087
0.850	9.846355	1.918008	691.677427	-0.831848	-11.986800	0.616828	1.733004	-0.120265
0.860	9.822279	1.921694	691.179268	-0.943314	-11.986612	0.618111	1.734226	-0.136479
0.870	9.769760	1.932166	690.803787	-1.046830	-11.966362	0.616841	1.732237	-0.151538
0.880	9.699292	1.950727	690.627804	-1.143302	-11.932438	0.611802	1.727767	-0.165545
0.890	9.619342	1.977123	690.708098	-1.236085	-11.890402	0.602527	1.721480	-0.178959
0.900	9.533578	2.008646	691.066695	-1.330302	-11.843637	0.589194	1.713820	-0.192500
0.910	9.439696	2.040326	691.683007	-1.431548	-11.793018	0.572366	1.704974	-0.206966
0.920	9.330841	2.066303	692.496155	-1.544551	-11.737642	0.552755	1.694976	-0.223041
0.930	9.200001	2.081967	693.417031	-1.672223	-11.676250	0.531114	1.683871	-0.241157
0.940	9.046145	2.086072	694.346358	-1.815402	-11.608708	0.508272	1.671890	-0.261455
0.950	8.879250	2.081726	695.193149	-1.973351	-11.536969	0.485214	1.659534	-0.283857
0.960	8.720916	2.075036	695.888580	-2.144882	-11.465105	0.463127	1.647549	-0.308222
0.970	8.598965	2.070824	696.393363	-2.329705	-11.398267	0.443362	1.636757	-0.334539
0.980	8.537493	2.066348	696.699756	-2.529539	-11.340944	0.427355	1.627809	-0.363074
0.990	8.546688	2.045801	696.829937	-2.748639	-11.295378	0.416545	1.620966	-0.394449
1.000	8.617340	1.978954	696.831210	-2.993691	-11.261051	0.412234	1.616037	-0.429615
1.010	8.723030	1.826080	696.767425	-3.273055	-11.235629	0.415249	1.612537	-0.469749
1.020	8.829772	1.548667	696.706447	-3.595237	-11.216872	0.425372	1.609985	-0.516033
1.030	8.909837	1.123011	696.705381	-3.966504	-11.204434	0.440635	1.608203	-0.569323
1.040	8.954807	0.552632	696.797386	-4.387827	-11.200644	0.456859	1.607446	-0.629714
1.050	8.982681	-0.124300	696.984919	-4.851885	-11.209980	0.467810	1.608353	-0.696125
1.060	9.035276	-0.835497	697.242357	-5.341431	-11.237591	0.466313	1.611720	-0.766080
1.070	9.165300	-1.484819	697.526573	-5.830501	-11.287506	0.446224	1.618219	-0.835882
1.080	9.416650	-1.971840	697.790241	-6.289133	-11.361158	0.404704	1.628162	-0.901293
1.090	9.805139	-2.216829	697.992138	-6.690547	-11.456619	0.343851	1.641368	-0.958542
1.100	10.307515	-2.183903	698.101442	-7.018242	-11.568584	0.270890	1.657149	-1.005333
1.110	10.863533	-1.894065	698.096394	-7.270310	-11.688954	0.196670	1.674404	-1.041448
1.120	11.390383	-1.422508	697.960059	-7.459445	-11.807855	0.132975	1.691767	-1.068750
1.130	11.803945	-0.880009	697.676412	-7.608721	-11.914853	0.089643	1.707791	-1.090580
1.140	12.039572	-0.384089	697.228990	-7.744533	-12.000090	0.072497	1.721112	-1.110759
1.150	12.066501	-0.029181	696.602802	-7.888879	-12.055080	0.082573	1.730553	-1.132479
1.160	11.892858	0.135032	695.789180	-8.053288	-12.073194	0.116514	1.735180	-1.157432
1.170	11.561038	0.111256	694.792676	-8.236344	-12.050028	0.167723	1.734334	-1.185439
1.180	11.135241	-0.052589	693.637945	-8.425638	-11.983716	0.227943	1.727662	-1.214703
1.190	10.684482	-0.281462	692.373196	-8.603443	-11.875051	0.289014	1.715123	-1.242602
1.200	10.265535	-0.495775	691.067316	-8.753895	-11.727122	0.344536	1.696958	-1.266721
1.210	9.910433	-0.631943	689.801159	-8.868814	-11.544422	0.391067	1.673587	-1.285706
1.220	9.621649	-0.656176	688.656962	-8.950007	-11.331655	0.428481	1.645472	-1.299632
1.230	9.375349	-0.569274	687.710478	-9.007641	-11.092715	0.459367	1.612992	-1.309801
1.240	9.130619	-0.402603	687.028001	-9.055909	-10.830226	0.487749	1.576388	-1.318128
1.250	8.841522	-0.207167	686.666947	-9.107996	-10.545825	0.517643	1.535799	-1.326407
1.260	8.469275	-0.038849	686.676174	-9.172173	-10.241039	0.551938	1.491393	-1.335735
1.270	7.992619	0.056549	687.092491	-9.250150	-9.918390	0.591822	1.443531	-1.346274
1.280	7.414806	0.054844	687.933043	-9.337948	-9.582254	0.636689	1.392905	-1.357392
1.290	6.765453	-0.041232	689.186928	-9.428640	-9.239085	0.684354	1.340577	-1.368082
1.300	6.095716	-0.204105	690.810281	-9.515774	-8.896934	0.731490	1.287898	-1.377480
1.310	5.466766	-0.389808	692.727324	-9.596142	-8.564510	0.774271	1.236346	-1.385270
1.320	4.934257	-0.549931	694.837725	-9.671011	-8.250270	0.809190	1.187366	-1.391837
1.330	4.534079	-0.643541	697.029061	-9.745603	-7.961991	0.833869	1.142275	-1.398163
1.340	4.275094	-0.646372	699.191229	-9.827236	-7.706862	0.847599	1.102254	-1.405515
1.350	4.141805	-0.556040	701.227527	-9.922992	-7.491691	0.851440	1.068368	-1.415089
1.360	4.105350	-0.392753	703.057792	-10.037798	-7.322663	0.847866	1.041545	-1.427734
1.370	4.137404	-0.195125	704.613693	-10.173392	-7.204446	0.840131	1.022467	-1.443825
1.380	4.220664	-0.011159	705.831556	-10.328141	-7.138962	0.831537	1.011426	-1.463259
1.390	4.351645	0.113998	706.649470	-10.497440	-7.124538	0.824816	1.008214	-1.485523
1.400	4.535289	0.150137	707.012008	-10.674473	-7.155929	0.821770	1.012137	-1.509801
1.410	4.774808	0.089947	706.880946	-10.851336	-7.225278	0.823207	1.022135	-1.535101
1.420	5.062435	-0.049805	706.247008	-11.020491	-7.323560	0.829092	1.036969	-1.560430
1.430	5.376247	-0.233928	705.137231	-11.176346	-7.441944	0.838824	1.055389	-1.584989
1.440	5.685000	-0.419016	703.614753	-11.316451	-7.572689	0.851512	1.076255	-1.608331
1.450	5.958374	-0.564939	701.771681	-11.441748	-7.709577	0.866188	1.098588	-1.630409
1.460	6.176991	-0.644582	699.718842	-11.555644	-7.848071	0.881931	1.121603	-1.651470
1.470	6.336835	-0.649694	697.576177	-11.662323	-7.985378	0.897874	1.144732	-1.671835
1.480	6.446483	-0.591879	695.465152	-11.765111	-8.120363	0.913050	1.167616	-1.691689
1.490	6.520146	-0.498893	693.502359	-11.865641	-8.253208	0.926126	1.190076	-1.710973
1.500	6.571758	-0.407386	691.793128	-11.964031	-8.384869	0.935209	1.212049	-1.729423
1.510	6.613521	-0.353921	690.424782	-12.059777	-8.516532	0.937928	1.233521	-1.746718
1.520	6.658101	-0.366498	689.459939	-12.152817	-8.649153	0.931835	1.254482	-1.762657
1.530	6.720500	-0.458526	688.930581	-12.244238	-8.783067	0.914974	1.274884	-1.777282
1.540	6.816166	-0.626331	688.833935	-12.336272	-8.917612	0.886365	1.294595	-1.790892
1.550	6.955231	-0.850280	689.131875	-12.431620	-9.050923	0.846267	1.313380	-1.803954
1.560	7.136152	-1.099083	689.755564	-12.532483	-9.180081	0.796223	1.330918	-1.816946
1.570	7.342939	-1.336532	690.615651	-12.639803	-9.301670	0.738922	1.346866	-1.830222
1.580	7.548449	-1.529444	691.615830	-12.752980	-9.412550	0.677937	1.360951	-1.843940
1.590	7.723002	-1.654886	692.665705	-12.870103	-9.510548	0.617339	1.373036	-1.858054
1.600	7.844744	-1.704643	693.689488	-12.988498	-9.594905	0.561162	1.383170	-1.872379
1.610	7.907228	-1.685644	694.629527	-13.105386	-9.666442	0.512797	1.391597	-1.886673
1.620	7.921132	-1.616547	695.445840	-13.218478	-9.727401	0.474446	1.398729	-1.900720
1.630	7.909838	-1.521985	696.113426	-13.326465	-9.780882	0.446862	1.405070	-1.914410
1.640	7.901064	-1.426606	696.618330	-13.429346	-9.829978	0.429474	1.411100	-1.927791
1.650	7.917975	-1.350623	696.952348	-13.528381	-9.876972	0.420812	1.417166	-1.941077
1.660	7.972985	-1.307496	697.106777	-13.625472	-9.922959	0.419041	1.423449	-1.954575
1.670	8.066089	-1.303455	697.068522	-13.722073	-9.968023	0.422420	1.429992	-1.968540
1.680	8.187496	-1.338323	696.823794	-13.818205	-10.011787	0.429623	1.436775	-1.983027
1.690	8.322701	-1.407036	696.371245	-13.912305	-10.054084	0.439939	1.443782	-1.997829
1.700	8.457708	-1.501182	695.738697	-14.002195	-10.095477	0.453353	1.451044	-2.012565
1.710	8.582649	-1.610051	694.992441	-14.086710	-10.137464	0.470433	1.458644	-2.026887
1.720	8.693085	-1.721360	694.230449	-14.166900	-10.182189	0.491966	1.466687	-2.040662
1.730	8.789260	-1.822534	693.559751	-14.245863	-10.231657	0.518392	1.475238	-2.054021
1.740	8.874359	-1.903121	693.067472	-14.327133	-10.286717	0.549327	1.484230	-2.067206
1.750	8.953015	-1.957839	692.798764	-14.412641	-10.346250	0.583395	1.493399	-2.080350
1.760	9.030720	-1.988727	692.750666	-14.501516	-10.406969	0.618394	1.502268	-2.093324
1.770	9.113547	-2.005007	692.882264	-14.590312	-10.464042	0.651628	1.510219	-2.105742
1.780	9.206964	-2.020236	693.133976	-14.674242	-10.512407	0.680193	1.516649	-2.117086
1.790	9.313219	-2.047439	693.446458	-14.748590	-10.548221	0.701192	1.521130	-2.126853
1.800	9.428290	-2.093556	693.772531	-14.809671	-10.569739	0.712082	1.523516	-2.134658
1.810	9.540462	-2.155119	694.080902	-14.855267	-10.577250	0.711255	1.523922	-2.140279
1.820	9.632243	-2.217357	694.354172	-14.884764	-10.572336	0.698698	1.522614	-2.143685
1.830	9.685786	-2.258170	694.584051	-14.899281	-10.557015	0.676332	1.519905	-2.145065
1.840	9.689865	-2.256167	694.765761	-14.901865	-10.533137	0.647809	1.516070	-2.144876
1.850	9.644984	-2.199639	694.893872	-14.897544	-10.502113	0.617861	1.511326	-2.143859
1.860	9.563634	-2.092569	694.962240	-14.892931	-10.464875	0.591448	1.505819	-2.142984
1.870	9.465184	-1.955104	694.968802	-14.895256	-10.421891	0.572904	1.499620	-2.143299
1.880	9.367890	-1.818358	694.922302	-14.911048	-10.373081	0.565166	1.492696	-2.145714
1.890	9.282080	-1.715608	694.846154	-14.944903	-10.317721	0.569278	1.484893	-2.150822
1.900	9.207851	-1.672924	694.776343	-14.998696	-10.254687	0.584352	1.475970	-2.158780
1.910	9.138173	-1.702216	694.753831	-15.071348	-10.183307	0.608032	1.465743	-2.169308
1.920	9.065392	-1.798686	694.814536	-15.159083	-10.104579	0.637298	1.454284	-2.181745
1.930	8.987376	-1.943323	694.980236	-15.256052	-10.021994	0.669261	1.442055	-2.195178
1.940	8.909890	-2.109346	695.252284	-15.355194	-9.941188	0.701620	1.429868	-2.208579
1.950	8.844083	-2.270216	695.608680	-15.449259	-9.868315	0.732682	1.418659	-2.220970
1.960	8.800774	-2.406340	696.004970	-15.531832	-9.807728	0.761095	1.409146	-2.231569
1.970	8.784982	-2.508360	696.379711	-15.598180	-9.759992	0.785609	1.401533	-2.239896
1.980	8.793758	-2.576482	696.664549	-15.645738	-9.721210	0.805070	1.395393	-2.245807
1.990	8.818217	-2.616987	696.797403	-15.674143	-9.684155	0.818673	1.389809	-2.249455
2.000	8.848269	-2.637889	696.735907	-15.684961	-9.640909	0.826300	1.383725	-2.251206
2.010	8.877331	-2.645642	696.467618	-15.681304	-9.585934	0.828754	1.376365	-2.251548
2.020	8.904734	-2.644023	696.013736	-15.667405	-9.518152	0.827746	1.367524	-2.251019
2.030	8.934942	-2.635219	695.424843	-15.648031	-9.440999	0.825596	1.357587	-2.250140
2.040	8.974098	-2.622111	694.770099	-15.627658	-9.360452	0.824734	1.347273	-2.249328
2.050	9.025335	-2.610198	694.123491	-15.609541	-9.282026	0.827158	1.337230	-2.248813
2.060	9.084750	-2.607888	693.551033	-15.595053	-9.208215	0.834000	1.327691	-2.248580
2.070	9.139879	-2.624718	693.101745	-15.583499	-9.137461	0.845328	1.318343	-2.248371
2.080	9.171767	-2.668065	692.804172	-15.572398	-9.064869	0.860233	1.308432	-2.247734
2.090	9.160343	-2.739727	692.668794	-15.557982	-8.984124	0.877183	1.297030	-2.246093
2.100	9.091163	-2.834056	692.694427	-15.535681	-8.889740	0.894508	1.283357	-2.242790
2.110	8.960739	-2.938648	692.874105	-15.500431	-8.778815	0.910855	1.267014	-2.237121
2.120	8.778029	-3.037402	693.195718	-15.446880	-8.651761	0.925387	1.248098	-2.228358
2.130	8.561243	-3.114739	693.636346	-15.369751	-8.511823	0.937653	1.227130	-2.215823
2.140	8.331104	-3.159450	694.154707	-15.264558	-8.363581	0.947193	1.204858	-2.199014
2.150	8.103347	-3.166929	694.689133	-15.128642	-8.211020	0.953121	1.181970	-2.177757
2.160	7.883660	-3.139369	695.166063	-14.962126	-8.055942	0.953958	1.158851	-2.152310
2.170	7.667242	-3.084112	695.517886	-14.768234	-7.897432	0.947865	1.135475	-2.123343
2.180	7.443054	-3.010603	695.702970	-14.552655	-7.732691	0.933219	1.111493	-2.091791
2.190	7.200747	-2.926642	695.718881	-14.322191	-7.558974	0.909286	1.086498	-2.058618
2.200	6.937221	-2.835272	695.603186	-14.083310	-7.375843	0.876694	1.060352	-2.024618
2.210	6.660264	-2.733957	695.422363	-13.841197	-7.186660	0.837506	1.033424	-1.990330
2.220	6.387944	-2.616981	695.254237	-13.599402	-6.998560	0.794850	1.006619	-1.956033
2.230	6.143870	-2.480332	695.171028	-13.359906	-6.820878	0.752214	0.981180	-1.921816
2.240	5.949695	-2.326760	695.228319	-13.123478	-6.662773	0.712644	0.958358	-1.887650
2.250	5.817494	-2.168246	695.461037	-12.890324	-6.531085	0.678097	0.939102	-1.853493
2.260	5.745213	-2.024185	695.883307	-12.660966	-6.429200	0.649169	0.923891	-1.819409
2.270	5.717318	-1.915696	696.488045	-12.436994	-6.357180	0.625275	0.912748	-1.785672
2.280	5.710502	-1.858369	697.245472	-12.221185	-6.312909	0.605159	0.905407	-1.752781
2.290	5.702220	-1.856267	698.103773	-12.016672	-6.293767	0.587471	0.901552	-1.721330
2.300	5.678995	-1.899274	698.994934	-11.825361	-6.298208	0.571109	0.901038	-1.691766
2.310	5.641972	-1.964532	699.844181	-11.646321	-6.326666	0.555295	0.904011	-1.664131
2.320	5.608130	-2.021560	700.577999	-11.474989	-6.381390	0.539493	0.910875	-1.637932
2.330	5.606609	-2.039805	701.127508	-11.303767	-6.465229	0.523334	0.922119	-1.612227
2.340	5.670645	-1.996655	701.428918	-11.123920	-6.579813	0.506574	0.938058	-1.585894
2.350	5.827035	-1.883660	701.425664	-10.928012	-6.723843	0.489054	0.958597	-1.557972
2.360	6.086311	-1.708991	701.075417	-10.711912	-6.892173	0.470709	0.983086	-1.527926
2.370	6.437297	-1.495287	700.361271	-10.475548	-7.076137	0.451695	1.010355	-1.495735
2.380	6.848514	-1.273409	699.302982	-10.222194	-7.265142	0.432686	1.038912	-1.461769
