Time[s]	Fx[N]	Fy[N]	Fz[N]	Mx[Nm]	My[Nm]	Mz[Nm]	COPx[cm]	COPy[cm]
0.010	5.896711	-4.837843	712.968412	0.978996	6.112287	1.070153	-0.857301	0.137313
0.020	6.011949	-4.875924	712.098639	1.050885	6.006644	1.054174	-0.843513	0.147576
0.030	6.136845	-4.906030	711.302134	1.123026	5.896011	1.038576	-0.828904	0.157883
0.040	6.277019	-4.922079	710.636343	1.195478	5.777257	1.023856	-0.812970	0.168226
0.050	6.433163	-4.920993	710.133799	1.268668	5.649760	1.010603	-0.795591	0.178652
0.060	6.601538	-4.902879	709.798532	1.343495	5.515488	0.999319	-0.777050	0.189278
0.070	6.775613	-4.870629	709.609245	1.421186	5.378308	0.990169	-0.757925	0.200277
0.080	6.947683	-4.829334	709.528309	1.502844	5.242886	0.982844	-0.738925	0.211809
0.090	7.110122	-4.785494	709.514187	1.588898	5.113569	0.976614	-0.720714	0.223942
0.100	7.256613	-4.745754	709.533039	1.678843	4.993552	0.970584	-0.703780	0.236612
0.110	7.383548	-4.715171	709.564994	1.771452	4.884442	0.964011	-0.688371	0.249653
0.120	7.491269	-4.695547	709.602923	1.865283	4.786277	0.956532	-0.674501	0.262863
0.130	7.584408	-4.684525	709.645062	1.959034	4.698008	0.948145	-0.662022	0.276058
0.140	7.670689	-4.675986	709.685532	2.051449	4.618410	0.939029	-0.650769	0.289065
0.150	7.758060	-4.661770	709.707430	2.140861	4.547155	0.929347	-0.640708	0.301654
0.160	7.851022	-4.634299	709.682033	2.224781	4.485574	0.919169	-0.632054	0.313490
0.170	7.947796	-4.589264	709.575161	2.299946	4.436661	0.908505	-0.625256	0.324130
0.180	8.039911	-4.527426	709.358796	2.362898	4.404233	0.897394	-0.620875	0.333103
0.190	8.114572	-4.454836	709.023627	2.410743	4.391581	0.886029	-0.619384	0.340009
0.200	8.158650	-4.381349	708.587461	2.441690	4.400284	0.874893	-0.620994	0.344586
0.210	8.162457	-4.318005	708.095897	2.455296	4.429755	0.864805	-0.625587	0.346746
0.220	8.122129	-4.274385	707.614909	2.452640	4.477760	0.856758	-0.632796	0.346607
0.230	8.040602	-4.256883	707.218017	2.436463	4.541565	0.851557	-0.642173	0.344514
0.240	7.927600	-4.268150	706.971829	2.411018	4.619062	0.849419	-0.653359	0.341035
0.250	7.798653	-4.307262	706.923205	2.381307	4.709306	0.849771	-0.666169	0.336855
0.260	7.672702	-4.370117	707.090389	2.351770	4.812390	0.851393	-0.680590	0.332598
0.270	7.568185	-4.450018	707.459048	2.324882	4.928957	0.852890	-0.696713	0.328624
0.280	7.498312	-4.538698	707.982653	2.300233	5.059788	0.853328	-0.714677	0.324900
0.290	7.467056	-4.627776	708.586347	2.274316	5.205718	0.852746	-0.734662	0.320965
0.300	7.467375	-4.710308	709.174725	2.241030	5.367887	0.852247	-0.756920	0.316005
0.310	7.482270	-4.782078	709.644369	2.192687	5.548128	0.853588	-0.781818	0.308984
0.320	7.488220	-4.842517	709.900188	2.121328	5.749225	0.858491	-0.809864	0.298821
0.330	7.459911	-4.895259	709.871993	2.020015	5.974944	0.868012	-0.841693	0.284560
0.340	7.375152	-4.948219	709.527089	1.883894	6.229812	0.882214	-0.878023	0.265514
0.350	7.219019	-5.012810	708.876735	1.711027	6.518529	0.900165	-0.919557	0.241372
0.360	6.986470	-5.101989	707.977451	1.503131	6.844853	0.920181	-0.966818	0.212313
0.370	6.683022	-5.227294	706.929454	1.266287	7.210135	0.940138	-1.019923	0.179125
0.380	6.323419	-5.395529	705.872908	1.011349	7.612051	0.957736	-1.078388	0.143276
0.390	5.928575	-5.606104	704.979517	0.753457	8.044171	0.970654	-1.141050	0.106876
0.400	5.521422	-5.850059	704.435237	0.510017	8.496577	0.976639	-1.206154	0.072401
0.410	5.122656	-6.111384	704.411876	0.297106	8.957276	0.973641	-1.271596	0.042178
0.420	4.747333	-6.370366	705.031139	0.125323	9.413907	0.960108	-1.335247	0.017775
0.430	4.402797	-6.607832	706.330715	-0.003182	9.855358	0.935477	-1.395289	-0.000451
0.440	4.088136	-6.808960	708.244414	-0.095126	10.273014	0.900698	-1.450490	-0.013431
0.450	3.795415	-6.965727	710.605051	-0.163798	10.661411	0.858483	-1.500329	-0.023050
0.460	3.512990	-7.077697	713.171166	-0.224946	11.018101	0.812995	-1.544945	-0.031542
0.470	3.230616	-7.151231	715.670392	-0.292191	11.342807	0.768988	-1.584921	-0.040828
0.480	2.944751	-7.197304	717.847600	-0.373301	11.636246	0.730665	-1.620991	-0.052003
0.490	2.661742	-7.228359	719.506063	-0.468380	11.899021	0.700764	-1.653776	-0.065097
0.500	2.397349	-7.255064	720.533203	-0.570466	12.130752	0.680220	-1.683580	-0.079173
0.510	2.172990	-7.283890	720.906968	-0.668229	12.329575	0.668464	-1.710287	-0.092693
0.520	2.010702	-7.316079	720.683766	-0.749717	12.492183	0.664080	-1.733379	-0.104029
0.530	1.928793	-7.348056	719.973486	-0.805705	12.614672	0.665457	-1.752102	-0.111908
0.540	1.938857	-7.372990	718.909852	-0.831472	12.694147	0.671189	-1.765749	-0.115657
0.550	2.043621	-7.382901	717.623909	-0.826706	12.730571	0.680168	-1.773989	-0.115200
0.560	2.235213	-7.370578	716.225369	-0.794148	12.728057	0.691511	-1.777102	-0.110880
0.570	2.494635	-7.330931	714.793401	-0.737992	12.694978	0.704482	-1.776035	-0.103246
0.580	2.793805	-7.261817	713.376495	-0.662628	12.642776	0.718491	-1.772245	-0.092886
0.590	3.100546	-7.164562	711.999603	-0.571841	12.583889	0.733125	-1.767401	-0.080315
0.600	3.385027	-7.044131	710.675522	-0.468363	12.529505	0.748129	-1.763042	-0.065904
0.610	3.625093	-6.908706	709.417015	-0.353768	12.487929	0.763298	-1.760309	-0.049867
0.620	3.808568	-6.768535	708.246711	-0.228758	12.464001	0.778362	-1.759839	-0.032299
0.630	3.932323	-6.634046	707.203016	-0.093741	12.459506	0.792964	-1.761800	-0.013255
0.640	3.999450	-6.513564	706.341086	0.050495	12.474135	0.806757	-1.766021	0.007149
0.650	4.016371	-6.411424	705.727891	0.202224	12.506447	0.819617	-1.772134	0.028655
0.660	3.991035	-6.327580	705.430873	0.358466	12.554532	0.831808	-1.779697	0.050815
0.670	3.932273	-6.259164	705.502365	0.515061	12.616265	0.843981	-1.788267	0.073006
0.680	3.849633	-6.203064	705.964747	0.667205	12.689207	0.856875	-1.797428	0.094510
0.690	3.753030	-6.157640	706.801069	0.810388	12.770278	0.870792	-1.806771	0.114656
0.700	3.652007	-6.122406	707.953156	0.941437	12.855435	0.885102	-1.815860	0.132980
0.710	3.554933	-6.096273	709.326665	1.059235	12.939580	0.898085	-1.824206	0.149330
0.720	3.468665	-6.076121	710.801675	1.164794	13.016894	0.907328	-1.831298	0.163870
0.730	3.398863	-6.057000	712.247228	1.260694	13.081628	0.910546	-1.836670	0.177002
0.740	3.350516	-6.033870	713.537362	1.350119	13.129142	0.906491	-1.840008	0.189215
0.750	3.327975	-6.003713	714.565123	1.435731	13.156864	0.895571	-1.841241	0.200924
0.760	3.334252	-5.966728	715.251696	1.518578	13.164725	0.879922	-1.840572	0.212314
0.770	3.370206	-5.926049	715.550460	1.597425	13.154839	0.862895	-1.838422	0.223244
0.780	3.434494	-5.886318	715.447714	1.668925	13.130563	0.848133	-1.835293	0.233270
0.790	3.524476	-5.851933	714.961905	1.728765	13.095377	0.838570	-1.831619	0.241798
0.800	3.637281	-5.825584	714.141849	1.773362	13.052117	0.835687	-1.827664	0.248321
0.810	3.770103	-5.807504	713.062779	1.801392	13.002839	0.839304	-1.823520	0.252627
0.820	3.919567	-5.795701	711.818256	1.814468	12.949285	0.847939	-1.819184	0.254906
0.830	4.081073	-5.787180	710.507714	1.816758	12.893650	0.859550	-1.814709	0.255699
0.840	4.249180	-5.779669	709.223036	1.813785	12.839244	0.872300	-1.810325	0.255742
0.850	4.419091	-5.772998	708.039228	1.810913	12.790639	0.885012	-1.806487	0.255765
0.860	4.588065	-5.769445	707.012030	1.812024	12.753130	0.897195	-1.803807	0.256293
0.870	4.755292	-5.772971	706.181477	1.818733	12.731729	0.908782	-1.802898	0.257545
0.880	4.919575	-5.787893	705.577899	1.830307	12.730201	0.919866	-1.804223	0.259405
0.890	5.075597	-5.817602	705.226423	1.844212	12.750695	0.930604	-1.808029	0.261506
0.900	5.210730	-5.863652	705.147430	1.857133	12.794093	0.941257	-1.814386	0.263368
0.910	5.304748	-5.925233	705.352681	1.866233	12.860655	0.952165	-1.823294	0.264581
0.920	5.333841	-5.999015	705.838931	1.870293	12.950287	0.963539	-1.834737	0.264975
0.930	5.278261	-6.079437	706.582315	1.870243	13.062125	0.975121	-1.848635	0.264689
0.940	5.130791	-6.159579	707.536703	1.868692	13.193727	0.985973	-1.864741	0.264112
0.950	4.902439	-6.232618	708.637142	1.868589	13.340554	0.994588	-1.882565	0.263688
0.960	4.622583	-6.293469	709.806624	1.871662	13.496238	0.999331	-1.901396	0.263686
0.970	4.332917	-6.339886	710.963342	1.877531	13.653622	0.999035	-1.920440	0.264083
0.980	4.076986	-6.372369	712.027249	1.884032	13.806111	0.993482	-1.938986	0.264601
0.990	3.888877	-6.392953	712.926823	1.888638	13.948752	0.983559	-1.956548	0.264913
1.000	3.785055	-6.403581	713.606808	1.890217	14.078657	0.971020	-1.972887	0.264882
1.010	3.762189	-6.404964	714.035395	1.890186	14.194731	0.957963	-1.987959	0.264719
1.020	3.801372	-6.396396	714.207346	1.892383	14.297004	0.946186	-2.001800	0.264963
1.030	3.876562	-6.376406	714.140807	1.901690	14.385985	0.936639	-2.014447	0.266291
1.040	3.963598	-6.343922	713.869673	1.922178	14.462371	0.929132	-2.025912	0.269262
1.050	4.046587	-6.299461	713.436635	1.955785	14.527162	0.922457	-2.036223	0.274136
1.060	4.120266	-6.245631	712.890789	2.002223	14.581969	0.914885	-2.045470	0.280860
1.070	4.188778	-6.186044	712.288749	2.060106	14.629192	0.904841	-2.053829	0.289223
1.080	4.262166	-6.122481	711.693831	2.128691	14.671880	0.891398	-2.061544	0.299102
1.090	4.351897	-6.051489	711.168078	2.209313	14.713376	0.874376	-2.068903	0.310660
1.100	4.466427	-5.962762	710.757053	2.305710	14.756984	0.854136	-2.076235	0.324402
1.110	4.607750	-5.841313	710.473745	2.422941	14.805797	0.831337	-2.083933	0.341032
1.120	4.769853	-5.673447	710.290568	2.565337	14.862656	0.806836	-2.092475	0.361167
1.130	4.939729	-5.454143	710.144934	2.734448	14.930211	0.781697	-2.102417	0.385055
1.140	5.100654	-5.192183	709.957111	2.927956	15.011036	0.757173	-2.114358	0.412413
1.150	5.236266	-4.910020	709.654024	3.139960	15.107751	0.734615	-2.128890	0.442463
1.160	5.333304	-4.637696	709.191553	3.362373	15.223111	0.715341	-2.146544	0.474113
1.170	5.381652	-4.402884	708.569454	3.586758	15.360038	0.700489	-2.167753	0.506197
1.180	5.372309	-4.221334	707.835811	3.805867	15.521565	0.690826	-2.192820	0.537677
1.190	5.295694	-4.092122	707.080888	4.014354	15.710586	0.686547	-2.221894	0.567736
1.200	5.142706	-3.999891	706.422244	4.208549	15.929256	0.687164	-2.254920	0.595755
1.210	4.908954	-3.922802	705.983848	4.385653	16.177979	0.691590	-2.291551	0.621211
1.220	4.600070	-3.842322	705.872469	4.542959	16.454313	0.698426	-2.331060	0.643595
1.230	4.234659	-3.750653	706.155007	4.677496	16.752361	0.706362	-2.372335	0.662389
1.240	3.842215	-3.653314	706.840673	4.786211	17.063248	0.714549	-2.414016	0.677127
1.250	3.455848	-3.566756	707.872650	4.866554	17.376766	0.722776	-2.454787	0.687490
1.260	3.102672	-3.512649	709.134153	4.917221	17.683688	0.731385	-2.493701	0.693412
1.270	2.796292	-3.511143	710.470583	4.938728	17.977812	0.740972	-2.530409	0.695135
1.280	2.534836	-3.575003	711.722881	4.933529	18.256882	0.752033	-2.565167	0.693181
1.290	2.305071	-3.705658	712.761428	4.905625	18.521902	0.764666	-2.598612	0.688256
1.300	2.090266	-3.891688	713.509392	4.859899	18.775143	0.778376	-2.631380	0.681126
1.310	1.878281	-4.110093	713.949514	4.801589	19.017764	0.791976	-2.663741	0.672539
1.320	1.666802	-4.330508	714.114738	4.736050	19.248198	0.803616	-2.695393	0.663206
1.330	1.464173	-4.521694	714.067535	4.668558	19.462082	0.810986	-2.725524	0.653798
1.340	1.286010	-4.658717	713.874889	4.603811	19.653689	0.811742	-2.753100	0.644904
1.350	1.149138	-4.728785	713.587026	4.545044	19.818180	0.804136	-2.777262	0.636929
1.360	1.064950	-4.733948	713.227297	4.493065	19.953654	0.787694	-2.797657	0.629963
1.370	1.034372	-4.689750	712.796792	4.445655	20.062038	0.763701	-2.814552	0.623692
1.380	1.046307	-4.620153	712.290674	4.397746	20.148455	0.735204	-2.828684	0.617409
1.390	1.080715	-4.550540	711.717490	4.342583	20.219393	0.706463	-2.840930	0.610155
1.400	1.115758	-4.501380	711.111363	4.273752	20.280553	0.681980	-2.851952	0.600996
1.410	1.136154	-4.484661	710.530827	4.187470	20.335308	0.665420	-2.861988	0.589344
1.420	1.138744	-4.503804	710.044420	4.084146	20.384345	0.658765	-2.870855	0.575196
1.430	1.132386	-4.556289	709.708870	3.968418	20.426499	0.661922	-2.878152	0.559161
1.440	1.132188	-4.637163	709.549231	3.847664	20.460273	0.672881	-2.883559	0.542269
1.450	1.151013	-4.741450	709.550188	3.729763	20.485309	0.688393	-2.887084	0.525652
1.460	1.192412	-4.864378	709.662937	3.621036	20.503198	0.704968	-2.889146	0.510247
1.470	1.248277	-4.999833	709.824483	3.525000	20.517369	0.719846	-2.890485	0.496602
1.480	1.301938	-5.138545	709.980755	3.442146	20.532131	0.731568	-2.891928	0.484822
1.490	1.334755	-5.267637	710.104513	3.370632	20.551232	0.739948	-2.894114	0.474667
1.500	1.332867	-5.372410	710.202280	3.307587	20.576488	0.745570	-2.897271	0.465725
1.510	1.291419	-5.439944	710.308560	3.250466	20.607010	0.749093	-2.901135	0.457613
1.520	1.215324	-5.462948	710.469270	3.197949	20.639305	0.750709	-2.905024	0.450118
1.530	1.117290	-5.441898	710.720211	3.150073	20.668177	0.749960	-2.908061	0.443223
1.540	1.014370	-5.384454	711.069291	3.107672	20.688080	0.745942	-2.909432	0.437042
1.550	0.924005	-5.302697	711.490637	3.071542	20.694457	0.737783	-2.908606	0.431705
1.560	0.860171	-5.209653	711.933309	3.041798	20.684639	0.725181	-2.905418	0.427259
1.570	0.830348	-5.116482	712.339787	3.017682	20.658002	0.708764	-2.900021	0.423630
1.580	0.834260	-5.030939	712.664422	2.997645	20.615357	0.690129	-2.892716	0.420625
1.590	0.865065	-4.957139	712.883503	2.979366	20.557824	0.671540	-2.883756	0.417932
1.600	0.912892	-4.896271	712.995324	2.959717	20.485654	0.655379	-2.873182	0.415110
1.610	0.969359	-4.847817	713.014758	2.935081	20.397537	0.643503	-2.860745	0.411644
1.620	1.030896	-4.810698	712.967500	2.902279	20.290624	0.636721	-2.845940	0.407070
1.630	1.099184	-4.783790	712.885681	2.859765	20.161131	0.634556	-2.828102	0.401153
1.640	1.178940	-4.765520	712.803629	2.808309	20.005213	0.635397	-2.806553	0.393981
1.650	1.274936	-4.752935	712.752345	2.750720	19.819840	0.637027	-2.780747	0.385929
1.660	1.390312	-4.741209	712.752345	2.690705	19.603526	0.637353	-2.750398	0.377509
1.670	1.526822	-4.724534	712.805939	2.631343	19.356760	0.635118	-2.715572	0.369153
1.680	1.686117	-4.698606	712.891703	2.573728	19.082046	0.630332	-2.676710	0.361026
1.690	1.870526	-4.663777	712.964970	2.516187	18.783602	0.624305	-2.634576	0.352919
1.700	2.082378	-4.626996	712.966825	2.454352	18.466799	0.619267	-2.590134	0.344245
1.710	2.322265	-4.600823	712.839940	2.382237	18.137433	0.617734	-2.544391	0.334190
1.720	2.587597	-4.599329	712.545277	2.294219	17.800962	0.621808	-2.498222	0.321975
1.730	2.872625	-4.632644	712.072730	2.187337	17.461987	0.632643	-2.452276	0.307179
1.740	3.169962	-4.702765	711.442242	2.062902	17.124210	0.650229	-2.406971	0.289961
1.750	3.472521	-4.802499	710.696932	1.926440	16.790821	0.673498	-2.362585	0.271063
1.760	3.774553	-4.917848	709.892709	1.785744	16.465008	0.700647	-2.319366	0.251551
1.770	4.071198	-5.032705	709.088295	1.647869	16.150234	0.729551	-2.277606	0.232393
1.780	4.357290	-5.133903	708.337440	1.516535	15.850129	0.758176	-2.237652	0.214098
1.790	4.626730	-5.214772	707.683486	1.391173	15.568066	0.784902	-2.199863	0.196581
1.800	4.873086	-5.276157	707.156102	1.267813	15.306624	0.808732	-2.164533	0.179283
1.810	5.090848	-5.325011	706.770515	1.141126	15.067133	0.829381	-2.131828	0.161456
1.820	5.276330	-5.371459	706.529841	1.006626	14.849580	0.847256	-2.101763	0.142475
1.830	5.427824	-5.425601	706.430192	0.862161	14.653041	0.863265	-2.074238	0.122045
1.840	5.545329	-5.495033	706.466274	0.708273	14.476630	0.878445	-2.049161	0.100256
1.850	5.630176	-5.583499	706.634225	0.547551	14.320570	0.893570	-2.026589	0.077487
1.860	5.684511	-5.690643	706.929882	0.383517	14.186765	0.908969	-2.006814	0.054251
1.870	5.710549	-5.812642	707.343273	0.219560	14.078401	0.924588	-1.990321	0.031040
1.880	5.709908	-5.943311	707.852333	0.058103	13.998620	0.940146	-1.977619	0.008208
1.890	5.683369	-6.075165	708.419586	-0.099959	13.948922	0.955193	-1.969020	-0.014110
1.900	5.631129	-6.200189	708.994547	-0.255465	13.928121	0.969057	-1.964489	-0.036032
1.910	5.553371	-6.310494	709.522078	-0.410674	13.932405	0.980838	-1.963632	-0.057880
1.920	5.451033	-6.399100	709.954281	-0.568455	13.956455	0.989569	-1.965824	-0.080069
1.930	5.326531	-6.460926	710.261879	-0.731317	13.994998	0.994527	-1.970400	-0.102964
1.940	5.183974	-6.493998	710.440456	-0.900681	14.043998	0.995500	-1.976802	-0.126778
1.950	5.028376	-6.500672	710.508097	-1.076677	14.100964	0.992810	-1.984631	-0.151536
1.960	4.863892	-6.488231	710.495173	-1.258508	14.164430	0.987077	-1.993600	-0.177131
1.970	4.692013	-6.468220	710.431960	-1.445252	14.233219	0.978919	-2.003460	-0.203433
1.980	4.511050	-6.454489	710.340487	-1.636886	14.306149	0.968776	-2.013985	-0.230437
1.990	4.317503	-6.460667	710.232590	-1.835137	14.382379	0.957002	-2.025024	-0.258385
2.000	4.108431	-6.497889	710.111519	-2.043749	14.462066	0.944147	-2.036591	-0.287807
2.010	3.883184	-6.573309	709.974327	-2.267924	14.546771	0.931201	-2.048915	-0.319437
2.020	3.643598	-6.689636	709.815426	-2.513075	14.639179	0.919552	-2.062392	-0.354046
2.030	3.393435	-6.845701	709.633656	-2.783281	14.742010	0.910616	-2.077411	-0.392214
2.040	3.138711	-7.037929	709.442819	-3.079897	14.856344	0.905271	-2.094086	-0.434129
2.050	2.889562	-7.262179	709.281169	-3.400682	14.979977	0.903397	-2.111994	-0.479455
2.060	2.662408	-7.515034	709.212940	-3.739632	15.106540	0.903735	-2.130043	-0.527293
2.070	2.480149	-7.793562	709.317495	-4.087553	15.225950	0.904144	-2.146563	-0.576266
2.080	2.368842	-8.093324	709.667589	-4.433243	15.326263	0.902168	-2.159640	-0.624693
2.090	2.351170	-8.405767	710.304162	-4.765000	15.396380	0.895668	-2.167576	-0.670839
2.100	2.438638	-8.716899	711.217171	-5.072193	15.428687	0.883295	-2.169335	-0.713171
2.110	2.625284	-9.008591	712.339325	-5.346669	15.420731	0.864705	-2.164801	-0.750579
2.120	2.885673	-9.262113	713.554291	-5.583760	15.375445	0.840578	-2.154769	-0.782528
2.130	3.178860	-9.462149	714.716596	-5.782621	15.299955	0.812544	-2.140702	-0.809079
2.140	3.457942	-9.599602	715.678723	-5.945743	15.203410	0.782957	-2.124334	-0.830784
2.150	3.682264	-9.672562	716.320036	-6.077749	15.094481	0.754454	-2.107226	-0.848468
2.160	3.827874	-9.685865	716.571011	-6.183766	14.979205	0.729352	-2.090401	-0.862966
2.170	3.892396	-9.649796	716.426287	-6.267827	14.859803	0.709150	-2.074157	-0.874874
2.180	3.892966	-9.578196	715.942874	-6.331842	14.734825	0.694425	-2.058101	-0.884406
2.190	3.858771	-9.486088	715.224152	-6.375535	14.600529	0.685172	-2.041392	-0.891404
2.200	3.821615	-9.387241	714.393487	-6.397394	14.452959	0.681289	-2.023109	-0.895500
2.210	3.807867	-9.292217	713.563249	-6.396199	14.289931	0.682829	-2.002616	-0.896375
2.220	3.833794	-9.207275	712.807249	-6.372397	14.112201	0.689828	-1.979806	-0.893986
2.230	3.904570	-9.134142	712.146348	-6.328722	13.923477	0.701910	-1.955143	-0.888683
2.240	4.015938	-9.070519	711.553991	-6.269808	13.729477	0.718000	-1.929506	-0.881143
2.250	4.157111	-9.011077	710.979494	-6.201034	13.536625	0.736399	-1.903940	-0.872182
2.260	4.313726	-8.948801	710.377442	-6.127136	13.350998	0.755198	-1.879423	-0.862518
2.270	4.470449	-8.876630	709.729307	-6.051149	13.177738	0.772789	-1.856727	-0.852600
2.280	4.613289	-8.789242	709.049954	-5.973950	13.020888	0.788172	-1.836385	-0.842529
2.290	4.731626	-8.684697	708.381188	-5.894465	12.883361	0.800948	-1.818705	-0.832104
2.300	4.819551	-8.565400	707.779521	-5.810365	12.766862	0.811133	-1.803791	-0.820929
2.310	4.875923	-8.437957	707.304142	-5.718949	12.671756	0.819028	-1.791557	-0.808556
2.320	4.902857	-8.311744	707.007531	-5.617903	12.597061	0.825258	-1.781744	-0.794603
2.330	4.903070	-8.196368	706.928961	-5.505798	12.540630	0.830809	-1.773959	-0.778833
2.340	4.877363	-8.098611	707.090715	-5.382391	12.499458	0.836912	-1.767730	-0.761202
2.350	4.823719	-8.019847	707.496731	-5.248735	12.469942	0.844712	-1.762544	-0.741874
2.360	4.738748	-7.955253	708.132956	-5.106985	12.448063	0.854899	-1.757871	-0.721190
2.370	4.620900	-7.895584	708.968581	-4.959824	12.429537	0.867470	-1.753186	-0.699583
2.380	4.473867	-7.830767	709.957975	-4.809776	12.410018	0.881737	-1.747993	-0.677473
