Time[s]	Fx[N]	Fy[N]	Fz[N]	Mx[Nm]	My[Nm]	Mz[Nm]	COPx[cm]	COPy[cm]
0.010	-1.261512	-5.393858	575.553558	7.075042	-2.700892	0.092903	0.469269	1.229259
0.020	-0.781946	-4.905607	574.069964	7.139640	-2.889812	0.049974	0.503390	1.243688
0.030	-0.313951	-4.432098	572.505511	7.207808	-3.067902	0.010881	0.535873	1.258994
0.040	0.132318	-3.987092	570.801554	7.282859	-3.225437	-0.021456	0.565071	1.275900
0.050	0.545541	-3.583874	568.949189	7.366596	-3.354506	-0.045128	0.589597	1.294772
0.060	0.911413	-3.236021	566.999046	7.458413	-3.449559	-0.059261	0.608389	1.315419
0.070	1.211009	-2.957692	565.057731	7.554703	-3.507530	-0.063803	0.620738	1.336979
0.080	1.421255	-2.762414	563.272701	7.648987	-3.527692	-0.059255	0.626285	1.357954
0.090	1.518869	-2.660211	561.811042	7.733070	-3.511612	-0.046441	0.625052	1.376454
0.100	1.487124	-2.654034	560.837214	7.799152	-3.463440	-0.026364	0.617548	1.390627
0.110	1.322680	-2.737065	560.491512	7.842215	-3.390343	-0.000123	0.604887	1.399168
0.120	1.039137	-2.892267	560.868983	7.861759	-3.302623	0.031066	0.588840	1.401710
0.130	0.665596	-3.094664	561.999988	7.862149	-3.213057	0.065715	0.571718	1.398959
0.140	0.241120	-3.315654	563.836371	7.851481	-3.135369	0.101788	0.556078	1.392511
0.150	-0.192191	-3.527923	566.248455	7.839435	-3.082240	0.136462	0.544326	1.384451
0.160	-0.594988	-3.709381	569.036349	7.834892	-3.063502	0.166170	0.538367	1.376870
0.170	-0.934346	-3.845125	571.954919	7.843962	-3.085129	0.187168	0.539401	1.371430
0.180	-1.185777	-3.927391	574.747645	7.868791	-3.149221	0.196565	0.547931	1.369086
0.190	-1.334269	-3.954246	577.181977	7.907313	-3.254853	0.193370	0.563921	1.369986
0.200	-1.374373	-3.928087	579.078083	7.954156	-3.399316	0.179009	0.587022	1.373590
0.210	-1.308891	-3.854667	580.324406	8.002697	-3.579172	0.156995	0.616754	1.379004
0.220	-1.146138	-3.742700	580.878092	8.047748	-3.790703	0.131884	0.652581	1.385445
0.230	-0.896607	-3.603547	580.753934	8.087774	-4.029717	0.107903	0.693877	1.392634
0.240	-0.570541	-3.450328	580.008655	8.125508	-4.291130	0.087796	0.739839	1.400929
0.250	-0.177840	-3.296152	578.726932	8.166584	-4.568781	0.072325	0.789454	1.411129
0.260	0.269351	-3.151908	577.013155	8.216825	-4.855758	0.060640	0.841533	1.424027
0.270	0.752603	-3.024505	574.989539	8.279593	-5.145187	0.051271	0.894831	1.439955
0.280	1.244359	-2.916188	572.797517	8.354645	-5.431266	0.043280	0.948200	1.458569
0.290	1.708926	-2.824858	570.596778	8.439134	-5.710252	0.036988	1.000751	1.479001
0.300	2.108298	-2.745072	568.557361	8.530103	-5.981131	0.033941	1.051984	1.500307
0.310	2.411204	-2.669623	566.844361	8.626886	-6.245769	0.036088	1.101849	1.521914
0.320	2.601740	-2.591658	565.599150	8.732026	-6.508514	0.044594	1.150729	1.543854
0.330	2.683779	-2.506976	564.922884	8.850456	-6.775476	0.058925	1.199363	1.566666
0.340	2.679121	-2.415615	564.867447	8.987832	-7.053806	0.076716	1.248754	1.591140
0.350	2.620384	-2.321692	565.435910	9.149123	-7.351135	0.094544	1.300083	1.618065
0.360	2.542279	-2.231146	566.589343	9.337977	-7.675077	0.109197	1.354610	1.648103
0.370	2.475614	-2.148181	568.252464	9.556550	-8.032590	0.118805	1.413560	1.681744
0.380	2.446150	-2.072020	570.312587	9.805229	-8.429042	0.123278	1.477969	1.719273
0.390	2.476759	-1.995287	572.614821	10.081998	-8.867099	0.123857	1.548528	1.760694
0.400	2.589105	-1.904449	574.963420	10.381786	-9.345779	0.122044	1.625456	1.805643
0.410	2.802033	-1.781946	577.136625	10.696439	-9.860157	0.118528	1.708462	1.853363
0.420	3.127028	-1.609360	578.912939	11.015721	-10.402047	0.112718	1.796824	1.902829
0.430	3.563476	-1.371136	580.099605	11.329190	-10.961511	0.103123	1.889591	1.952973
0.440	4.096375	-1.058655	580.554502	11.628282	-11.528556	0.088361	1.985784	2.002961
0.450	4.697288	-0.674357	580.198299	11.907729	-12.094200	0.068312	2.084494	2.052355
0.460	5.327925	-0.234821	579.019304	12.165702	-12.650551	0.044905	2.184824	2.101087
0.470	5.945410	0.228952	577.075069	12.402659	-13.190240	0.022185	2.285706	2.149228
0.480	6.508643	0.675122	574.492195	12.619399	-13.705997	0.005551	2.385759	2.196618
0.490	6.985075	1.057850	571.461879	12.815090	-14.191000	0.000383	2.483280	2.242510
0.500	7.356637	1.335519	568.227219	12.986039	-14.639943	0.010524	2.576424	2.285360
0.510	7.622816	1.478709	565.060473	13.125819	-15.050187	0.037128	2.663465	2.322905
0.520	7.799029	1.476894	562.232336	13.227040	-15.422251	0.078263	2.743039	2.352593
0.530	7.910061	1.342683	559.978470	13.284369	-15.759299	0.129305	2.814269	2.372300
0.540	7.980741	1.111886	558.469913	13.297743	-16.065840	0.183933	2.876760	2.381103
0.550	8.027577	0.837989	557.793696	13.274410	-16.346173	0.235353	2.930505	2.379806
0.560	8.054724	0.581357	557.947526	13.228646	-16.603076	0.277436	2.975742	2.370948
0.570	8.055736	0.395582	558.848343	13.178779	-16.837099	0.305543	3.012821	2.358203
0.580	8.020262	0.314709	560.350913	13.142279	-17.046647	0.317030	3.042138	2.345366
0.590	7.942760	0.345020	562.271181	13.130629	-17.228787	0.311470	3.064142	2.335284
0.600	7.829233	0.464005	564.409894	13.145937	-17.380460	0.290620	3.079404	2.329147
0.610	7.698585	0.627285	566.573284	13.180540	-17.499598	0.258085	3.088673	2.326361
0.620	7.577814	0.781519	568.588745	13.219600	-17.585703	0.218641	3.092869	2.324985
0.630	7.493320	0.879012	570.315014	13.245613	-17.639667	0.177314	3.092969	2.322508
0.640	7.462304	0.889239	571.648527	13.243289	-17.662986	0.138396	3.089833	2.316684
0.650	7.487730	0.804433	572.528066	13.203489	-17.656839	0.104652	3.084013	2.306173
0.660	7.558077	0.639099	572.937733	13.125320	-17.621538	0.076974	3.075646	2.290881
0.670	7.650689	0.425086	572.906145	13.015973	-17.556690	0.054600	3.064497	2.271921
0.680	7.736532	0.204107	572.500571	12.888413	-17.462068	0.035786	3.050140	2.251249
0.690	7.785015	0.019176	571.817119	12.757605	-17.338932	0.018662	3.032251	2.231064
0.700	7.768992	-0.093852	570.968552	12.636410	-17.191257	0.001976	3.010894	2.213153
0.710	7.670264	-0.113438	570.070096	12.532247	-17.026188	-0.014496	2.986683	2.198369
0.720	7.484631	-0.036826	569.224057	12.445327	-16.853304	-0.029883	2.960751	2.186367
0.730	7.224183	0.119432	568.506796	12.368956	-16.682801	-0.042443	2.934494	2.175692
0.740	6.914848	0.323479	567.962842	12.291865	-16.523298	-0.049994	2.909222	2.164202
0.750	6.589561	0.535806	567.607576	12.201708	-16.380219	-0.050515	2.885835	2.149673
0.760	6.280004	0.717970	567.434709	12.088346	-16.255340	-0.042793	2.864707	2.130350
0.770	6.010575	0.839235	567.423106	11.945685	-16.147507	-0.026924	2.845761	2.105252
0.780	5.796314	0.879420	567.540832	11.771713	-16.053894	-0.004471	2.828677	2.074162
0.790	5.643965	0.828528	567.748471	11.567224	-15.971115	0.021840	2.813062	2.037385
0.800	5.554065	0.685124	568.004501	11.334207	-15.895728	0.048817	2.798522	1.995443
0.810	5.522514	0.454978	568.272829	11.074889	-15.824272	0.073609	2.784626	1.948868
0.820	5.541092	0.150230	568.529705	10.791779	-15.753237	0.094287	2.770873	1.898191
0.830	5.597271	-0.211481	568.766746	10.488290	-15.679309	0.109945	2.756720	1.844041
0.840	5.674333	-0.608291	568.988632	10.169113	-15.599811	0.120337	2.741673	1.787226
0.850	5.753129	-1.015737	569.206498	9.839754	-15.512996	0.125352	2.725372	1.728679
0.860	5.815985	-1.408670	569.429725	9.505230	-15.417993	0.124642	2.707620	1.669254
0.870	5.851540	-1.763620	569.659346	9.168411	-15.314379	0.117598	2.688340	1.609455
0.880	5.858020	-2.061730	569.885413	8.828605	-15.201548	0.103639	2.667474	1.549189
0.890	5.842809	-2.291865	570.088884	8.480964	-15.078147	0.082685	2.644877	1.487656
0.900	5.817921	-2.453135	570.246965	8.117090	-14.942027	0.055651	2.620273	1.423434
0.910	5.793200	-2.556113	570.340368	7.726953	-14.791004	0.024823	2.593364	1.354797
0.920	5.770477	-2.622368	570.361238	7.301806	-14.624261	-0.006059	2.564035	1.280207
0.930	5.741906	-2.682075	570.320462	6.837392	-14.443668	-0.032145	2.532553	1.198869
0.940	5.693822	-2.769530	570.251827	6.336414	-14.254222	-0.048283	2.499636	1.111161
0.950	5.614520	-2.916681	570.209344	5.809270	-14.063294	-0.050147	2.466339	1.018796
0.960	5.501915	-3.145697	570.255363	5.272600	-13.878938	-0.035367	2.433811	0.924603
0.970	5.366786	-3.462552	570.441268	4.745954	-13.707913	-0.004277	2.403037	0.831979
0.980	5.229548	-3.854090	570.787242	4.247645	-13.554027	0.039997	2.374620	0.744173
0.990	5.111938	-4.290309	571.269798	3.791235	-13.417308	0.092159	2.348681	0.663651
1.000	5.027895	-4.731625	571.823662	3.383818	-13.294252	0.145865	2.324887	0.591759
1.010	4.978462	-5.138546	572.358653	3.026463	-13.179233	0.194967	2.302618	0.528770
1.020	4.953368	-5.480190	572.785323	2.716285	-13.066695	0.234487	2.281255	0.474224
1.030	4.938257	-5.739029	573.039437	2.448957	-12.953402	0.261106	2.260473	0.427363
1.040	4.923517	-5.911251	573.096617	2.220496	-12.839858	0.273181	2.240435	0.387456
1.050	4.910047	-6.003768	572.973409	2.027646	-12.730326	0.270558	2.221800	0.353881
1.060	4.909429	-6.029633	572.716248	1.867038	-12.631376	0.254397	2.205521	0.325997
1.070	4.939054	-6.003724	572.383092	1.733905	-12.549457	0.227104	2.192493	0.302927
1.080	5.014817	-5.940132	572.023760	1.621231	-12.488225	0.192260	2.183165	0.283420
1.090	5.144169	-5.851823	571.664949	1.519745	-12.446483	0.154375	2.177234	0.265845
1.100	5.321678	-5.751873	571.304782	1.418698	-12.417466	0.118346	2.173527	0.248326
1.110	5.528600	-5.654834	570.918506	1.307195	-12.389796	0.088678	2.170151	0.228964
1.120	5.736900	-5.576909	570.471814	1.175884	-12.349769	0.068745	2.164834	0.206125
1.130	5.916451	-5.534468	569.934542	1.018736	-12.284110	0.060354	2.155354	0.178746
1.140	6.042477	-5.541367	569.288951	0.834515	-12.182273	0.063706	2.139910	0.146589
1.150	6.100078	-5.606006	568.532553	0.627418	-12.037694	0.077598	2.117327	0.110357
1.160	6.084314	-5.729243	567.679808	0.406504	-11.847809	0.099689	2.087058	0.071608
1.170	5.996847	-5.903982	566.766055	0.183983	-11.613121	0.126761	2.049015	0.032462
1.180	5.841616	-6.116673	565.852226	-0.027189	-11.335912	0.155105	2.003334	-0.004805
1.190	5.621680	-6.350193	565.025036	-0.215642	-11.019262	0.181165	1.950225	-0.038165
1.200	5.337971	-6.587161	564.388219	-0.373169	-10.666807	0.202394	1.889977	-0.066119
1.210	4.989813	-6.812617	564.045567	-0.495200	-10.283243	0.218008	1.823123	-0.087794
1.220	4.576788	-7.015328	564.081891	-0.580276	-9.875173	0.229175	1.750663	-0.102871
1.230	4.101642	-7.187486	564.548731	-0.628839	-9.451690	0.238429	1.674203	-0.111388
1.240	3.573803	-7.323240	565.457358	-0.641850	-9.024216	0.248492	1.595915	-0.113510
1.250	3.012725	-7.416995	566.777180	-0.619732	-8.605463	0.261015	1.518315	-0.109343
1.260	2.449612	-7.462622	568.437797	-0.561914	-8.207800	0.275792	1.443922	-0.098852
1.270	1.925771	-7.454541	570.336108	-0.466822	-7.841601	0.290753	1.374909	-0.081850
1.280	1.486674	-7.390697	572.350045	-0.331925	-7.514085	0.302674	1.312848	-0.057993
1.290	1.172824	-7.275960	574.356005	-0.153648	-7.228978	0.308238	1.258623	-0.026751
1.300	1.010344	-7.123456	576.242879	0.072516	-6.986918	0.304972	1.212495	0.012584
1.310	1.004531	-6.951793	577.916654	0.351168	-6.786249	0.291698	1.174261	0.060764
1.320	1.138357	-6.778335	579.295349	0.685301	-6.623721	0.268442	1.143410	0.118299
1.330	1.376164	-6.611282	580.300090	1.074240	-6.494866	0.236115	1.119225	0.185118
1.340	1.671548	-6.444734	580.850258	1.512124	-6.394140	0.196290	1.100824	0.260329
1.350	1.977519	-6.259708	580.868150	1.987771	-6.315072	0.151188	1.087178	0.342207
1.360	2.256363	-6.031008	580.293343	2.486202	-6.250599	0.103603	1.077145	0.428439
1.370	2.486460	-5.736793	579.102000	2.991539	-6.193613	0.056580	1.069520	0.516582
1.380	2.664048	-5.366779	577.323752	3.490392	-6.137642	0.012855	1.063120	0.604581
1.390	2.799724	-4.926147	575.049853	3.974608	-6.077515	-0.025579	1.056868	0.691176
1.400	2.911461	-4.434335	572.430097	4.442378	-6.009815	-0.057500	1.049878	0.776056
1.410	3.016951	-3.919809	569.659447	4.897271	-5.932881	-0.082037	1.041479	0.859684
1.420	3.127714	-3.413018	566.956363	5.345584	-5.846160	-0.098107	1.031148	0.942856
1.430	3.246126	-2.939667	564.535198	5.793201	-5.748992	-0.104093	1.018358	1.026189
1.440	3.365181	-2.515633	562.576679	6.243392	-5.639271	-0.098091	1.002400	1.109785
1.450	3.469999	-2.144131	561.202676	6.696422	-5.512642	-0.078749	0.982291	1.193227
1.460	3.540106	-1.815684	560.462310	7.150642	-5.362767	-0.046322	0.956847	1.275847
1.470	3.552298	-1.511709	560.334210	7.603802	-5.182738	-0.003298	0.924937	1.357012
1.480	3.484652	-1.211732	560.744718	8.053403	-4.967226	0.045855	0.885827	1.436198
1.490	3.322026	-0.902181	561.596172	8.495919	-4.714678	0.095806	0.839514	1.512816
1.500	3.062127	-0.583074	562.795521	8.925738	-4.428840	0.141796	0.786936	1.585965
1.510	2.719667	-0.269154	564.272720	9.334984	-4.119075	0.180767	0.729979	1.654339
1.520	2.325941	0.015653	565.981388	9.714741	-3.799216	0.211735	0.671262	1.716442
1.530	1.922611	0.248398	567.881667	10.057197	-3.485070	0.235407	0.613697	1.771002
1.540	1.551098	0.417288	569.914893	10.357573	-3.191180	0.253303	0.559940	1.817389
1.550	1.241158	0.526859	571.985765	10.614788	-2.927912	0.266849	0.511886	1.855778
1.560	1.003206	0.595364	573.964563	10.830622	-2.699906	0.276834	0.470396	1.886984
1.570	0.828071	0.645509	575.710152	11.008060	-2.506383	0.283344	0.435355	1.912084
1.580	0.695062	0.693148	577.101998	11.149976	-2.343082	0.286046	0.406008	1.932063
1.590	0.585363	0.739770	578.064851	11.259052	-2.204931	0.284574	0.381433	1.947714
1.600	0.494490	0.772765	578.575736	11.339016	-2.088369	0.278833	0.360950	1.959815
1.610	0.437139	0.773317	578.653870	11.396337	-1.992449	0.269104	0.344325	1.969457
1.620	0.441171	0.727637	578.342070	11.441006	-1.918405	0.255921	0.331708	1.978242
1.630	0.533237	0.635564	577.689406	11.485450	-1.867964	0.239868	0.323351	1.988170
1.640	0.723172	0.512160	576.741505	11.541785	-1.841262	0.221466	0.319253	2.001206
1.650	0.995088	0.381899	575.540534	11.618723	-1.835400	0.201293	0.318900	2.018750
1.660	1.309670	0.268830	574.132853	11.719685	-1.844356	0.180198	0.321242	2.041284
1.670	1.616494	0.187817	572.579188	11.843007	-1.860300	0.159391	0.324898	2.068361
1.680	1.870301	0.141058	570.961073	11.984068	-1.875642	0.140246	0.328506	2.098929
1.690	2.043892	0.121484	569.378743	12.138318	-1.884857	0.123908	0.331037	2.131853
1.700	2.132867	0.121283	567.939077	12.303976	-1.885204	0.110896	0.331938	2.166425
1.710	2.151636	0.141097	566.736384	12.483458	-1.875972	0.100927	0.331013	2.202692
1.720	2.123441	0.194828	565.832425	12.683188	-1.856611	0.093044	0.328120	2.241510
1.730	2.068669	0.307013	565.243519	12.911995	-1.824719	0.085978	0.322820	2.284324
1.740	1.995825	0.503495	564.940612	13.178656	-1.774842	0.078610	0.314164	2.332751
1.750	1.898316	0.799586	564.862729	13.489340	-1.698558	0.070374	0.300703	2.388074
1.760	1.758002	1.191204	564.938119	13.845577	-1.585805	0.061473	0.280704	2.450813
1.770	1.553706	1.653000	565.104620	14.243096	-1.427107	0.052803	0.252539	2.520435
1.780	1.271153	2.144099	565.323168	14.671632	-1.216286	0.045625	0.215149	2.595265
1.790	0.910721	2.618727	565.583491	15.115549	-0.953129	0.041121	0.168521	2.672558
1.800	0.490928	3.037285	565.903916	15.555056	-0.645323	0.040096	0.114034	2.748710
1.810	0.047158	3.373888	566.326127	15.967820	-0.308852	0.042964	0.054536	2.819545
1.820	-0.373996	3.618489	566.903720	16.330911	0.033638	0.049966	-0.005934	2.880720
1.830	-0.723914	3.774024	567.684680	16.623039	0.356458	0.061387	-0.062791	2.928217
1.840	-0.962783	3.850751	568.691855	16.826810	0.635717	0.077544	-0.111786	2.958862
1.850	-1.069049	3.860446	569.908149	16.930558	0.854007	0.098543	-0.149850	2.970752
1.860	-1.044212	3.812265	571.272202	16.929334	1.003287	0.123991	-0.175623	2.963444
1.870	-0.911035	3.710773	572.686904	16.824888	1.084755	0.152833	-0.189415	2.937886
1.880	-0.705606	3.555890	574.039293	16.624818	1.105698	0.183371	-0.192617	2.896111
1.890	-0.465959	3.344775	575.226781	16.341265	1.074621	0.213383	-0.186817	2.840839
1.900	-0.220912	3.075943	576.181350	15.989437	0.996793	0.240347	-0.173000	2.775070
1.910	0.017460	2.755142	576.881829	15.586104	0.872148	0.261776	-0.151183	2.701784
1.920	0.255342	2.400646	577.347323	15.148110	0.696411	0.275697	-0.120623	2.623743
1.930	0.511708	2.044428	577.612705	14.690930	0.464833	0.281112	-0.080475	2.543388
1.940	0.806969	1.726624	577.696684	14.227395	0.176801	0.278183	-0.030605	2.462779
1.950	1.149338	1.483977	577.578292	13.766704	-0.160697	0.268018	0.027822	2.383522
1.960	1.524738	1.336501	577.194673	13.313815	-0.532203	0.252158	0.092205	2.306642
1.970	1.896027	1.278305	576.462746	12.869335	-0.915944	0.232048	0.158890	2.232466
1.980	2.213699	1.277057	575.315554	12.429953	-1.288306	0.208733	0.223930	2.160545
1.990	2.434375	1.282704	573.737300	11.989382	-1.629108	0.182870	0.283947	2.089699
2.000	2.538883	1.241868	571.782382	11.539650	-1.925882	0.154969	0.336821	2.018189
2.010	2.541607	1.112187	569.571570	11.072504	-2.175701	0.125756	0.381989	1.944006
2.020	2.486954	0.871514	567.267965	10.580687	-2.383896	0.096479	0.420242	1.865201
2.030	2.434402	0.519776	565.041913	10.058926	-2.559972	0.069016	0.453059	1.780209
2.040	2.437809	0.074442	563.035797	9.504556	-2.712071	0.045707	0.481687	1.688091
2.050	2.525881	-0.437339	561.338453	8.917900	-2.841936	0.028947	0.506278	1.588685
2.060	2.689748	-0.986299	559.976912	8.302507	-2.942302	0.020653	0.525433	1.482652
2.070	2.881595	-1.545730	558.930128	7.665277	-2.997864	0.021826	0.536358	1.371420
2.080	3.025830	-2.092771	558.163604	7.016454	-2.989767	0.032360	0.535643	1.257060
2.090	3.041062	-2.608017	557.675236	6.369374	-2.902433	0.051141	0.520452	1.142130
2.100	2.867441	-3.075842	557.534491	5.739722	-2.730616	0.076313	0.489766	1.029483
2.110	2.490864	-3.486473	557.894438	5.143858	-2.484352	0.105561	0.445309	0.922013
2.120	1.954997	-3.838751	558.963080	4.596001	-2.189850	0.136448	0.391770	0.822237
2.130	1.355058	-4.141575	560.935787	4.104657	-1.885533	0.166902	0.336141	0.731752
2.140	0.813247	-4.412814	563.908759	3.669492	-1.613993	0.195768	0.286215	0.650724
2.150	0.442504	-4.675813	567.805949	3.280319	-1.412208	0.223142	0.248713	0.577718
2.160	0.310753	-4.954330	572.351303	2.919452	-1.303159	0.250197	0.227685	0.510081
2.170	0.419176	-5.266666	577.102168	2.567161	-1.291577	0.278424	0.223804	0.444837
2.180	0.703762	-5.619821	581.534482	2.208200	-1.365023	0.308532	0.234728	0.379720
2.190	1.059912	-6.005294	585.149238	1.836559	-1.499559	0.339470	0.256270	0.313862
2.200	1.379948	-6.398762	587.564354	1.456411	-1.667667	0.368109	0.283827	0.247873
2.210	1.588158	-6.765198	588.567854	1.079229	-1.845548	0.389867	0.313566	0.183365
2.220	1.660141	-7.068529	588.127688	0.718975	-2.017610	0.400084	0.343056	0.122248
2.230	1.620963	-7.282181	586.368555	0.387722	-2.177371	0.395602	0.371331	0.066123
2.240	1.525942	-7.396010	583.531383	0.093281	-2.325417	0.375965	0.398508	0.015986
2.250	1.434559	-7.417035	579.928586	-0.160980	-2.465851	0.343851	0.425199	-0.027759
2.260	1.389306	-7.364814	575.902731	-0.375009	-2.602806	0.304545	0.451952	-0.065117
2.270	1.407077	-7.264465	571.791328	-0.550790	-2.738181	0.264551	0.478878	-0.096327
2.280	1.483416	-7.140337	567.898292	-0.691705	-2.870983	0.229704	0.505545	-0.121801
2.290	1.603655	-7.011882	564.472877	-0.802566	-2.997938	0.203489	0.531104	-0.142180
2.300	1.752926	-6.892067	561.697442	-0.889662	-3.114648	0.186228	0.554506	-0.158388
2.310	1.919593	-6.787925	559.684688	-0.960110	-3.216609	0.175428	0.574718	-0.171545
2.320	2.091886	-6.702339	558.482691	-1.020239	-3.299740	0.167054	0.590840	-0.182680
2.330	2.251939	-6.635878	558.084041	-1.073518	-3.360404	0.157149	0.602132	-0.192358
2.340	2.372854	-6.587631	558.435324	-1.118949	-3.395207	0.143251	0.607986	-0.200372
2.350	2.422066	-6.554767	559.445699	-1.150709	-3.400933	0.125284	0.607911	-0.205687
2.360	2.370029	-6.531361	560.996103	-1.159196	-3.374863	0.105707	0.601584	-0.206632
2.370	2.199725	-6.507510	562.951188	-1.132937	-3.315544	0.088826	0.588958	-0.201250
2.380	1.912208	-6.469425	565.173916	-1.060547	-3.223916	0.079352	0.570429	-0.187650
2.390	1.526141	-6.400563	567.540219	-0.932139	-3.104515	0.080569	0.547012	-0.164242
2.400	1.072988	-6.283454	569.950554	-0.740135	-2.966424	0.092806	0.520470	-0.129860
