Time[s]	Fx[N]	Fy[N]	Fz[N]	Mx[Nm]	My[Nm]	Mz[Nm]	COPx[cm]	COPy[cm]
0.010	1.405471	-0.774879	717.664817	-0.120590	-5.357641	-0.419593	0.746538	-0.016803
0.020	1.275890	-0.768569	717.666284	-0.144085	-5.300186	-0.416014	0.738531	-0.020077
0.030	1.181273	-0.767305	717.665290	-0.167092	-5.261866	-0.416247	0.733192	-0.023283
0.040	1.148307	-0.772573	717.658970	-0.188661	-5.256595	-0.422743	0.732464	-0.026288
0.050	1.189858	-0.780841	717.643241	-0.207004	-5.289823	-0.435866	0.737110	-0.028845
0.060	1.301448	-0.784108	717.619175	-0.219869	-5.357997	-0.453909	0.746635	-0.030639
0.070	1.461796	-0.772668	717.600577	-0.225438	-5.450604	-0.473764	0.759560	-0.031415
0.080	1.638328	-0.739027	717.616344	-0.223339	-5.553759	-0.491885	0.773918	-0.031122
0.090	1.796772	-0.681281	717.702335	-0.215233	-5.654102	-0.505201	0.787806	-0.029989
0.100	1.911728	-0.604423	717.883459	-0.204599	-5.741879	-0.511773	0.799834	-0.028500
0.110	1.974006	-0.519019	718.154749	-0.195755	-5.812448	-0.511103	0.809359	-0.027258
0.120	1.991504	-0.437961	718.473443	-0.192455	-5.865956	-0.504109	0.816447	-0.026787
0.130	1.983190	-0.372757	718.768578	-0.196688	-5.905666	-0.492789	0.821637	-0.027365
0.140	1.969087	-0.330733	718.964353	-0.208256	-5.935866	-0.479656	0.825613	-0.028966
0.150	1.961267	-0.313776	719.006652	-0.225440	-5.960296	-0.467052	0.828963	-0.031354
0.160	1.960323	-0.318550	718.881934	-0.246423	-5.981558	-0.456525	0.832064	-0.034279
0.170	1.958591	-0.337894	718.622023	-0.270651	-6.001476	-0.448457	0.835137	-0.037663
0.180	1.947566	-0.363134	718.294144	-0.299306	-6.021996	-0.442110	0.838375	-0.041669
0.190	1.924984	-0.386930	717.980749	-0.334591	-6.046018	-0.436117	0.842086	-0.046602
0.200	1.897850	-0.405834	717.756422	-0.378257	-6.077638	-0.429221	0.846755	-0.052700
0.210	1.880334	-0.421503	717.668818	-0.430182	-6.121564	-0.420971	0.852979	-0.059942
0.220	1.888065	-0.439857	717.728293	-0.487818	-6.181966	-0.412041	0.861324	-0.067967
0.230	1.931728	-0.468432	717.908185	-0.546850	-6.261427	-0.404007	0.872177	-0.076173
0.240	2.012719	-0.513153	718.154700	-0.602801	-6.360563	-0.398636	0.885682	-0.083937
0.250	2.122435	-0.575925	718.402322	-0.652785	-6.478416	-0.397018	0.901781	-0.090866
0.260	2.245424	-0.653786	718.589452	-0.696564	-6.613179	-0.398934	0.920300	-0.096935
0.270	2.365368	-0.739503	718.670446	-0.736434	-6.762788	-0.402708	0.941014	-0.102472
0.280	2.471848	-0.823323	718.622738	-0.776057	-6.925263	-0.405618	0.963685	-0.107992
0.290	2.565280	-0.895677	718.449489	-0.818830	-7.099010	-0.404707	0.988101	-0.113972
0.300	2.657719	-0.950436	718.178694	-0.866467	-7.283214	-0.397723	1.014123	-0.120648
0.310	2.768561	-0.987608	717.859127	-0.918268	-7.478145	-0.383843	1.041729	-0.127918
0.320	2.916442	-1.013918	717.552259	-0.971194	-7.685077	-0.363900	1.071013	-0.135348
0.330	3.110768	-1.040346	717.319172	-1.020592	-7.905679	-0.340050	1.102114	-0.142279
0.340	3.346910	-1.077292	717.204267	-1.061331	-8.141042	-0.315059	1.135108	-0.147982
0.350	3.607270	-1.129567	717.221432	-1.088999	-8.390748	-0.291488	1.169896	-0.151836
0.360	3.867428	-1.193687	717.349493	-1.100826	-8.652372	-0.271101	1.206158	-0.153457
0.370	4.104185	-1.258761	717.540423	-1.096075	-8.921681	-0.254663	1.243370	-0.152754
0.380	4.301930	-1.310376	717.737553	-1.075794	-9.193441	-0.242162	1.280892	-0.149887
0.390	4.455258	-1.335638	717.895736	-1.042101	-9.462476	-0.233255	1.318085	-0.145161
0.400	4.568159	-1.327235	717.994252	-0.997378	-9.724602	-0.227687	1.354412	-0.138912
0.410	4.651488	-1.285148	718.037306	-0.943802	-9.977142	-0.225466	1.389502	-0.131442
0.420	4.720160	-1.215673	718.043617	-0.883322	-10.218932	-0.226805	1.423163	-0.123018
0.430	4.790278	-1.128513	718.031927	-0.817887	-10.449811	-0.231919	1.455341	-0.113907
0.440	4.875880	-1.033383	718.010330	-0.749632	-10.669768	-0.240825	1.486019	-0.104404
0.450	4.985491	-0.937567	717.973950	-0.680932	-10.878033	-0.253222	1.515101	-0.094841
0.460	5.119361	-0.845084	717.910242	-0.614369	-11.072481	-0.268490	1.542321	-0.085577
0.470	5.268366	-0.757294	717.807818	-0.552635	-11.249562	-0.285740	1.567211	-0.076989
0.480	5.415296	-0.674327	717.664649	-0.498286	-11.404755	-0.303883	1.589148	-0.069432
0.490	5.538799	-0.596683	717.493224	-0.453332	-11.533339	-0.321735	1.607449	-0.063183
0.500	5.619417	-0.526442	717.321801	-0.418747	-11.631274	-0.338198	1.621486	-0.058376
0.510	5.646013	-0.467702	717.191250	-0.394129	-11.695954	-0.352532	1.630800	-0.054955
0.520	5.620131	-0.426027	717.146856	-0.377803	-11.726752	-0.364581	1.635195	-0.052681
0.530	5.556218	-0.406855	717.225268	-0.367532	-11.725333	-0.374790	1.634819	-0.051244
0.540	5.477203	-0.413331	717.439248	-0.361693	-11.695696	-0.383916	1.630200	-0.050414
0.550	5.406888	-0.444492	717.765768	-0.360394	-11.643798	-0.392605	1.622228	-0.050211
0.560	5.361841	-0.494769	718.143854	-0.365899	-11.576561	-0.401102	1.612011	-0.050951
0.570	5.345611	-0.555065	718.485922	-0.382003	-11.500347	-0.409266	1.600636	-0.053168
0.580	5.347090	-0.614896	718.700686	-0.412605	-11.419312	-0.416851	1.588883	-0.057410
0.590	5.343500	-0.664792	718.720343	-0.460129	-11.334348	-0.423841	1.577018	-0.064021
0.600	5.307203	-0.698224	718.523056	-0.524571	-11.243233	-0.430648	1.564770	-0.073007
0.610	5.214631	-0.712760	718.143778	-0.603494	-11.142082	-0.438057	1.551511	-0.084035
0.620	5.054875	-0.710460	717.669899	-0.692793	-11.027609	-0.447003	1.536585	-0.096534
0.630	4.835126	-0.697623	717.221353	-0.787661	-10.899288	-0.458277	1.519655	-0.109821
0.640	4.580725	-0.683845	716.918686	-0.883293	-10.760608	-0.472284	1.500952	-0.123207
0.650	4.329303	-0.680381	716.847296	-0.975260	-10.619025	-0.488886	1.481351	-0.136049
0.660	4.120646	-0.697790	717.029793	-1.059702	-10.484690	-0.507362	1.462239	-0.147791
0.670	3.985541	-0.743097	717.417277	-1.133508	-10.368318	-0.526514	1.445228	-0.157998
0.680	3.937191	-0.816979	717.903236	-1.194450	-10.278771	-0.544905	1.431777	-0.166380
0.690	3.967951	-0.911876	718.354826	-1.241162	-10.220961	-0.561126	1.422829	-0.172778
0.700	4.052435	-1.012007	718.651026	-1.272987	-10.194680	-0.574017	1.418586	-0.177136
0.710	4.155959	-1.096040	718.716773	-1.289811	-10.194828	-0.582747	1.418476	-0.179460
0.720	4.245236	-1.142340	718.543980	-1.291970	-10.213110	-0.586799	1.421362	-0.179804
0.730	4.297567	-1.135499	718.192949	-1.280195	-10.240659	-0.585925	1.425892	-0.178252
0.740	4.305685	-1.071899	717.772679	-1.255509	-10.270591	-0.580155	1.430897	-0.174917
0.750	4.277377	-0.961986	717.405730	-1.219120	-10.299518	-0.569879	1.435662	-0.169935
0.760	4.230734	-0.827985	717.189575	-1.172382	-10.327625	-0.555943	1.440013	-0.163469
0.770	4.186901	-0.697339	717.168316	-1.116887	-10.357507	-0.539634	1.444223	-0.155736
0.780	4.162707	-0.593874	717.324681	-1.054630	-10.392412	-0.522476	1.448774	-0.147023
0.790	4.165521	-0.529915	717.593639	-0.988163	-10.434609	-0.505905	1.454111	-0.137705
0.800	4.191887	-0.502667	717.889853	-0.920686	-10.484471	-0.490966	1.460457	-0.128249
0.810	4.230048	-0.496676	718.136457	-0.855988	-10.540483	-0.478147	1.467755	-0.119196
0.820	4.264971	-0.491456	718.284398	-0.798194	-10.599943	-0.467355	1.475731	-0.111125
0.830	4.283971	-0.470940	718.317642	-0.751280	-10.659954	-0.457969	1.484017	-0.104589
0.840	4.281263	-0.430600	718.246620	-0.718398	-10.718312	-0.448960	1.492289	-0.100021
0.850	4.260369	-0.379154	718.096913	-0.701171	-10.774144	-0.439134	1.500375	-0.097643
0.860	4.233857	-0.334334	717.900228	-0.699192	-10.828191	-0.427465	1.508314	-0.097394
0.870	4.220479	-0.314955	717.690407	-0.710016	-10.882658	-0.413434	1.516344	-0.098931
0.880	4.240437	-0.333142	717.501876	-0.729824	-10.940604	-0.397241	1.524819	-0.101717
0.890	4.309891	-0.390036	717.365765	-0.754587	-11.005132	-0.379844	1.534103	-0.105189
0.900	4.436174	-0.476046	717.301782	-0.781312	-11.078756	-0.362770	1.544504	-0.108924
0.910	4.615149	-0.574444	717.309577	-0.808796	-11.163063	-0.347723	1.556241	-0.112754
0.920	4.831613	-0.666103	717.366698	-0.837472	-11.258387	-0.336085	1.569405	-0.116743
0.930	5.062525	-0.733599	717.437700	-0.868331	-11.363234	-0.328544	1.583864	-0.121032
0.940	5.281889	-0.764074	717.491806	-0.901438	-11.473669	-0.324942	1.599136	-0.125637
0.950	5.465715	-0.751263	717.519965	-0.934918	-11.583191	-0.324350	1.614337	-0.130299
0.960	5.595784	-0.697265	717.541454	-0.965055	-11.683504	-0.325282	1.628269	-0.134495
0.970	5.661619	-0.613822	717.595674	-0.987578	-11.766019	-0.326022	1.639645	-0.137623
0.980	5.660795	-0.521890	717.722681	-0.999452	-11.823495	-0.325062	1.647363	-0.139253
0.990	5.598018	-0.448247	717.941324	-1.000275	-11.851255	-0.321575	1.650728	-0.139326
1.000	5.483404	-0.419199	718.234840	-0.992610	-11.847704	-0.315778	1.649558	-0.138201
1.010	5.330281	-0.453106	718.550727	-0.981169	-11.814220	-0.309018	1.644173	-0.136548
1.020	5.152883	-0.554368	718.815721	-0.971301	-11.754642	-0.303455	1.635279	-0.135125
1.030	4.964420	-0.711086	718.959674	-0.967454	-11.674602	-0.301436	1.623819	-0.134563
1.040	4.776068	-0.897377	718.937696	-0.972225	-11.580923	-0.304747	1.610838	-0.135231
1.050	4.597076	-1.079656	718.741382	-0.986202	-11.481201	-0.314025	1.597404	-0.137212
1.060	4.435585	-1.225044	718.396645	-1.008426	-11.383532	-0.328506	1.584575	-0.140372
1.070	4.299144	-1.309498	717.952618	-1.037083	-11.296195	-0.346140	1.573390	-0.144450
1.080	4.194100	-1.323386	717.468841	-1.070082	-11.227022	-0.363990	1.564810	-0.149147
1.090	4.123957	-1.272916	717.006028	-1.105390	-11.182433	-0.378786	1.559601	-0.154167
1.100	4.087755	-1.177153	716.621691	-1.141177	-11.166367	-0.387592	1.558196	-0.159244
1.110	4.079606	-1.061854	716.368096	-1.175963	-11.179581	-0.388480	1.560592	-0.164156
1.120	4.089914	-0.952232	716.288343	-1.208861	-11.219706	-0.381057	1.566367	-0.168767
1.130	4.108155	-0.866818	716.407588	-1.239811	-11.282141	-0.366685	1.574822	-0.173059
1.140	4.126496	-0.813907	716.720914	-1.269579	-11.361462	-0.348261	1.585200	-0.177137
1.150	4.142893	-0.791128	717.184186	-1.299375	-11.452802	-0.329594	1.596912	-0.181177
1.160	4.162034	-0.787629	717.715393	-1.330169	-11.552689	-0.314538	1.609648	-0.185334
1.170	4.193310	-0.787948	718.209846	-1.361962	-11.659114	-0.306086	1.623358	-0.189633
1.180	4.246579	-0.776639	718.565720	-1.393422	-11.770947	-0.305667	1.638117	-0.193917
1.190	4.327722	-0.742798	718.710954	-1.422163	-11.887022	-0.312857	1.653936	-0.197877
1.200	4.435914	-0.683431	718.621715	-1.445696	-12.005320	-0.325667	1.670604	-0.201176
1.210	4.563636	-0.604616	718.326489	-1.462623	-12.122635	-0.341327	1.687622	-0.203615
1.220	4.699215	-0.519842	717.895572	-1.473343	-12.234882	-0.357208	1.704270	-0.205231
1.230	4.830699	-0.445781	717.420381	-1.479824	-12.337915	-0.371484	1.719761	-0.206270
1.240	4.949352	-0.396613	716.989144	-1.484573	-12.428446	-0.383336	1.733422	-0.207057
1.250	5.051132	-0.378810	716.665721	-1.489550	-12.504675	-0.392804	1.744841	-0.207844
1.260	5.135560	-0.388597	716.477016	-1.495699	-12.566347	-0.400541	1.753908	-0.208757
1.270	5.203054	-0.413437	716.412077	-1.503288	-12.614213	-0.407591	1.760748	-0.209836
1.280	5.252857	-0.437112	716.432503	-1.512619	-12.649116	-0.415190	1.765570	-0.211132
1.290	5.283156	-0.446106	716.490265	-1.524550	-12.671207	-0.424504	1.768511	-0.212780
1.300	5.293262	-0.434472	716.547071	-1.540396	-12.679733	-0.436334	1.769560	-0.214975
1.310	5.286247	-0.405292	716.589014	-1.561258	-12.673550	-0.450839	1.768594	-0.217873
1.320	5.270105	-0.368617	716.631081	-1.587233	-12.651976	-0.467344	1.765480	-0.221485
1.330	5.256282	-0.337358	716.708983	-1.617133	-12.615361	-0.484343	1.760179	-0.225633
1.340	5.255759	-0.323091	716.861198	-1.649019	-12.564921	-0.499780	1.752769	-0.230033
1.350	5.274125	-0.333057	717.109613	-1.681243	-12.501951	-0.511579	1.743381	-0.234447
1.360	5.307752	-0.368638	717.448358	-1.713248	-12.426974	-0.518272	1.732107	-0.238797
1.370	5.342928	-0.425209	717.845628	-1.745631	-12.339470	-0.519491	1.718959	-0.243176
1.380	5.358804	-0.493516	718.255806	-1.779536	-12.238451	-0.516133	1.703913	-0.247758
1.390	5.333644	-0.562661	718.633964	-1.815846	-12.123615	-0.510119	1.687036	-0.252680
1.400	5.252401	-0.623878	718.945005	-1.854613	-11.996485	-0.503781	1.668624	-0.257963
1.410	5.112703	-0.673484	719.164687	-1.894787	-11.860979	-0.499066	1.649272	-0.263471
1.420	4.926763	-0.713686	719.276007	-1.934099	-11.723114	-0.496831	1.629849	-0.268895
1.430	4.718530	-0.751162	719.267067	-1.968984	-11.589982	-0.496522	1.611360	-0.273749
1.440	4.517411	-0.794361	719.133813	-1.994809	-11.468362	-0.496430	1.594747	-0.277391
1.450	4.350843	-0.850503	718.885727	-2.006678	-11.363485	-0.494475	1.580708	-0.279137
1.460	4.237881	-0.922906	718.549387	-2.000768	-11.278266	-0.489210	1.569588	-0.278445
1.470	4.185360	-1.009134	718.166177	-1.975608	-11.213092	-0.480576	1.561351	-0.275091
1.480	4.187447	-1.100599	717.784684	-1.932594	-11.165976	-0.470001	1.555616	-0.269244
1.490	4.228408	-1.184239	717.451674	-1.875436	-11.132882	-0.459787	1.551726	-0.261402
1.500	4.287403	-1.246151	717.205504	-1.808887	-11.108226	-0.452124	1.548820	-0.252213
1.510	4.343675	-1.276002	717.072930	-1.737459	-11.085740	-0.448234	1.545971	-0.242299
1.520	4.380792	-1.270380	717.067671	-1.664736	-11.059811	-0.448010	1.542366	-0.232159
1.530	4.389249	-1.233561	717.188925	-1.593381	-11.027044	-0.450187	1.537537	-0.222170
1.540	4.367388	-1.175377	717.419842	-1.525586	-10.987467	-0.452839	1.531525	-0.212649
1.550	4.320900	-1.107302	717.727294	-1.463590	-10.944736	-0.453916	1.524916	-0.203920
1.560	4.261209	-1.038715	718.064059	-1.410055	-10.905039	-0.451666	1.518672	-0.196369
1.570	4.202951	-0.974861	718.373764	-1.368163	-10.874943	-0.444915	1.513828	-0.190453
1.580	4.160657	-0.916747	718.598719	-1.341356	-10.858953	-0.433239	1.511129	-0.186663
1.590	4.144773	-0.862239	718.690926	-1.332737	-10.857676	-0.417033	1.510757	-0.185439
1.600	4.157709	-0.807643	718.625455	-1.344385	-10.867288	-0.397412	1.512233	-0.187077
1.610	4.191539	-0.749535	718.412342	-1.376961	-10.880558	-0.375923	1.514528	-0.191667
1.620	4.229232	-0.686578	718.100247	-1.429761	-10.889118	-0.354115	1.516379	-0.199103
1.630	4.250085	-0.620736	717.766247	-1.500926	-10.886112	-0.333176	1.516665	-0.209111
1.640	4.237714	-0.557229	717.492759	-1.587394	-10.868209	-0.313792	1.514748	-0.221242
1.650	4.187108	-0.502999	717.340727	-1.684585	-10.836293	-0.296279	1.510620	-0.234837
1.660	4.107376	-0.464195	717.331615	-1.786339	-10.794770	-0.280874	1.504851	-0.249026
1.670	4.018886	-0.443772	717.446205	-1.885653	-10.749926	-0.267985	1.498360	-0.262829
1.680	3.946258	-0.440404	717.638898	-1.976238	-10.707963	-0.258212	1.492110	-0.275381
1.690	3.910301	-0.449348	717.858597	-2.054241	-10.673333	-0.252132	1.486830	-0.286162
1.700	3.921887	-0.464738	718.065634	-2.119239	-10.647802	-0.249991	1.482845	-0.295132
1.710	3.979624	-0.481947	718.238434	-2.173970	-10.630434	-0.251568	1.480070	-0.302681
1.720	4.071612	-0.498657	718.370101	-2.222989	-10.618439	-0.256334	1.478129	-0.309449
1.730	4.180251	-0.514273	718.459892	-2.270960	-10.608501	-0.263805	1.476561	-0.316087
1.740	4.288021	-0.528500	718.505638	-2.321297	-10.598079	-0.273829	1.475017	-0.323073
1.750	4.381775	-0.540503	718.501386	-2.375499	-10.586178	-0.286599	1.473369	-0.330619
1.760	4.454040	-0.549449	718.441474	-2.433155	-10.573279	-0.302373	1.471697	-0.338671
1.770	4.501579	-0.555962	718.328713	-2.492457	-10.560507	-0.321062	1.470150	-0.346980
1.780	4.522827	-0.563051	718.181013	-2.551008	-10.548487	-0.341925	1.468778	-0.355204
1.790	4.515913	-0.575473	718.029907	-2.606631	-10.536511	-0.363565	1.467420	-0.363025
1.800	4.478141	-0.597768	717.908844	-2.657848	-10.522457	-0.384241	1.465709	-0.370221
1.810	4.407010	-0.632215	717.837159	-2.703843	-10.503504	-0.402369	1.463215	-0.376665
1.820	4.302292	-0.677901	717.810653	-2.744104	-10.477204	-0.416973	1.459606	-0.382288
1.830	4.168183	-0.731275	717.806216	-2.778139	-10.442352	-0.427924	1.454759	-0.387032
1.840	4.014177	-0.787676	717.798168	-2.805510	-10.399297	-0.435875	1.448777	-0.390849
1.850	3.853597	-0.843051	717.775572	-2.826146	-10.349768	-0.441960	1.441923	-0.393737
1.860	3.700000	-0.895207	717.749340	-2.840683	-10.296495	-0.447409	1.434553	-0.395777
1.870	3.563255	-0.944210	717.745293	-2.850603	-10.242754	-0.453235	1.427074	-0.397161
1.880	3.447607	-0.991776	717.788223	-2.858001	-10.191843	-0.460065	1.419896	-0.398168
1.890	3.352835	-1.039758	717.886269	-2.865102	-10.146612	-0.468125	1.413401	-0.399103
1.900	3.277639	-1.088331	718.023461	-2.873849	-10.109292	-0.477338	1.407933	-0.400244
1.910	3.222883	-1.134806	718.163693	-2.885835	-10.081648	-0.487500	1.403809	-0.401835
1.920	3.192458	-1.173848	718.264424	-2.902542	-10.065121	-0.498470	1.401311	-0.404105
1.930	3.191182	-1.199100	718.294408	-2.925546	-10.060544	-0.510243	1.400616	-0.407291
1.940	3.221097	-1.205564	718.247295	-2.956362	-10.067436	-0.522767	1.401667	-0.411608
1.950	3.278495	-1.191825	718.143894	-2.995872	-10.083389	-0.535554	1.404090	-0.417169
1.960	3.353487	-1.161253	718.021451	-3.043693	-10.104143	-0.547364	1.407220	-0.423900
1.970	3.432530	-1.121526	717.915962	-3.097922	-10.124587	-0.556303	1.410275	-0.431516
1.980	3.502934	-1.082428	717.847429	-3.155545	-10.140396	-0.560413	1.412612	-0.439584
1.990	3.557520	-1.052822	717.815168	-3.213386	-10.149646	-0.558503	1.413964	-0.447662
2.000	3.597396	-1.038270	717.803916	-3.269165	-10.153617	-0.550759	1.414539	-0.455440
2.010	3.631466	-1.040384	717.796157	-3.322192	-10.156297	-0.538782	1.414928	-0.462832
2.020	3.672582	-1.057942	717.784218	-3.373357	-10.162673	-0.524995	1.415840	-0.469968
2.030	3.731798	-1.088772	717.776728	-3.424406	-10.176435	-0.511697	1.417772	-0.477085
2.040	3.812990	-1.131107	717.796567	-3.476814	-10.197999	-0.500212	1.420737	-0.484373
2.050	3.909962	-1.183518	717.870806	-3.530826	-10.223755	-0.490525	1.424178	-0.491847
2.060	4.007341	-1.243517	718.016481	-3.585209	-10.247102	-0.481528	1.427140	-0.499321
2.070	4.085329	-1.305939	718.228417	-3.637827	-10.261118	-0.471716	1.428671	-0.506500
2.080	4.126970	-1.362665	718.475069	-3.686639	-10.261770	-0.460015	1.428271	-0.513120
2.090	4.125301	-1.404569	718.705171	-3.730468	-10.250068	-0.446379	1.426185	-0.519054
2.100	4.087381	-1.425082	718.862879	-3.769162	-10.232034	-0.431927	1.423364	-0.524323
2.110	4.033053	-1.423424	718.905003	-3.803241	-10.216442	-0.418556	1.421112	-0.529032
2.120	3.988197	-1.405391	718.813453	-3.833321	-10.211313	-0.408241	1.420579	-0.533284
2.130	3.974670	-1.380988	718.599462	-3.859695	-10.220612	-0.402356	1.422296	-0.537114
2.140	4.001089	-1.360042	718.300430	-3.882233	-10.242371	-0.401292	1.425917	-0.540475
2.150	4.058743	-1.348036	717.971983	-3.900533	-10.268879	-0.404453	1.430262	-0.543271
2.160	4.124785	-1.344133	717.677006	-3.914107	-10.288890	-0.410499	1.433638	-0.545386
2.170	4.171226	-1.342182	717.472614	-3.922484	-10.291047	-0.417707	1.434347	-0.546709
2.180	4.175345	-1.334134	717.397083	-3.925326	-10.267241	-0.424370	1.431180	-0.547162
2.190	4.126745	-1.314298	717.460264	-3.922733	-10.214570	-0.429168	1.423712	-0.546753
2.200	4.028541	-1.282529	717.641019	-3.915727	-10.135258	-0.431403	1.412302	-0.545639
2.210	3.893463	-1.245076	717.892818	-3.906626	-10.034840	-0.430996	1.397819	-0.544180
2.220	3.737719	-1.212819	718.155522	-3.898915	-9.919636	-0.428246	1.381266	-0.542907
2.230	3.575559	-1.197604	718.369308	-3.896444	-9.794610	-0.423527	1.363451	-0.542401
2.240	3.416114	-1.208026	718.487029	-3.902246	-9.662373	-0.417115	1.344822	-0.543120
2.250	3.262525	-1.246253	718.482944	-3.917621	-9.523415	-0.409237	1.325489	-0.545263
2.260	3.112599	-1.307139	718.357404	-3.942001	-9.377135	-0.400253	1.305358	-0.548752
2.270	2.960423	-1.380007	718.137341	-3.973664	-9.222988	-0.390809	1.284293	-0.553329
2.280	2.798714	-1.452492	717.871881	-4.010819	-9.061245	-0.381798	1.262237	-0.558710
2.290	2.621606	-1.515048	717.622796	-4.052404	-8.893298	-0.374119	1.239272	-0.564698
2.300	2.427258	-1.564451	717.451307	-4.098145	-8.721792	-0.368389	1.215663	-0.571209
2.310	2.219511	-1.604982	717.404033	-4.147963	-8.550848	-0.364822	1.191915	-0.578191
2.320	2.007931	-1.646816	717.500833	-4.201221	-8.386385	-0.363342	1.168833	-0.585535
