Time[s]	Fx[N]	Fy[N]	Fz[N]	Mx[Nm]	My[Nm]	Mz[Nm]	COPx[cm]	COPy[cm]
0.010	2.105509	-1.624987	557.871667	0.369642	19.393353	-0.297481	-3.476311	0.066259
0.020	2.179552	-1.674333	557.942415	0.437376	19.338677	-0.299006	-3.466070	0.078391
0.030	2.253821	-1.715594	557.952928	0.501530	19.287338	-0.299601	-3.456804	0.089888
0.040	2.328284	-1.741072	557.860863	0.558133	19.241661	-0.298795	-3.449186	0.100049
0.050	2.402121	-1.744140	557.653806	0.603422	19.202365	-0.296815	-3.443420	0.108207
0.060	2.473389	-1.720507	557.348643	0.634647	19.168594	-0.294537	-3.439247	0.113869
0.070	2.538699	-1.669919	556.981631	0.651220	19.138666	-0.293220	-3.436139	0.116920
0.080	2.593201	-1.597626	556.595940	0.655571	19.111162	-0.294165	-3.433579	0.117782
0.090	2.631175	-1.514578	556.232982	0.653053	19.085840	-0.298392	-3.431267	0.117406
0.100	2.647148	-1.435445	555.929303	0.650690	19.063928	-0.306346	-3.429200	0.117045
0.110	2.637185	-1.374590	555.716117	0.655276	19.047746	-0.317699	-3.427604	0.117916
0.120	2.600023	-1.341332	555.617271	0.671644	19.039883	-0.331334	-3.426798	0.120883
0.130	2.537909	-1.336479	555.643886	0.701755	19.042242	-0.345616	-3.427059	0.126296
0.140	2.456873	-1.351777	555.788127	0.744728	19.055266	-0.358899	-3.428513	0.133995
0.150	2.366057	-1.372735	556.020888	0.797542	19.077543	-0.370040	-3.431084	0.143437
0.160	2.275939	-1.383856	556.296692	0.856033	19.105908	-0.378665	-3.434482	0.153881
0.170	2.195917	-1.374262	556.564855	0.915944	19.136060	-0.385057	-3.438244	0.164571
0.180	2.132274	-1.341522	556.782496	0.973931	19.163501	-0.389781	-3.441829	0.174921
0.190	2.087458	-1.292397	556.924522	1.028363	19.184556	-0.393287	-3.444732	0.184650
0.200	2.060835	-1.240502	556.987439	1.079627	19.197137	-0.395689	-3.446601	0.193833
0.210	2.050283	-1.201892	556.986144	1.129710	19.201118	-0.396793	-3.447324	0.202826
0.220	2.053605	-1.189927	556.945413	1.181073	19.198214	-0.396313	-3.447055	0.212063
0.230	2.069059	-1.210956	556.890218	1.235072	19.191444	-0.394117	-3.446181	0.221780
0.240	2.094934	-1.262459	556.839244	1.290498	19.184280	-0.390364	-3.445210	0.231754
0.250	2.128864	-1.334465	556.803100	1.342953	19.179750	-0.385444	-3.444620	0.241190
0.260	2.167714	-1.413431	556.785497	1.385555	19.179782	-0.379790	-3.444734	0.248849
0.270	2.208257	-1.486600	556.785109	1.410809	19.185030	-0.373686	-3.445680	0.253385
0.280	2.247998	-1.545119	556.797350	1.412898	19.195159	-0.367202	-3.447423	0.253754
0.290	2.285402	-1.585377	556.816167	1.389513	19.209338	-0.360281	-3.449853	0.249546
0.300	2.319427	-1.608714	556.835254	1.342524	19.226642	-0.352945	-3.452842	0.241099
0.310	2.348863	-1.619927	556.847690	1.277278	19.246207	-0.345487	-3.456279	0.229376
0.320	2.371969	-1.625090	556.844375	1.200951	19.267162	-0.338541	-3.460062	0.215671
0.330	2.386545	-1.629430	556.813448	1.120819	19.288538	-0.332986	-3.464093	0.201292
0.340	2.390269	-1.635981	556.742812	1.043188	19.309372	-0.329737	-3.468275	0.187373
0.350	2.380985	-1.645431	556.625382	0.973141	19.329054	-0.329499	-3.472543	0.174829
0.360	2.356806	-1.656949	556.464057	0.914621	19.347781	-0.332534	-3.476915	0.164363
0.370	2.316160	-1.669379	556.273269	0.870296	19.366792	-0.338468	-3.481525	0.156451
0.380	2.258053	-1.681977	556.076376	0.841072	19.388132	-0.346188	-3.486595	0.151251
0.390	2.182693	-1.694283	555.900590	0.825665	19.413922	-0.353941	-3.492337	0.148527
0.400	2.092321	-1.705323	555.771477	0.820663	19.445366	-0.359714	-3.498806	0.147662
0.410	1.991906	-1.712888	555.707569	0.821337	19.481963	-0.361794	-3.505794	0.147800
0.420	1.889183	-1.713568	555.714757	0.823047	19.521258	-0.359313	-3.512820	0.148106
0.430	1.793603	-1.703733	555.781659	0.822819	19.559224	-0.352578	-3.519228	0.148047
0.440	1.714191	-1.681088	555.879517	0.820479	19.591111	-0.343050	-3.524345	0.147600
0.450	1.657083	-1.646098	555.969625	0.818787	19.612577	-0.332949	-3.527635	0.147272
0.460	1.624031	-1.602619	556.017047	0.822387	19.620899	-0.324619	-3.528830	0.147907
0.470	1.612844	-1.557227	556.004712	0.835894	19.615911	-0.319825	-3.528012	0.150339
0.480	1.619528	-1.517160	555.940908	0.861921	19.600183	-0.319256	-3.525587	0.155038
0.490	1.640706	-1.487435	555.856539	0.900009	19.578159	-0.322375	-3.522160	0.161914
0.500	1.674712	-1.468433	555.793541	0.947010	19.554526	-0.327690	-3.518308	0.170389
0.510	1.720847	-1.455399	555.789464	0.998716	19.532511	-0.333359	-3.514372	0.179693
0.520	1.777655	-1.440405	555.864051	1.051824	19.512828	-0.337847	-3.510360	0.189223
0.530	1.841693	-1.415745	556.012446	1.105198	19.493588	-0.340336	-3.505963	0.198772
0.540	1.907697	-1.376838	556.207012	1.159897	19.471056	-0.340780	-3.500685	0.208537
0.550	1.969989	-1.323156	556.406736	1.218142	19.440947	-0.339672	-3.494017	0.218930
0.560	2.024288	-1.257169	556.570716	1.281916	19.399904	-0.337765	-3.485613	0.230324
0.570	2.069095	-1.182480	556.670877	1.351948	19.346718	-0.335878	-3.475432	0.242863
0.580	2.106231	-1.102393	556.698847	1.427526	19.282885	-0.334793	-3.463791	0.256427
0.590	2.140456	-1.019453	556.664060	1.507065	19.212221	-0.335154	-3.451313	0.270732
0.600	2.178209	-0.935657	556.584697	1.588931	19.139658	-0.337330	-3.438768	0.285479
0.610	2.225647	-0.852718	556.477478	1.671976	19.069651	-0.341297	-3.426851	0.300457
0.620	2.286519	-0.771970	556.352838	1.755562	19.004870	-0.346630	-3.415974	0.315548
0.630	2.360781	-0.694042	556.218121	1.839274	18.945746	-0.352649	-3.406172	0.330675
0.640	2.444720	-0.618871	556.085637	1.922760	18.891014	-0.358643	-3.397141	0.345767
0.650	2.532561	-0.546481	555.978544	2.005902	18.838820	-0.364033	-3.388408	0.360788
0.660	2.618687	-0.478255	555.928290	2.089169	18.787713	-0.368434	-3.379521	0.375798
0.670	2.699285	-0.417865	555.962830	2.173764	18.737103	-0.371594	-3.370208	0.390991
0.680	2.772734	-0.371107	556.091419	2.261240	18.687153	-0.373314	-3.360446	0.406631
0.690	2.838784	-0.344453	556.294844	2.352595	18.638403	-0.373416	-3.350454	0.422904
0.700	2.897240	-0.342722	556.527388	2.447188	18.591405	-0.371812	-3.340609	0.439725
0.710	2.947247	-0.366666	556.730963	2.542053	18.546497	-0.368626	-3.331321	0.456604
0.720	2.987822	-0.411494	556.856033	2.632160	18.503724	-0.364256	-3.322892	0.472682
0.730	3.019248	-0.467176	556.880695	2.711741	18.462940	-0.359338	-3.315421	0.486952
0.740	3.044141	-0.520697	556.819588	2.776218	18.424108	-0.354643	-3.308811	0.498585
0.750	3.067194	-0.559494	556.718254	2.823829	18.387703	-0.350974	-3.302874	0.507228
0.760	3.093536	-0.574665	556.635012	2.856118	18.354937	-0.349111	-3.297482	0.513104
0.770	3.126400	-0.562807	556.618037	2.877069	18.327576	-0.349704	-3.292667	0.516884
0.780	3.165189	-0.526153	556.687363	2.891341	18.307331	-0.353071	-3.288620	0.519383
0.790	3.204997	-0.471506	556.829035	2.902609	18.295090	-0.358960	-3.285585	0.521275
0.800	3.238087	-0.408511	557.002724	2.912874	18.290393	-0.366470	-3.283717	0.522955
0.810	3.256941	-0.347709	557.157798	2.922928	18.291434	-0.374243	-3.282990	0.524614
0.820	3.257582	-0.298572	557.249846	2.933347	18.295574	-0.380885	-3.283190	0.526397
0.830	3.241697	-0.267730	557.251410	2.945150	18.300099	-0.385421	-3.283993	0.528514
0.840	3.216589	-0.257589	557.155119	2.959745	18.302952	-0.387593	-3.285073	0.531225
0.850	3.192969	-0.265659	556.971046	2.978426	18.303263	-0.387840	-3.286214	0.534754
0.860	3.181462	-0.284850	556.721506	3.001905	18.301621	-0.387004	-3.287392	0.539211
0.870	3.189204	-0.304814	556.436199	3.030153	18.300039	-0.385905	-3.288794	0.544564
0.880	3.217676	-0.314223	556.149287	3.062525	18.301602	-0.385001	-3.290771	0.550666
0.890	3.262219	-0.303577	555.897694	3.097995	18.309908	-0.384270	-3.293755	0.557296
0.900	3.313131	-0.267787	555.718190	3.135352	18.328509	-0.383306	-3.298166	0.564198
0.910	3.357860	-0.207708	555.641373	3.173357	18.360485	-0.381526	-3.304377	0.571116
0.920	3.383512	-0.130148	555.683457	3.210918	18.408184	-0.378394	-3.312710	0.577832
0.930	3.378794	-0.046323	555.839570	3.247329	18.473026	-0.373583	-3.323446	0.584221
0.940	3.335030	0.030854	556.082788	3.282437	18.555303	-0.367039	-3.336788	0.590278
0.950	3.246749	0.089931	556.370738	3.316457	18.653993	-0.358932	-3.352799	0.596088
0.960	3.112632	0.123504	556.657651	3.349371	18.766685	-0.349556	-3.371315	0.601693
0.970	2.936873	0.129254	556.906692	3.380137	18.889668	-0.339267	-3.391891	0.606949
0.980	2.729968	0.109063	557.097306	3.406234	19.018238	-0.328520	-3.413809	0.611425
0.990	2.507734	0.066889	557.225109	3.423947	19.147221	-0.317970	-3.436173	0.614464
1.000	2.288296	0.006726	557.295826	3.429426	19.271676	-0.308529	-3.458069	0.615369
1.010	2.088072	-0.068305	557.317537	3.420135	19.387560	-0.301268	-3.478728	0.613678
1.020	1.918329	-0.155531	557.295632	3.396087	19.492188	-0.297121	-3.497639	0.609387
1.030	1.783638	-0.251651	557.232622	3.360260	19.584359	-0.296486	-3.514575	0.603026
1.040	1.682765	-0.351969	557.131917	3.317954	19.664138	-0.298944	-3.529530	0.595542
1.050	1.611473	-0.450628	557.002254	3.275186	19.732347	-0.303315	-3.542597	0.588002
1.060	1.565820	-0.541922	556.858841	3.236647	19.789925	-0.308073	-3.553850	0.581233
1.070	1.544187	-0.622114	556.719145	3.203958	19.837392	-0.311932	-3.563267	0.575507
1.080	1.547050	-0.690948	556.595191	3.174883	19.874640	-0.314321	-3.570753	0.570411
1.090	1.574740	-0.752187	556.487603	3.143853	19.901210	-0.315605	-3.576218	0.564946
1.100	1.624609	-0.812893	556.386537	3.103748	19.916960	-0.316987	-3.579698	0.557840
1.110	1.689399	-0.881417	556.279907	3.048416	19.922847	-0.320149	-3.581443	0.548000
1.120	1.757895	-0.964455	556.163659	2.975040	19.921393	-0.326677	-3.581930	0.534922
1.130	1.817696	-1.064025	556.047392	2.885385	19.916460	-0.337420	-3.581792	0.518910
1.140	1.858872	-1.175646	555.952232	2.785367	19.912263	-0.352013	-3.581650	0.501008
1.150	1.877040	-1.288797	555.902594	2.683151	19.911937	-0.368818	-3.581911	0.482666
1.160	1.874789	-1.389687	555.915716	2.586772	19.916284	-0.385360	-3.582609	0.465317
1.170	1.860957	-1.465206	555.993061	2.502475	19.923297	-0.399144	-3.583371	0.450091
1.180	1.847758	-1.506613	556.117292	2.434304	19.928744	-0.408520	-3.583551	0.437732
1.190	1.846532	-1.511881	556.257045	2.384520	19.927663	-0.413212	-3.582456	0.428672
1.200	1.863714	-1.486258	556.378259	2.354015	19.916175	-0.414286	-3.579611	0.423096
1.210	1.898859	-1.440980	556.457081	2.342218	19.892885	-0.413535	-3.574918	0.420916
1.220	1.945647	-1.390443	556.488169	2.346718	19.859260	-0.412603	-3.568676	0.421701
1.230	1.995153	-1.348415	556.484247	2.363223	19.818884	-0.412240	-3.561446	0.424670
1.240	2.039542	-1.324053	556.467371	2.386336	19.775981	-0.412075	-3.553844	0.428837
1.250	2.074432	-1.318831	556.456960	2.411021	19.733904	-0.410945	-3.546349	0.433281
1.260	2.099408	-1.325882	556.461141	2.434052	19.694262	-0.407555	-3.539198	0.437416
1.270	2.117171	-1.332803	556.475068	2.454716	19.656946	-0.401106	-3.532404	0.441119
1.280	2.132008	-1.327134	556.485302	2.474499	19.620811	-0.391627	-3.525845	0.444666
1.290	2.148018	-1.301787	556.476657	2.496088	19.584459	-0.379924	-3.519368	0.448552
1.300	2.167477	-1.257616	556.438020	2.522285	19.546688	-0.367264	-3.512824	0.453291
1.310	2.189878	-1.202184	556.365723	2.555253	19.506510	-0.354978	-3.506059	0.459276
1.320	2.212203	-1.146028	556.264831	2.596083	19.463011	-0.344204	-3.498875	0.466699
1.330	2.230638	-1.098629	556.149251	2.644534	19.415365	-0.335758	-3.491035	0.475508
1.340	2.243189	-1.065725	556.040804	2.698886	19.363081	-0.330052	-3.482313	0.485375
1.350	2.251906	-1.048466	555.966272	2.755950	19.306234	-0.327001	-3.472555	0.495704
1.360	2.263418	-1.043961	555.951099	2.811327	19.245438	-0.326002	-3.461714	0.505679
1.370	2.287141	-1.046580	556.010614	2.859954	19.181535	-0.326127	-3.449851	0.514370
1.380	2.331541	-1.049642	556.142866	2.897000	19.115185	-0.326519	-3.437100	0.520909
1.390	2.399820	-1.047265	556.327623	2.919034	19.046545	-0.326776	-3.423620	0.524697
1.400	2.487160	-1.035874	556.532617	2.925099	18.975178	-0.327078	-3.409536	0.525593
1.410	2.581203	-1.014693	556.723778	2.917170	18.900266	-0.327964	-3.394909	0.523989
1.420	2.665894	-0.984976	556.874320	2.899688	18.821161	-0.329916	-3.379786	0.520708
1.430	2.726945	-0.948421	556.968639	2.878288	18.738103	-0.332994	-3.364301	0.516777
1.440	2.756346	-0.905805	557.000341	2.858206	18.652758	-0.336752	-3.348788	0.513143
1.450	2.753960	-0.856901	556.967676	2.843008	18.568151	-0.340467	-3.333793	0.510444
1.460	2.725974	-0.801974	556.871289	2.834084	18.487812	-0.343551	-3.319943	0.508930
1.470	2.681587	-0.743899	556.716812	2.830981	18.414465	-0.345893	-3.307690	0.508514
1.480	2.629902	-0.689245	556.520226	2.832248	18.349005	-0.347908	-3.297096	0.508921
1.490	2.578289	-0.647291	556.310927	2.836355	18.290397	-0.350241	-3.287801	0.509851
1.500	2.532347	-0.627236	556.128322	2.842402	18.236559	-0.353269	-3.279200	0.511105
1.510	2.496693	-0.634869	556.011895	2.850500	18.185607	-0.356699	-3.270723	0.512669
1.520	2.475570	-0.670118	555.989037	2.861744	18.136689	-0.359557	-3.262059	0.514712
1.530	2.472776	-0.726479	556.066155	2.877715	18.090024	-0.360592	-3.253214	0.517513
1.540	2.491050	-0.792511	556.226168	2.899628	18.046292	-0.358874	-3.244416	0.521304
1.550	2.531369	-0.854971	556.432383	2.927415	18.005774	-0.354250	-3.235932	0.526104
1.560	2.592465	-0.902593	556.637426	2.959257	17.967715	-0.347424	-3.227903	0.531631
1.570	2.670697	-0.929183	556.795417	2.991894	17.930213	-0.339680	-3.220251	0.537342
1.580	2.760342	-0.934890	556.874150	3.021667	17.890708	-0.332360	-3.212702	0.542612
1.590	2.854358	-0.925252	556.862506	3.045798	17.846874	-0.326343	-3.204898	0.546957
1.600	2.945554	-0.908640	556.769566	3.063290	17.797531	-0.321774	-3.196570	0.550190
1.610	3.027876	-0.893413	556.616328	3.075001	17.743244	-0.318190	-3.187697	0.552445
1.620	3.097292	-0.885947	556.425268	3.083019	17.686406	-0.314974	-3.178577	0.554076
1.630	3.151792	-0.889952	556.213451	3.089821	17.630759	-0.311815	-3.169783	0.555510
1.640	3.190573	-0.906664	555.991402	3.097712	17.580453	-0.308851	-3.162001	0.557151
1.650	3.213132	-0.935233	555.766107	3.108577	17.538941	-0.306458	-3.155813	0.559332
1.660	3.219137	-0.972876	555.545516	3.123684	17.508157	-0.304870	-3.151525	0.562273
1.670	3.209294	-1.014909	555.342878	3.143369	17.488289	-0.303930	-3.149098	0.566023
1.680	3.186526	-1.055095	555.179792	3.166834	17.478099	-0.303096	-3.148187	0.570416
1.690	3.156400	-1.086746	555.086390	3.192392	17.475472	-0.301682	-3.148244	0.575116
1.700	3.126085	-1.104508	555.097025	3.218183	17.477946	-0.299234	-3.148629	0.579752
1.710	3.102050	-1.106055	555.241093	3.242973	17.483091	-0.295824	-3.148739	0.584066
1.720	3.087597	-1.092852	555.530768	3.266548	17.488797	-0.292133	-3.148124	0.588005
1.730	3.081719	-1.069745	555.949735	3.289455	17.493462	-0.289255	-3.146591	0.591682
1.740	3.080200	-1.043656	556.448352	3.312241	17.496093	-0.288349	-3.144244	0.595247
1.750	3.078483	-1.021753	556.949603	3.334611	17.496305	-0.290313	-3.141452	0.598728
1.760	3.074652	-1.009436	557.366425	3.354946	17.494277	-0.295575	-3.138739	0.601928
1.770	3.070848	-1.008669	557.625916	3.370513	17.490700	-0.303987	-3.136637	0.604440
1.780	3.072490	-1.017313	557.691657	3.378416	17.486697	-0.314780	-3.135549	0.605786
1.790	3.086029	-1.029856	557.574629	3.376952	17.483662	-0.326596	-3.135663	0.605650
1.800	3.116447	-1.039394	557.327517	3.366701	17.483059	-0.337704	-3.136945	0.604079
1.810	3.165457	-1.040234	557.025253	3.350766	17.486289	-0.346460	-3.139227	0.601547
1.820	3.230704	-1.030155	556.741378	3.334048	17.494631	-0.351826	-3.142326	0.598850
1.830	3.305903	-1.011496	556.530007	3.321860	17.509182	-0.353711	-3.146134	0.596888
1.840	3.381865	-0.990594	556.417509	3.318363	17.530737	-0.352937	-3.150644	0.596380
1.850	3.448462	-0.975541	556.402593	3.325307	17.559641	-0.350911	-3.155924	0.597644
1.860	3.497254	-0.972853	556.462398	3.341551	17.595701	-0.349159	-3.162065	0.600499
1.870	3.523887	-0.984199	556.563079	3.363588	17.638152	-0.348877	-3.169120	0.604350
1.880	3.529155	-1.004729	556.672578	3.386860	17.685707	-0.350640	-3.177039	0.608412
1.890	3.518176	-1.024122	556.771121	3.407305	17.736732	-0.354331	-3.185641	0.611976
1.900	3.497907	-1.030407	556.854722	3.422509	17.789506	-0.359323	-3.194640	0.614614
1.910	3.473907	-1.015111	556.929993	3.432159	17.842473	-0.364793	-3.203719	0.616264
1.920	3.447662	-0.977463	557.003559	3.437865	17.894378	-0.370030	-3.212615	0.617207
1.930	3.415745	-0.925604	557.072486	3.442597	17.944325	-0.374633	-3.221183	0.617980
1.940	3.371323	-0.874060	557.120938	3.449884	17.991890	-0.378531	-3.229441	0.619234
1.950	3.307350	-0.838443	557.124131	3.462823	18.037277	-0.381895	-3.237569	0.621553
1.960	3.219925	-0.829621	557.057424	3.483131	18.081390	-0.384972	-3.245876	0.625273
1.970	3.110238	-0.849845	556.907299	3.510633	18.125646	-0.387950	-3.254697	0.630380
1.980	2.984334	-0.892280	556.680567	3.543381	18.171560	-0.390879	-3.264271	0.636520
1.990	2.850857	-0.943785	556.407757	3.578313	18.220350	-0.393639	-3.274640	0.643110
2.000	2.717867	-0.989514	556.137801	3.612160	18.272684	-0.395969	-3.285640	0.649508
2.010	2.590384	-1.017382	555.924850	3.642449	18.328566	-0.397559	-3.296950	0.655205
2.020	2.469996	-1.020874	555.812118	3.668326	18.387250	-0.398194	-3.308177	0.659994
2.030	2.356685	-0.999615	555.819208	3.690856	18.447263	-0.397882	-3.318932	0.664039
2.040	2.251548	-0.958200	555.937420	3.712594	18.506636	-0.396857	-3.328906	0.667808
2.050	2.158548	-0.904367	556.133592	3.736542	18.563276	-0.395445	-3.337917	0.671878
2.060	2.084063	-0.847301	556.359466	3.764920	18.615273	-0.393884	-3.345908	0.676706
2.070	2.034537	-0.796097	556.562434	3.798304	18.661001	-0.392237	-3.352903	0.682458
2.080	2.013727	-0.758117	556.695148	3.835494	18.699085	-0.390446	-3.358945	0.688976
2.090	2.021195	-0.737427	556.723931	3.874104	18.728478	-0.388476	-3.364051	0.695875
2.100	2.052601	-0.734040	556.636414	3.911508	18.748729	-0.386497	-3.368218	0.702704
2.110	2.101031	-0.744427	556.446791	3.945710	18.760360	-0.384947	-3.371456	0.709090
2.120	2.158302	-0.763129	556.195401	3.975747	18.765089	-0.384400	-3.373830	0.714811
2.130	2.215820	-0.784771	555.940212	4.001504	18.765668	-0.385194	-3.375483	0.719772
2.140	2.265334	-0.805710	555.741261	4.023110	18.765310	-0.387073	-3.376627	0.723918
2.150	2.299983	-0.824730	555.642830	4.040333	18.766875	-0.389127	-3.377507	0.727146
2.160	2.315572	-0.842647	555.659845	4.052440	18.772113	-0.390189	-3.378346	0.729302
2.170	2.311563	-0.861198	555.773604	4.058647	18.781185	-0.389434	-3.379287	0.730270
2.180	2.291228	-0.881862	555.938764	4.059005	18.792608	-0.386812	-3.380338	0.730117
2.190	2.260767	-0.905114	556.099865	4.055238	18.803777	-0.383015	-3.381367	0.729228
2.200	2.227713	-0.930197	556.212129	4.050990	18.812004	-0.379064	-3.382164	0.728317
2.210	2.198980	-0.955234	556.258583	4.051144	18.815747	-0.375792	-3.382554	0.728284
2.220	2.178951	-0.977548	556.255616	4.060343	18.815353	-0.373541	-3.382501	0.729942
2.230	2.168209	-0.994125	556.243551	4.081329	18.812819	-0.372175	-3.382119	0.733730
2.240	2.163829	-1.002223	556.266359	4.113916	18.810647	-0.371339	-3.381590	0.739559
2.250	2.161551	-1.000051	556.350609	4.155146	18.810470	-0.370747	-3.381046	0.746857
2.260	2.158839	-0.987343	556.493921	4.200601	18.812284	-0.370346	-3.380501	0.754833
2.270	2.156961	-0.965455	556.667392	4.246148	18.814633	-0.370276	-3.379870	0.762780
2.280	2.160882	-0.936603	556.828996	4.289144	18.815477	-0.370688	-3.379040	0.770280
2.290	2.177127	-0.902365	556.940265	4.328608	18.813128	-0.371545	-3.377944	0.777212
2.300	2.210690	-0.862339	556.978704	4.364625	18.806745	-0.372471	-3.376564	0.783625
2.310	2.262325	-0.814143	556.942011	4.397675	18.796256	-0.372727	-3.374904	0.789611
2.320	2.327437	-0.755208	556.844372	4.428404	18.781975	-0.371324	-3.372931	0.795268
2.330	2.397201	-0.685407	556.707734	4.457833	18.764351	-0.367282	-3.370593	0.800749
2.340	2.461478	-0.608704	556.552214	4.487599	18.744082	-0.359958	-3.367893	0.806321
2.350	2.512086	-0.532538	556.390108	4.519849	18.722415	-0.349334	-3.364980	0.812353
2.360	2.544819	-0.465124	556.226312	4.556757	18.701317	-0.336148	-3.362178	0.819227
2.370	2.559516	-0.412133	556.064353	4.599898	18.683360	-0.321799	-3.359928	0.827224
