Time[s]	Fx[N]	Fy[N]	Fz[N]	Mx[Nm]	My[Nm]	Mz[Nm]	COPx[cm]	COPy[cm]
0.010	6.281575	1.001909	515.457438	7.457545	-22.824264	-0.387576	4.427963	1.446782
0.020	6.241953	1.084788	515.861884	7.600238	-22.722841	-0.381196	4.404830	1.473309
0.030	6.184848	1.176746	516.286184	7.751470	-22.620436	-0.376054	4.381375	1.501390
0.040	6.097204	1.284159	516.747373	7.915442	-22.515436	-0.372996	4.357146	1.531782
0.050	5.974579	1.407380	517.262822	8.089920	-22.405591	-0.372242	4.331568	1.563986
0.060	5.820935	1.539665	517.846883	8.266633	-22.288525	-0.373297	4.304076	1.596347
0.070	5.645604	1.668307	518.506821	8.434042	-22.162553	-0.375027	4.274303	1.626602
0.080	5.459098	1.777911	519.240423	8.581185	-22.027431	-0.375929	4.242241	1.652642
0.090	5.269372	1.854705	520.036512	8.700998	-21.884838	-0.374638	4.208327	1.673151
0.100	5.079884	1.890094	520.877994	8.791961	-21.738499	-0.370501	4.173434	1.687912
0.110	4.890331	1.882152	521.745984	8.857683	-21.593895	-0.363911	4.138775	1.697700
0.120	4.700026	1.834905	522.622762	8.904865	-21.457463	-0.356176	4.105727	1.703880
0.130	4.512113	1.756409	523.491053	8.940621	-21.335297	-0.348948	4.075580	1.707884
0.140	4.335752	1.656882	524.328690	8.970224	-21.231595	-0.343508	4.049291	1.710802
0.150	4.184210	1.547654	525.101302	8.995959	-21.147366	-0.340263	4.027293	1.713185
0.160	4.069575	1.440803	525.758224	9.017183	-21.079959	-0.338666	4.009440	1.715082
0.170	3.997344	1.348602	526.235522	9.031265	-21.023729	-0.337589	3.995118	1.716202
0.180	3.964385	1.281944	526.466017	9.034941	-20.971714	-0.335959	3.983489	1.716149
0.190	3.961454	1.247792	526.392941	9.025621	-20.917697	-0.333358	3.973780	1.714617
0.200	3.978530	1.246739	525.982996	9.002346	-20.857782	-0.330234	3.965486	1.711528
0.210	4.009735	1.272220	525.235444	8.966140	-20.790835	-0.327638	3.958384	1.707071
0.220	4.055201	1.312239	524.185000	8.919692	-20.717704	-0.326676	3.952365	1.701631
0.230	4.119183	1.353182	522.897462	8.866424	-20.639719	-0.328026	3.947183	1.695633
0.240	4.205544	1.384063	521.458605	8.809336	-20.557188	-0.331722	3.942247	1.689364
0.250	4.312675	1.399293	519.958924	8.750209	-20.468389	-0.337154	3.936540	1.682865
0.260	4.429802	1.398950	518.478616	8.689553	-20.369230	-0.343139	3.928654	1.675971
0.270	4.536089	1.387053	517.077885	8.627225	-20.253648	-0.348020	3.916943	1.668457
0.280	4.603236	1.369130	515.796581	8.563287	-20.114771	-0.349871	3.899749	1.660206
0.290	4.601477	1.350111	514.664171	8.498742	-19.946743	-0.346868	3.875681	1.651318
0.300	4.507830	1.332931	513.716640	8.436034	-19.746858	-0.337805	3.843920	1.642157
0.310	4.314459	1.317761	513.013061	8.379239	-19.517407	-0.322588	3.804466	1.633338
0.320	4.034545	1.301688	512.643126	8.333717	-19.266642	-0.302508	3.758295	1.625637
0.330	3.703164	1.278806	512.718789	8.305040	-19.008338	-0.280166	3.707361	1.619804
0.340	3.371446	1.240930	513.348200	8.297384	-18.759727	-0.258996	3.654386	1.616327
0.350	3.094045	1.179459	514.597788	8.311934	-18.537956	-0.242486	3.602417	1.615229
0.360	2.912913	1.088647	516.455965	8.345993	-18.355961	-0.233261	3.554216	1.616012
0.370	2.843347	0.969803	518.814549	8.393187	-18.219149	-0.232334	3.511688	1.617762
0.380	2.868703	0.834794	521.477876	8.444769	-18.124323	-0.238816	3.475569	1.619392
0.390	2.946847	0.706531	524.197226	8.491566	-18.061421	-0.250244	3.445539	1.619918
0.400	3.025844	0.614582	526.717485	8.525820	-18.017359	-0.263421	3.420687	1.618670
0.410	3.062246	0.586008	528.820173	8.542155	-17.980333	-0.275465	3.400085	1.615323
0.420	3.034952	0.634235	530.351867	8.537348	-17.942820	-0.284690	3.383192	1.609752
0.430	2.950476	0.750597	531.234682	8.509178	-17.902377	-0.291023	3.369956	1.601774
0.440	2.839168	0.902851	531.461510	8.455108	-17.860486	-0.295846	3.360636	1.590916
0.450	2.744619	1.042360	531.081570	8.371702	-17.820470	-0.301326	3.355505	1.576350
0.460	2.709896	1.118039	530.182022	8.255335	-17.785541	-0.309509	3.354610	1.557076
0.470	2.764775	1.092360	528.870017	8.104013	-17.757566	-0.321530	3.357643	1.532326
0.480	2.917745	0.953611	527.257517	7.919387	-17.736595	-0.337251	3.363934	1.501996
0.490	3.155013	0.719885	525.449533	7.707797	-17.720906	-0.355405	3.372523	1.466896
0.500	3.446116	0.433293	523.536151	7.479678	-17.707333	-0.374153	3.382256	1.428684
0.510	3.753401	0.146704	521.589209	7.247444	-17.691699	-0.391734	3.391884	1.389493
0.520	4.041594	-0.091828	519.664779	7.022700	-17.669230	-0.406920	3.400121	1.351390
0.530	4.284503	-0.251165	517.811714	6.813822	-17.634913	-0.419106	3.405661	1.315888
0.540	4.467702	-0.322043	516.083973	6.624776	-17.583926	-0.428085	3.407183	1.283662
0.550	4.587682	-0.314742	514.551161	6.455514	-17.512308	-0.433715	3.403414	1.254591
0.560	4.648765	-0.252214	513.300822	6.303636	-17.417904	-0.435725	3.393313	1.228059
0.570	4.659096	-0.162324	512.429246	6.166484	-17.301221	-0.433774	3.376314	1.203382
0.580	4.626876	-0.071754	512.023213	6.042634	-17.165654	-0.427720	3.352515	1.180148
0.590	4.557826	-0.002176	512.139137	5.932096	-17.016698	-0.417881	3.322671	1.158298
0.600	4.454538	0.032014	512.786382	5.835319	-16.860332	-0.405096	3.287983	1.137963
0.610	4.317570	0.025044	513.918788	5.751856	-16.701235	-0.390474	3.249781	1.119215
0.620	4.147334	-0.020019	515.435914	5.679705	-16.541565	-0.374964	3.209238	1.101923
0.630	3.945669	-0.092882	517.194725	5.615766	-16.380730	-0.358967	3.167227	1.085813
0.640	3.716679	-0.179666	519.031879	5.556969	-16.216221	-0.342186	3.124321	1.070641
0.650	3.467108	-0.267802	520.793563	5.501132	-16.045195	-0.323790	3.080913	1.056298
0.660	3.206488	-0.350524	522.365069	5.446979	-15.866237	-0.302800	3.037385	1.042753
0.670	2.946689	-0.429297	523.690111	5.393470	-15.680650	-0.278580	2.994261	1.029897
0.680	2.700455	-0.513236	524.772649	5.339092	-15.492855	-0.251286	2.952298	1.017410
0.690	2.479167	-0.615542	525.660457	5.281645	-15.309853	-0.222071	2.912499	1.004764
0.700	2.290783	-0.747827	526.416399	5.218665	-15.139959	-0.192898	2.876042	0.991357
0.710	2.138906	-0.914094	527.087358	5.148235	-14.991188	-0.165982	2.844156	0.976733
0.720	2.023426	-1.106730	527.680897	5.069773	-14.869700	-0.143151	2.817934	0.960765
0.730	1.942368	-1.306520	528.156634	4.984369	-14.778624	-0.125468	2.798152	0.943729
0.740	1.893831	-1.487138	528.434604	4.894413	-14.717478	-0.113237	2.785109	0.926210
0.750	1.876865	-1.622547	528.417632	4.802607	-14.682301	-0.106306	2.778541	0.908866
0.760	1.891056	-1.694491	528.020801	4.710761	-14.666501	-0.104420	2.777637	0.892154
0.770	1.935589	-1.697380	527.199756	4.618977	-14.662271	-0.107459	2.781161	0.876134
0.780	2.008685	-1.639103	525.970410	4.525736	-14.662212	-0.115479	2.787650	0.860455
0.790	2.107598	-1.537951	524.414318	4.428873	-14.660684	-0.128559	2.795630	0.844537
0.800	2.228791	-1.417137	522.666634	4.326919	-14.654485	-0.146517	2.803792	0.827854
0.810	2.367875	-1.298956	520.888557	4.220098	-14.642697	-0.168647	2.811100	0.810173
0.820	2.519340	-1.200390	519.232505	4.110602	-14.625822	-0.193612	2.816816	0.791669
0.830	2.676495	-1.130981	517.812162	4.002157	-14.604540	-0.219569	2.820432	0.772897
0.840	2.831904	-1.092939	516.687432	3.899142	-14.578600	-0.244425	2.821551	0.754642
0.850	2.978056	-1.082894	515.867174	3.805462	-14.546383	-0.266139	2.819792	0.737683
0.860	3.107734	-1.094462	515.325032	3.723371	-14.505394	-0.283005	2.814805	0.722529
0.870	3.213905	-1.120627	515.020418	3.652579	-14.453344	-0.293864	2.806363	0.709211
0.880	3.289506	-1.155166	514.918009	3.590182	-14.389139	-0.298262	2.794453	0.697234
0.890	3.327711	-1.193084	515.001403	3.531697	-14.313251	-0.296506	2.779264	0.685765
0.900	3.323008	-1.230721	515.277629	3.472896	-14.227366	-0.289604	2.761107	0.673985
0.910	3.272859	-1.266245	515.770484	3.411566	-14.133610	-0.279105	2.740291	0.661450
0.920	3.179159	-1.300450	516.504110	3.348367	-14.033730	-0.266832	2.717061	0.648275
0.930	3.048639	-1.337047	517.483006	3.286545	-13.928578	-0.254570	2.691601	0.635102
0.940	2.891961	-1.381720	518.677410	3.230776	-13.818134	-0.243748	2.664109	0.622887
0.950	2.722011	-1.439944	520.020808	3.185666	-13.702108	-0.235225	2.634915	0.612604
0.960	2.552105	-1.514315	521.419741	3.154339	-13.580916	-0.229260	2.604603	0.604952
0.970	2.394342	-1.602418	522.770198	3.137463	-13.456509	-0.225667	2.574077	0.600161
0.980	2.257900	-1.696126	523.973847	3.132931	-13.332524	-0.223999	2.544502	0.597917
0.990	2.147344	-1.782855	524.950447	3.136263	-13.213582	-0.223667	2.517110	0.597440
1.000	2.061747	-1.848690	525.645897	3.141624	-13.104102	-0.223988	2.492952	0.597669
1.010	1.995692	-1.882622	526.036430	3.143259	-13.007307	-0.224219	2.472701	0.597536
1.020	1.942380	-1.880496	526.129004	3.136995	-12.924899	-0.223641	2.456603	0.596241
1.030	1.897599	-1.847128	525.957489	3.121305	-12.857381	-0.221709	2.444567	0.593452
1.040	1.862522	-1.795577	525.574576	3.097497	-12.804593	-0.218224	2.436304	0.589354
1.050	1.843780	-1.743583	525.040677	3.068864	-12.766025	-0.213464	2.431435	0.584500
1.060	1.850738	-1.708189	524.412355	3.039147	-12.740699	-0.208165	2.429519	0.579534
1.070	1.891393	-1.700369	523.733302	3.011037	-12.726776	-0.203337	2.430011	0.574918
1.080	1.968944	-1.721643	523.030321	2.985421	-12.721244	-0.199979	2.432219	0.570793
1.090	2.080442	-1.763957	522.315395	2.961652	-12.720017	-0.198807	2.435313	0.567024
1.100	2.217598	-1.812626	521.593105	2.938537	-12.718528	-0.200107	2.438400	0.563377
1.110	2.368845	-1.850929	520.870768	2.915506	-12.712619	-0.203685	2.440647	0.559737
1.120	2.521540	-1.864850	520.167210	2.893463	-12.699388	-0.208962	2.441405	0.556256
1.130	2.663622	-1.846984	519.516115	2.875045	-12.677653	-0.215180	2.440281	0.553408
1.140	2.784594	-1.798853	518.962124	2.864166	-12.647859	-0.221698	2.437145	0.551903
1.150	2.876147	-1.730811	518.550995	2.864903	-12.611481	-0.228171	2.432062	0.552482
1.160	2.932747	-1.659152	518.317156	2.880063	-12.570104	-0.234420	2.425176	0.555656
1.170	2.952037	-1.601214	518.272583	2.910057	-12.524386	-0.240010	2.416564	0.561492
1.180	2.934445	-1.570261	518.400599	2.952711	-12.473100	-0.243832	2.406074	0.569581
1.190	2.881635	-1.572049	518.656563	3.004242	-12.412544	-0.244126	2.393211	0.579235
1.200	2.794325	-1.604176	518.974992	3.061071	-12.336684	-0.239149	2.377125	0.589830
1.210	2.670676	-1.657874	519.281420	3.121687	-12.238206	-0.228220	2.356758	0.601155
1.220	2.506452	-1.720741	519.507860	3.187656	-12.110413	-0.212587	2.331132	0.613592
1.230	2.297509	-1.778888	519.611263	3.263125	-11.949548	-0.195519	2.299709	0.627994
1.240	2.044150	-1.818147	519.592223	3.352781	-11.756915	-0.181459	2.262720	0.645272
1.250	1.755917	-1.825130	519.506811	3.459052	-11.540066	-0.174521	2.221350	0.665834
1.260	1.454476	-1.788850	519.461901	3.579873	-11.312468	-0.176955	2.177728	0.689150
1.270	1.172128	-1.702812	519.588515	3.708195	-11.091282	-0.188236	2.134628	0.713679
1.280	0.944717	-1.566897	519.998296	3.833572	-10.893521	-0.205173	2.094915	0.737228
1.290	0.800345	-1.388453	520.739134	3.945118	-10.731697	-0.222992	2.060859	0.757600
1.300	0.748383	-1.182241	521.769256	4.034590	-10.610643	-0.237025	2.033589	0.773252
1.310	0.774510	-0.968985	522.961783	4.098466	-10.526963	-0.244323	2.012951	0.783703
1.320	0.845145	-0.772285	524.138140	4.138589	-10.471311	-0.244542	1.997815	0.789599
1.330	0.919600	-0.614058	525.116823	4.161535	-10.432335	-0.239728	1.986669	0.792497
1.340	0.964188	-0.509558	525.759253	4.177115	-10.400448	-0.233215	1.978177	0.794492
1.350	0.962268	-0.463725	525.997497	4.196351	-10.370067	-0.228228	1.971505	0.797789
1.360	0.917100	-0.470424	525.837599	4.229345	-10.339897	-0.226833	1.966367	0.804306
1.370	0.847770	-0.514776	525.343181	4.283417	-10.311712	-0.229542	1.962852	0.815356
1.380	0.780554	-0.577433	524.610738	4.361829	-10.288516	-0.235515	1.961172	0.831441
1.390	0.739267	-0.639007	523.747176	4.463254	-10.273022	-0.243078	1.961447	0.852177
1.400	0.738251	-0.683438	522.853834	4.582045	-10.266963	-0.250298	1.963639	0.876353
1.410	0.780239	-0.700106	522.015861	4.709297	-10.271190	-0.255508	1.967601	0.902137
1.420	0.858670	-0.685027	521.294365	4.834497	-10.286022	-0.257742	1.973170	0.927402
1.430	0.962024	-0.641227	520.720587	4.947365	-10.311351	-0.257050	1.980208	0.950100
1.440	1.077718	-0.578004	520.294142	5.039443	-10.346342	-0.254555	1.988556	0.968576
1.450	1.194422	-0.508959	519.988374	5.105158	-10.388983	-0.252134	1.997926	0.981783
1.460	1.302848	-0.449258	519.763527	5.142383	-10.435929	-0.251760	2.007822	0.989370
1.470	1.395705	-0.413051	519.584306	5.152469	-10.482952	-0.254699	2.017565	0.991652
1.480	1.467611	-0.411690	519.435512	5.139674	-10.525990	-0.260904	2.026429	0.989473
1.490	1.515503	-0.452608	519.329144	5.109955	-10.562369	-0.268915	2.033849	0.983953
1.500	1.539333	-0.538165	519.298921	5.069409	-10.591601	-0.276367	2.039596	0.976203
1.510	1.542172	-0.664274	519.383280	5.022875	-10.615286	-0.280924	2.043825	0.967084
1.520	1.529016	-0.819651	519.603967	4.973178	-10.636124	-0.281229	2.046967	0.957109
1.530	1.504596	-0.986992	519.950683	4.921172	-10.656573	-0.277430	2.049535	0.946469
1.540	1.471436	-1.146496	520.380200	4.866393	-10.677856	-0.271047	2.051934	0.935161
1.550	1.429488	-1.280583	520.830872	4.808010	-10.699789	-0.264321	2.054369	0.923142
1.560	1.377591	-1.377763	521.245122	4.745798	-10.721485	-0.259374	2.056899	0.910473
1.570	1.315834	-1.434104	521.588897	4.680831	-10.742609	-0.257549	2.059593	0.897418
1.580	1.247475	-1.452204	521.859863	4.615578	-10.764527	-0.259135	2.062724	0.884448
1.590	1.179397	-1.438907	522.082121	4.553294	-10.790716	-0.263483	2.066862	0.872141
1.600	1.120738	-1.403333	522.291005	4.496990	-10.826146	-0.269319	2.072819	0.861012
1.610	1.080087	-1.355913	522.515150	4.448558	-10.875804	-0.275095	2.081433	0.851374
1.620	1.062387	-1.307900	522.763711	4.408576	-10.942938	-0.279267	2.093286	0.843321
1.630	1.067083	-1.270243	523.023399	4.376848	-11.027822	-0.280555	2.108476	0.836836
1.640	1.088649	-1.251368	523.264717	4.353212	-11.127711	-0.278205	2.126593	0.831933
1.650	1.119597	-1.254661	523.452666	4.337933	-11.238059	-0.272231	2.146910	0.828715
1.660	1.154606	-1.277398	523.555979	4.331306	-11.354313	-0.263526	2.168691	0.827286
1.670	1.193408	-1.312331	523.550660	4.332674	-11.473183	-0.253740	2.191418	0.827556
1.680	1.240532	-1.351324	523.417930	4.339569	-11.592738	-0.244925	2.214815	0.829083
1.690	1.302001	-1.388797	523.141663	4.347743	-11.711580	-0.239005	2.238701	0.831083
1.700	1.381035	-1.422787	522.711649	4.352427	-11.828033	-0.237204	2.262822	0.832663
1.710	1.475263	-1.453149	522.134526	4.350438	-11.940280	-0.239634	2.286821	0.833203
1.720	1.576782	-1.478431	521.447431	4.342200	-12.047641	-0.245182	2.310423	0.832721
1.730	1.674736	-1.493767	520.725519	4.332661	-12.152228	-0.251771	2.333711	0.832043
1.740	1.759124	-1.491426	520.075533	4.330527	-12.259687	-0.256925	2.357290	0.832673
1.750	1.824283	-1.463923	519.613348	4.346033	-12.378159	-0.258527	2.382186	0.836398
1.760	1.870712	-1.407949	519.431494	4.388188	-12.515621	-0.255571	2.409484	0.844806
1.770	1.904529	-1.326721	519.568846	4.462571	-12.676749	-0.248668	2.439859	0.858899
1.780	1.934808	-1.229263	519.994929	4.570384	-12.860651	-0.240032	2.473226	0.878929
1.790	1.969984	-1.127039	520.615290	4.708703	-13.060404	-0.232859	2.508648	0.904450
1.800	2.014869	-1.029853	521.295782	4.871407	-13.264480	-0.230238	2.544521	0.934480
1.810	2.069544	-0.942991	521.896419	5.050150	-13.459452	-0.234025	2.578951	0.967654
1.820	2.130469	-0.866446	522.302477	5.235138	-13.633034	-0.244128	2.610180	1.002319
1.830	2.193132	-0.795976	522.442970	5.416011	-13.776595	-0.258484	2.636957	1.036670
1.840	2.254756	-0.725421	522.293732	5.583250	-13.886562	-0.273705	2.658765	1.068987
1.850	2.315584	-0.649663	521.870135	5.730096	-13.964562	-0.286174	2.675869	1.097993
1.860	2.377992	-0.567362	521.217777	5.854368	-14.016487	-0.293191	2.689181	1.123210
1.870	2.443853	-0.482332	520.406213	5.959349	-14.050926	-0.293764	2.699992	1.145134
1.880	2.511517	-0.402610	519.524997	6.053235	-14.077442	-0.288742	2.709676	1.165148
1.890	2.574189	-0.337268	518.678076	6.147116	-14.105033	-0.280250	2.719420	1.185151
1.900	2.620926	-0.292269	517.973571	6.252069	-14.140889	-0.270738	2.730041	1.207025
1.910	2.640058	-0.267391	517.508590	6.376258	-14.189466	-0.262149	2.741880	1.232107
1.920	2.623498	-0.255690	517.351456	6.522952	-14.251955	-0.255557	2.754792	1.260836
1.930	2.569889	-0.245298	517.526347	6.690001	-14.326359	-0.251257	2.768238	1.292688
1.940	2.485267	-0.222160	518.006348	6.870792	-14.408309	-0.249047	2.781493	1.326391
1.950	2.381182	-0.172468	518.718788	7.056312	-14.492534	-0.248465	2.793910	1.360335
1.960	2.271276	-0.084650	519.562111	7.237700	-14.574544	-0.248947	2.805159	1.393038
1.970	2.167800	0.048502	520.429153	7.408613	-14.651970	-0.249965	2.815363	1.423558
1.980	2.079415	0.227345	521.229418	7.566748	-14.725107	-0.251196	2.825072	1.451712
1.990	2.010901	0.443356	521.903554	7.713927	-14.796551	-0.252664	2.835112	1.478037
2.000	1.964237	0.678953	522.426279	7.854615	-14.870092	-0.254680	2.846352	1.503488
2.010	1.939787	0.910047	522.798176	7.993333	-14.949300	-0.257498	2.859478	1.528952
2.020	1.936674	1.110924	523.031113	8.132008	-15.036287	-0.260817	2.874836	1.554785
2.030	1.952351	1.259838	523.134535	8.268374	-15.131066	-0.263510	2.892385	1.580544
2.040	1.982131	1.343473	523.109311	8.396187	-15.231705	-0.263892	2.911763	1.605054
2.050	2.019466	1.359015	522.951942	8.507272	-15.335186	-0.260487	2.932427	1.626779
2.060	2.057336	1.313495	522.666757	8.594560	-15.438664	-0.252913	2.953825	1.644367
2.070	2.090605	1.220889	522.279137	8.654780	-15.540669	-0.242412	2.975549	1.657118
2.080	2.118393	1.098123	521.841101	8.689602	-15.641816	-0.231818	2.997429	1.665182
2.090	2.145089	0.961397	521.423775	8.704838	-15.744685	-0.224970	3.019556	1.669436
2.100	2.178918	0.824072	521.098583	8.708222	-15.852876	-0.225685	3.042203	1.671128
2.110	2.228234	0.696514	520.915815	8.706909	-15.969624	-0.236502	3.065682	1.671462
2.120	2.297151	0.587340	520.890630	8.705749	-16.096693	-0.257624	3.090225	1.671320
2.130	2.382635	0.504800	521.002080	8.706839	-16.234027	-0.286579	3.115924	1.671172
2.140	2.474541	0.457098	521.203936	8.710216	-16.380168	-0.318926	3.142756	1.671172
2.150	2.558661	0.451243	521.441179	8.715195	-16.532975	-0.349762	3.170631	1.671367
2.160	2.621476	0.491029	521.665103	8.721749	-16.690279	-0.375352	3.199424	1.671906
2.170	2.654718	0.575235	521.842638	8.731409	-16.850363	-0.394106	3.229012	1.673188
2.180	2.658107	0.696873	521.959396	8.747401	-17.012380	-0.406524	3.259330	1.675878
2.190	2.639612	0.843809	522.018380	8.773967	-17.176750	-0.414273	3.290449	1.680777
2.200	2.613437	1.000686	522.036833	8.815095	-17.345501	-0.419010	3.322659	1.688596
2.210	2.596489	1.151920	522.042831	8.873029	-17.522416	-0.421575	3.356509	1.699675
2.220	2.604388	1.285320	522.071467	8.947026	-17.712721	-0.421837	3.392777	1.713755
2.230	2.648251	1.395397	522.159122	9.032806	-17.922166	-0.419048	3.432319	1.729895
2.240	2.733244	1.484990	522.335072	9.122989	-18.155631	-0.412383	3.475859	1.746578
2.250	2.858992	1.563982	522.612189	9.208570	-18.415731	-0.401400	3.523785	1.762027
2.260	3.020947	1.645009	522.979987	9.281056	-18.702018	-0.386336	3.576048	1.774648
2.270	3.211660	1.737610	523.402738	9.334496	-19.011077	-0.368187	3.632208	1.783425
2.280	3.421640	1.843351	523.823960	9.366489	-19.337519	-0.348537	3.691606	1.788099
2.290	3.640348	1.954198	524.176886	9.377698	-19.675481	-0.329135	3.753596	1.789033
2.300	3.857823	2.054996	524.398555	9.370242	-20.020073	-0.311343	3.817721	1.786855
2.310	4.066700	2.129087	524.443707	9.345989	-20.368276	-0.295686	3.883787	1.782077
2.320	4.263836	2.164607	524.294812	9.305727	-20.719107	-0.281730	3.951805	1.774904
2.330	4.450857	2.158675	523.966112	9.249491	-21.073192	-0.268412	4.021862	1.765284
2.340	4.633496	2.117735	523.501467	9.177688	-21.432121	-0.254724	4.093995	1.753135
2.350	4.820026	2.054229	522.967485	9.092345	-21.797845	-0.240461	4.168107	1.738606
2.360	5.019340	1.981691	522.444321	8.997924	-22.172228	-0.226595	4.243941	1.722274
2.370	5.239208	1.910909	522.015991	8.901377	-22.556714	-0.215062	4.321077	1.705192
2.380	5.485100	1.848762	521.760168	8.811360	-22.952106	-0.208069	4.398976	1.688776
