Time[s]	Fx[N]	Fy[N]	Fz[N]	Mx[Nm]	My[Nm]	Mz[Nm]	COPx[cm]	COPy[cm]
0.010	1.657779	-3.333107	672.328488	-7.767164	12.461031	0.218035	-1.853414	-1.155263
0.020	1.980545	-3.131616	673.332106	-7.713124	12.257050	0.209811	-1.820357	-1.145516
0.030	2.300167	-2.943947	673.962784	-7.624592	12.025423	0.207536	-1.784286	-1.131308
0.040	2.609075	-2.780667	673.963958	-7.477263	11.748261	0.215548	-1.743159	-1.109446
0.050	2.893299	-2.646456	673.274801	-7.263749	11.424520	0.235100	-1.696858	-1.078868
0.060	3.133755	-2.538317	672.041216	-6.994952	11.071226	0.264207	-1.647403	-1.040852
0.070	3.310241	-2.446212	670.558386	-6.695593	10.718943	0.298426	-1.598510	-0.998510
0.080	3.406181	-2.356399	669.168772	-6.395815	10.403352	0.332138	-1.554668	-0.955785
0.090	3.412332	-2.256072	668.155724	-6.122339	10.156122	0.359765	-1.520023	-0.916304
0.100	3.328945	-2.137248	667.671406	-5.892500	9.997984	0.376556	-1.497441	-0.882545
0.110	3.166973	-1.998687	667.720086	-5.712801	9.935457	0.378925	-1.487967	-0.855568
0.120	2.948662	-1.845771	668.193364	-5.581370	9.961153	0.364582	-1.490759	-0.835293
0.130	2.706664	-1.688824	668.933888	-5.492159	10.056682	0.332722	-1.503390	-0.821032
0.140	2.480240	-1.540276	669.796426	-5.438542	10.196940	0.284341	-1.522394	-0.811969
0.150	2.308203	-1.411225	670.681686	-5.414998	10.354660	0.222515	-1.543901	-0.807387
0.160	2.220559	-1.308345	671.535198	-5.416945	10.504308	0.152347	-1.564223	-0.806651
0.170	2.232233	-1.232304	672.321969	-5.439640	10.624754	0.080347	-1.580307	-0.809083
0.180	2.341767	-1.178604	672.998142	-5.477124	10.700573	0.013328	-1.589985	-0.813839
0.190	2.535408	-1.140821	673.499088	-5.521782	10.722412	-0.042888	-1.592046	-0.819865
0.200	2.794392	-1.114816	673.751774	-5.564722	10.687019	-0.084531	-1.586195	-0.825931
0.210	3.101847	-1.101580	673.704744	-5.596986	10.597319	-0.110438	-1.572992	-0.830777
0.220	3.446304	-1.106835	673.358838	-5.611345	10.462355	-0.121958	-1.553756	-0.833336
0.230	3.820747	-1.137463	672.780801	-5.604125	10.296451	-0.122223	-1.530432	-0.832979
0.240	4.218394	-1.196885	672.090238	-5.576244	10.117178	-0.114956	-1.505330	-0.829687
0.250	4.627778	-1.282043	671.423981	-5.532884	9.942362	-0.103248	-1.480788	-0.824052
0.260	5.029721	-1.383497	670.893552	-5.481852	9.787088	-0.088824	-1.458814	-0.817097
0.270	5.397619	-1.488138	670.554924	-5.431254	9.661796	-0.072050	-1.440866	-0.809964
0.280	5.701024	-1.582863	670.403457	-5.387274	9.572040	-0.052516	-1.427803	-0.803587
0.290	5.911408	-1.657543	670.394142	-5.352671	9.519541	-0.029710	-1.419992	-0.798436
0.300	6.008657	-1.706458	670.474612	-5.326327	9.503548	-0.003440	-1.417436	-0.794411
0.310	5.986867	-1.728157	670.612704	-5.303956	9.521465	0.026082	-1.419816	-0.790912
0.320	5.857952	-1.724272	670.805223	-5.279866	9.568491	0.058263	-1.426419	-0.787094
0.330	5.651363	-1.698136	671.066462	-5.249327	9.637022	0.092057	-1.436076	-0.782237
0.340	5.408778	-1.654051	671.405985	-5.210733	9.716920	0.125795	-1.447250	-0.776093
0.350	5.174339	-1.597490	671.809423	-5.166652	9.797229	0.157120	-1.458335	-0.769065
0.360	4.983319	-1.535639	672.232965	-5.123305	9.868896	0.183298	-1.468077	-0.762132
0.370	4.853383	-1.477280	672.614416	-5.088842	9.927407	0.201879	-1.475943	-0.756576
0.380	4.781861	-1.431667	672.894868	-5.071271	9.974132	0.211476	-1.482272	-0.753650
0.390	4.749896	-1.407112	673.039622	-5.076833	10.015663	0.212285	-1.488124	-0.754314
0.400	4.731319	-1.410301	673.048103	-5.109171	10.061234	0.206116	-1.494876	-0.759109
0.410	4.702223	-1.446501	672.949000	-5.169212	10.119274	0.195942	-1.503721	-0.768143
0.420	4.647466	-1.519740	672.784475	-5.255470	10.194589	0.185088	-1.515283	-0.781152
0.430	4.562475	-1.631953	672.592064	-5.364501	10.287308	0.176329	-1.529502	-0.797586
0.440	4.451309	-1.781233	672.393127	-5.491414	10.393774	0.171184	-1.545788	-0.816697
0.450	4.323193	-1.960527	672.192621	-5.630469	10.508705	0.169654	-1.563347	-0.837627
0.460	4.189213	-2.158178	671.988291	-5.775684	10.627556	0.170494	-1.581509	-0.859492
0.470	4.059543	-2.360360	671.781889	-5.921308	10.748127	0.171984	-1.599943	-0.881433
0.480	3.941004	-2.554165	671.584409	-6.062055	10.870875	0.172887	-1.618691	-0.902650
0.490	3.835203	-2.729921	671.412320	-6.193199	10.998015	0.173196	-1.638042	-0.922414
0.500	3.737858	-2.882120	671.278620	-6.310592	11.132018	0.174282	-1.658330	-0.940085
0.510	3.639611	-3.008892	671.186218	-6.410577	11.274167	0.178343	-1.679738	-0.955112
0.520	3.528157	-3.110393	671.128688	-6.489852	11.423626	0.187379	-1.702151	-0.967006
0.530	3.391404	-3.186898	671.097225	-6.545486	11.577114	0.202201	-1.725102	-0.975341
0.540	3.221248	-3.237669	671.088113	-6.575264	11.729162	0.221918	-1.747783	-0.979791
0.550	3.017138	-3.261208	671.105244	-6.578177	11.872886	0.244087	-1.769154	-0.980200
0.560	2.788172	-3.256643	671.156014	-6.554705	12.001109	0.265402	-1.788125	-0.976629
0.570	2.552612	-3.225340	671.243185	-6.506625	12.107551	0.282632	-1.803750	-0.969339
0.580	2.334566	-3.171713	671.358332	-6.436453	12.187804	0.293534	-1.815395	-0.958721
0.590	2.158565	-3.102618	671.482173	-6.346865	12.239898	0.297513	-1.822818	-0.945202
0.600	2.043516	-3.025470	671.592408	-6.240456	12.264447	0.295775	-1.826174	-0.929203
0.610	1.997901	-2.945923	671.673428	-6.119833	12.264388	0.290832	-1.825945	-0.911132
0.620	2.017949	-2.866137	671.720625	-5.987731	12.244404	0.285440	-1.822842	-0.891402
0.630	2.089532	-2.784297	671.737159	-5.846752	12.210056	0.281419	-1.817684	-0.870393
0.640	2.192928	-2.695217	671.727653	-5.698730	12.166743	0.278863	-1.811261	-0.848369
0.650	2.308311	-2.591401	671.694675	-5.544156	12.118716	0.276117	-1.804200	-0.825398
0.660	2.419940	-2.464252	671.639887	-5.382167	12.068546	0.270546	-1.796878	-0.801347
0.670	2.518141	-2.305761	671.567512	-5.211293	12.017388	0.259761	-1.789453	-0.775989
0.680	2.599505	-2.111110	671.486905	-5.030681	11.966025	0.242789	-1.782019	-0.749185
0.690	2.666322	-1.881804	671.412675	-4.841189	11.916147	0.220649	-1.774787	-0.721045
0.700	2.725848	-1.627942	671.362795	-4.645728	11.871060	0.196089	-1.768203	-0.691985
0.710	2.789150	-1.368086	671.355894	-4.448588	11.835276	0.172634	-1.762891	-0.662627
0.720	2.868835	-1.126048	671.408221	-4.254033	11.813018	0.153434	-1.759439	-0.633599
0.730	2.975503	-0.925202	671.529687	-4.064897	11.806358	0.140450	-1.758129	-0.605319
0.740	3.113730	-0.781906	671.718293	-3.881964	11.813982	0.134217	-1.758770	-0.577916
0.750	3.279130	-0.700081	671.954184	-3.704542	11.831334	0.134168	-1.760735	-0.551309
0.760	3.457982	-0.668855	672.196815	-3.531889	11.852137	0.139238	-1.763194	-0.525425
0.770	3.629932	-0.664486	672.389198	-3.364625	11.870530	0.148443	-1.765425	-0.500398
0.780	3.772870	-0.656487	672.470837	-3.205208	11.882849	0.161170	-1.767043	-0.476632
0.790	3.868209	-0.616210	672.396989	-3.057108	11.888390	0.177111	-1.768061	-0.454658
0.800	3.905040	-0.525013	672.157933	-2.923093	11.889030	0.195931	-1.768785	-0.434882
0.810	3.882491	-0.379330	671.790131	-2.803624	11.888084	0.216939	-1.769613	-0.417336
0.820	3.810166	-0.191293	671.373036	-2.696263	11.888949	0.238932	-1.770841	-0.401604
0.830	3.706514	0.014879	671.010580	-2.596506	11.893957	0.260261	-1.772544	-0.386955
0.840	3.595158	0.209401	670.802590	-2.499744	11.903601	0.279026	-1.774531	-0.372650
0.850	3.499830	0.364401	670.815397	-2.403514	11.916108	0.293284	-1.776362	-0.358297
0.860	3.439271	0.460332	671.060944	-2.309025	11.927460	0.301257	-1.777403	-0.344086
0.870	3.423749	0.489681	671.490460	-2.221202	11.932009	0.301542	-1.776944	-0.330787
0.880	3.454333	0.457145	672.004181	-2.147167	11.923734	0.293310	-1.774354	-0.319517
0.890	3.524761	0.376506	672.474392	-2.093798	11.897825	0.276485	-1.769261	-0.311357
0.900	3.624543	0.265526	672.776341	-2.065507	11.852015	0.251868	-1.761658	-0.307012
0.910	3.741906	0.140831	672.819732	-2.063186	11.787158	0.221158	-1.751904	-0.306648
0.920	3.866124	0.014361	672.572513	-2.084726	11.706957	0.186849	-1.740624	-0.309963
0.930	3.989243	-0.108177	672.069980	-2.126655	11.617096	0.151985	-1.728555	-0.316434
0.940	4.106683	-0.227207	671.406367	-2.186031	11.524135	0.119734	-1.716417	-0.325590
0.950	4.215869	-0.347966	670.711436	-2.261636	11.434608	0.092760	-1.704848	-0.337200
0.960	4.313119	-0.478109	670.118734	-2.353879	11.354755	0.072523	-1.694439	-0.351263
0.970	4.390803	-0.624462	669.734555	-2.463298	11.290910	0.058802	-1.685878	-0.367802
0.980	4.437229	-0.789617	669.616451	-2.588231	11.250024	0.049759	-1.680070	-0.386524
0.990	4.440092	-0.969480	669.766586	-2.722861	11.239488	0.042610	-1.678120	-0.406539
1.000	4.391888	-1.152840	670.139278	-2.856929	11.265829	0.034645	-1.681118	-0.426319
1.010	4.294196	-1.323420	670.657110	-2.977638	11.332623	0.024154	-1.689779	-0.443988
1.020	4.158315	-1.463982	671.228535	-3.073053	11.438596	0.010907	-1.704128	-0.457825
1.030	4.001842	-1.561219	671.762418	-3.135543	11.576925	-0.003947	-1.723366	-0.466764
1.040	3.842976	-1.609628	672.179264	-3.163878	11.736320	-0.018453	-1.746010	-0.470690
1.050	3.695152	-1.612924	672.421567	-3.163205	11.903712	-0.030615	-1.770275	-0.470420
1.060	3.564159	-1.582481	672.464207	-3.143109	12.067753	-0.039054	-1.794557	-0.467402
1.070	3.448665	-1.533708	672.321807	-3.114670	12.221795	-0.043317	-1.817849	-0.463271
1.080	3.343563	-1.482115	672.047676	-3.087650	12.365106	-0.043818	-1.839915	-0.459439
1.090	3.244236	-1.440755	671.721270	-3.068579	12.501757	-0.041496	-1.861153	-0.456823
1.100	3.149456	-1.419498	671.426517	-3.060030	12.637822	-0.037395	-1.882235	-0.455751
1.110	3.061517	-1.425234	671.228354	-3.060948	12.778258	-0.032321	-1.903712	-0.456022
1.120	2.983974	-1.461590	671.156099	-3.067753	12.924887	-0.026677	-1.925765	-0.457085
1.130	2.918599	-1.527549	671.199625	-3.075760	13.076156	-0.020523	-1.948177	-0.458248
1.140	2.863417	-1.615778	671.319033	-3.080429	13.228489	-0.013808	-1.970522	-0.458862
1.150	2.812814	-1.712359	671.463131	-3.078148	13.378407	-0.006662	-1.992426	-0.458424
1.160	2.759592	-1.799112	671.588753	-3.066534	13.524270	0.000438	-2.013772	-0.456609
1.170	2.697764	-1.858157	671.673069	-3.044466	13.666782	0.006772	-2.034737	-0.453266
1.180	2.624619	-1.876945	671.714607	-3.012048	13.808070	0.011696	-2.055645	-0.448412
1.190	2.541219	-1.851597	671.724338	-2.970502	13.949957	0.014988	-2.076738	-0.442220
1.200	2.451502	-1.787236	671.713320	-2.921961	14.092501	0.016992	-2.097993	-0.435001
1.210	2.360646	-1.695500	671.684781	-2.869174	14.233646	0.018448	-2.119096	-0.427161
1.220	2.273266	-1.590646	671.634727	-2.815217	14.370161	0.020122	-2.139580	-0.419159
1.230	2.191836	-1.485958	671.559119	-2.763315	14.499300	0.022445	-2.159050	-0.411478
1.240	2.115698	-1.391607	671.461427	-2.716760	14.620210	0.025407	-2.177372	-0.404604
1.250	2.040993	-1.314167	671.354776	-2.678763	14.734241	0.028747	-2.194703	-0.399009
1.260	1.961636	-1.257141	671.257539	-2.652041	14.843949	0.032329	-2.211364	-0.395085
1.270	1.871263	-1.221525	671.186286	-2.638156	14.951362	0.036425	-2.227602	-0.393059
1.280	1.765753	-1.205800	671.151334	-2.636893	15.056523	0.041729	-2.243387	-0.392891
1.290	1.645618	-1.205712	671.156813	-2.645963	15.157093	0.049063	-2.258354	-0.394239
1.300	1.517291	-1.214670	671.202919	-2.661189	15.249028	0.058951	-2.271895	-0.396481
1.310	1.392485	-1.225191	671.286922	-2.677086	15.327771	0.071311	-2.283341	-0.398799
1.320	1.285524	-1.230736	671.401958	-2.687694	15.389252	0.085395	-2.292107	-0.400311
1.330	1.209639	-1.226796	671.535670	-2.687572	15.430185	0.099959	-2.297746	-0.400213
1.340	1.173974	-1.210435	671.671272	-2.672764	15.447614	0.113571	-2.299877	-0.397927
1.350	1.182591	-1.178693	671.791601	-2.641396	15.438157	0.124938	-2.298057	-0.393187
1.360	1.235465	-1.127310	671.883900	-2.593598	15.397745	0.133162	-2.291727	-0.386019
1.370	1.330216	-1.051310	671.942138	-2.530796	15.322343	0.137829	-2.280307	-0.376639
1.380	1.463207	-0.947700	671.965587	-2.454773	15.209501	0.138937	-2.263435	-0.365312
1.390	1.629671	-0.818817	671.955636	-2.366910	15.060006	0.136694	-2.241220	-0.352242
1.400	1.823612	-0.673952	671.914179	-2.267864	14.878794	0.131364	-2.214389	-0.337523
1.410	2.038461	-0.527696	671.845198	-2.157772	14.674531	0.123265	-2.184213	-0.321171
1.420	2.268630	-0.395356	671.757925	-2.036999	14.457838	0.112934	-2.152239	-0.303234
1.430	2.511066	-0.287539	671.667879	-1.907260	14.238701	0.101304	-2.119902	-0.283959
1.440	2.765566	-0.206511	671.592827	-1.772620	14.024094	0.089683	-2.088184	-0.263943
1.450	3.033229	-0.146055	671.544409	-1.639781	13.816946	0.079466	-2.057488	-0.244181
1.460	3.313520	-0.094852	671.520293	-1.517308	13.617067	0.071758	-2.027797	-0.225951
1.470	3.601257	-0.041917	671.502905	-1.413922	13.423618	0.067135	-1.999041	-0.210561
1.480	3.885055	0.018060	671.467465	-1.336479	13.237735	0.065601	-1.971463	-0.199039
1.490	4.148130	0.081565	671.396176	-1.288405	13.063875	0.066653	-1.945777	-0.191899
1.500	4.371463	0.136643	671.290924	-1.269205	12.909223	0.069370	-1.923044	-0.189069
1.510	4.538294	0.166883	671.176864	-1.275203	12.781537	0.072571	-1.904347	-0.189995
1.520	4.638315	0.157676	671.094297	-1.301166	12.686499	0.075063	-1.890420	-0.193887
1.530	4.670054	0.102505	671.082952	-1.342152	12.625653	0.075931	-1.881385	-0.199998
1.540	4.640679	0.006725	671.166609	-1.394985	12.595627	0.074778	-1.876677	-0.207845
1.550	4.563646	-0.113255	671.344548	-1.458910	12.588763	0.071834	-1.875157	-0.217312
1.560	4.455668	-0.235830	671.591960	-1.535230	12.594652	0.067962	-1.875343	-0.228596
1.570	4.334631	-0.342960	671.867533	-1.625995	12.601854	0.064584	-1.875646	-0.242011
1.580	4.218896	-0.427660	672.124512	-1.732298	12.599284	0.063525	-1.874546	-0.257735
1.590	4.126692	-0.496366	672.321266	-1.853028	12.577310	0.066756	-1.870729	-0.275616
1.600	4.073769	-0.565026	672.428422	-1.984794	12.528967	0.076045	-1.863242	-0.295168
1.610	4.069052	-0.651193	672.431815	-2.123065	12.451497	0.092572	-1.851711	-0.315729
1.620	4.110262	-0.766350	672.332437	-2.263813	12.347782	0.116579	-1.836559	-0.336710
1.630	4.182375	-0.912121	672.145332	-2.404690	12.226801	0.147143	-1.819071	-0.357763
1.640	4.260631	-1.081350	671.898866	-2.545098	12.102438	0.182112	-1.801229	-0.378792
1.650	4.317247	-1.262334	671.634135	-2.685159	11.990752	0.218245	-1.785310	-0.399795
1.660	4.329052	-1.443253	671.401838	-2.824166	11.906589	0.251593	-1.773392	-0.420637
1.670	4.283151	-1.614603	671.253251	-2.959353	11.860565	0.278106	-1.766928	-0.440870
1.680	4.179267	-1.769155	671.225378	-3.085764	11.857163	0.294396	-1.766495	-0.459721
1.690	4.028986	-1.900532	671.325971	-3.197471	11.894273	0.298433	-1.771758	-0.476292
1.700	3.852698	-2.002104	671.526697	-3.289674	11.964135	0.289869	-1.781632	-0.489880
1.710	3.675014	-2.067323	671.769613	-3.360636	12.055521	0.269814	-1.794592	-0.500266
1.720	3.519551	-2.091397	671.985405	-3.412491	12.156690	0.240198	-1.809071	-0.507822
1.730	3.404243	-2.073230	672.116059	-3.450584	12.258416	0.203096	-1.823854	-0.513391
1.740	3.338218	-2.016586	672.132942	-3.481706	12.356130	0.160396	-1.838346	-0.518009
1.750	3.320918	-1.930123	672.043616	-3.512031	12.450479	0.113909	-1.852630	-0.522590
1.760	3.343505	-1.826468	671.885015	-3.545579	12.546162	0.065729	-1.867308	-0.527706
1.770	3.391961	-1.720669	671.705597	-3.583638	12.649552	0.018485	-1.883199	-0.533513
1.780	3.450538	-1.628064	671.543869	-3.625040	12.766037	-0.024759	-1.900998	-0.539807
1.790	3.504178	-1.561696	671.413051	-3.666912	12.897997	-0.061022	-1.921023	-0.546148
1.800	3.539522	-1.529676	671.299202	-3.705571	13.044144	-0.088085	-1.943119	-0.552000
1.810	3.545331	-1.533176	671.173595	-3.737413	13.200323	-0.105008	-1.966752	-0.556847
1.820	3.513549	-1.565778	671.013004	-3.759746	13.361223	-0.112246	-1.991202	-0.560309
1.830	3.441292	-1.614719	670.817578	-3.771530	13.521953	-0.111373	-2.015742	-0.562229
1.840	3.332769	-1.664308	670.617022	-3.773955	13.678762	-0.104573	-2.039728	-0.562759
1.850	3.199472	-1.701067	670.461947	-3.770570	13.828961	-0.094068	-2.062602	-0.562384
1.860	3.057729	-1.718951	670.405102	-3.766561	13.970650	-0.081669	-2.083912	-0.561834
1.870	2.924145	-1.722340	670.481732	-3.767112	14.102879	-0.068532	-2.103395	-0.561852
1.880	2.810750	-1.724921	670.696741	-3.775474	14.226204	-0.055155	-2.121108	-0.562918
1.890	2.721963	-1.744275	671.021652	-3.791803	14.343130	-0.041569	-2.137506	-0.565079
1.900	2.654743	-1.794106	671.400775	-3.813528	14.457753	-0.027632	-2.153372	-0.567996
1.910	2.601688	-1.877474	671.764565	-3.837045	14.574495	-0.013302	-2.169584	-0.571189
1.920	2.555400	-1.984201	672.046806	-3.859680	14.696560	0.001236	-2.186836	-0.574317
1.930	2.511627	-2.093780	672.200807	-3.880611	14.825039	0.015618	-2.205448	-0.577299
1.940	2.469158	-2.182512	672.209864	-3.900141	14.959213	0.029466	-2.225378	-0.580197
1.950	2.426129	-2.231667	672.089498	-3.917885	15.097836	0.042498	-2.246403	-0.582941
1.960	2.374854	-2.233249	671.882007	-3.931266	15.240681	0.054478	-2.268357	-0.585113
1.970	2.298787	-2.191240	671.645697	-3.935489	15.389559	0.065040	-2.291321	-0.585947
1.980	2.174560	-2.118405	671.441372	-3.925054	15.548196	0.073589	-2.315645	-0.584571
1.990	1.979347	-2.030624	671.318045	-3.895840	15.720694	0.079361	-2.341766	-0.580327
2.000	1.700771	-1.941441	671.300291	-3.846557	15.908855	0.081657	-2.369857	-0.573001
2.010	1.345182	-1.858761	671.381261	-3.779032	16.109327	0.080131	-2.399431	-0.562874
2.020	0.940722	-1.784410	671.525589	-3.697554	16.312044	0.075014	-2.429102	-0.550620
2.030	0.533724	-1.716083	671.682837	-3.607838	16.501065	0.067157	-2.456675	-0.537134
2.040	0.179232	-1.650425	671.806122	-3.516031	16.657891	0.057873	-2.479568	-0.523370
2.050	-0.071579	-1.585540	671.867261	-3.427988	16.766111	0.048626	-2.495450	-0.510218
2.060	-0.183250	-1.521777	671.862393	-3.348882	16.815598	0.040694	-2.502834	-0.498448
2.070	-0.143662	-1.460893	671.808239	-3.283028	16.804832	0.034914	-2.501433	-0.488685
2.080	0.034309	-1.404748	671.733261	-3.233616	16.740810	0.031521	-2.492181	-0.481384
2.090	0.316727	-1.354570	671.667642	-3.202148	16.636814	0.030060	-2.476941	-0.476746
2.100	0.656563	-1.310989	671.634124	-3.187744	16.508761	0.029395	-2.457999	-0.474625
2.110	1.003799	-1.274441	671.641043	-3.186946	16.371131	0.027829	-2.437482	-0.474501
2.120	1.315582	-1.245552	671.679578	-3.194554	16.233594	0.023410	-2.416866	-0.475607
2.130	1.564129	-1.225271	671.727003	-3.205536	16.099367	0.014457	-2.396713	-0.477208
2.140	1.740329	-1.214864	671.755496	-3.217244	15.965859	0.000217	-2.376737	-0.478931
2.150	1.852184	-1.216038	671.743318	-3.230782	15.827332	-0.018616	-2.356158	-0.480955
2.160	1.919153	-1.231394	671.684097	-3.250707	15.678430	-0.039813	-2.334197	-0.483964
2.170	1.964868	-1.264783	671.591059	-3.283081	15.517089	-0.060127	-2.310497	-0.488851
2.180	2.010794	-1.320753	671.494812	-3.332729	15.345779	-0.076213	-2.285316	-0.496315
2.190	2.072221	-1.402633	671.434894	-3.400857	15.170974	-0.085584	-2.259485	-0.506506
2.200	2.156726	-1.509820	671.447267	-3.483956	15.001422	-0.087206	-2.234192	-0.518873
2.210	2.264530	-1.635627	671.551969	-3.574346	14.845894	-0.081529	-2.210684	-0.532252
2.220	2.390125	-1.767067	671.745536	-3.662065	14.711001	-0.070077	-2.189966	-0.545157
2.230	2.524675	-1.886932	672.000542	-3.737371	14.599604	-0.054866	-2.172558	-0.556156
2.240	2.658641	-1.977464	672.271883	-3.792977	14.510279	-0.037970	-2.158394	-0.564203
2.250	2.783948	-2.024427	672.508033	-3.825324	14.437979	-0.021324	-2.146886	-0.568815
2.260	2.895116	-2.020598	672.664668	-3.834716	14.375564	-0.006680	-2.137107	-0.570078
2.270	2.989362	-1.967994	672.716839	-3.824674	14.315527	0.004469	-2.128017	-0.568541
2.280	3.066242	-1.878258	672.665690	-3.801101	14.251269	0.011084	-2.118626	-0.565080
2.290	3.127500	-1.770918	672.537406	-3.771482	14.177594	0.012859	-2.108075	-0.560784
2.300	3.177290	-1.669680	672.374672	-3.743938	14.090544	0.010414	-2.095639	-0.556823
2.310	3.222414	-1.597405	672.222939	-3.725907	13.987047	0.005263	-2.080715	-0.554267
2.320	3.271842	-1.570825	672.115686	-3.722598	13.864850	-0.000482	-2.062867	-0.553863
2.330	3.334889	-1.596401	672.064218	-3.735713	13.722970	-0.004578	-2.041914	-0.555857
2.340	3.418171	-1.668643	672.056839	-3.763069	13.562456	-0.005141	-2.018052	-0.559933
