Time[s]	Fx[N]	Fy[N]	Fz[N]	Mx[Nm]	My[Nm]	Mz[Nm]	COPx[cm]	COPy[cm]
0.010	4.291753	2.821488	724.750414	13.936933	6.719726	-0.393766	-0.927178	1.922998
0.020	4.404619	2.825848	724.587972	13.949090	6.705793	-0.406723	-0.925463	1.925107
0.030	4.507128	2.826191	724.452585	13.959336	6.691173	-0.418858	-0.923618	1.926881
0.040	4.591751	2.819135	724.364404	13.965517	6.675869	-0.429831	-0.921617	1.927968
0.050	4.654851	2.802336	724.330544	13.965221	6.661269	-0.439913	-0.919645	1.928018
0.060	4.696321	2.775366	724.344841	13.956372	6.650127	-0.449835	-0.918088	1.926758
0.070	4.717858	2.740065	724.391376	13.938167	6.646142	-0.460381	-0.917479	1.924121
0.080	4.721006	2.700028	724.449459	13.911851	6.653242	-0.471943	-0.918386	1.920334
0.090	4.706199	2.659504	724.498681	13.880619	6.674578	-0.484274	-0.921269	1.915893
0.100	4.673210	2.622215	724.523811	13.848337	6.711473	-0.496522	-0.926329	1.911371
0.110	4.622429	2.590383	724.519252	13.817533	6.762696	-0.507517	-0.933405	1.907131
0.120	4.555956	2.564117	724.491759	13.787751	6.824525	-0.516171	-0.941974	1.903093
0.130	4.477891	2.541379	724.459734	13.755217	6.891706	-0.521840	-0.951289	1.898686
0.140	4.393908	2.518682	724.448126	13.714057	6.958969	-0.524536	-0.960589	1.893035
0.150	4.310515	2.492290	724.479956	13.658483	7.022363	-0.524936	-0.969297	1.885281
0.160	4.234274	2.459268	724.567715	13.584949	7.079645	-0.524158	-0.977085	1.874904
0.170	4.170998	2.417712	724.708382	13.493312	7.129531	-0.523362	-0.983779	1.861895
0.180	4.124960	2.366172	724.883977	13.386651	7.170384	-0.523286	-0.989177	1.846730
0.190	4.098273	2.303046	725.067069	13.270025	7.199348	-0.523931	-0.992922	1.830179
0.200	4.090650	2.226792	725.228923	13.148855	7.212586	-0.524562	-0.994525	1.813063
0.210	4.099703	2.136875	725.347464	13.027465	7.206523	-0.524069	-0.993527	1.796031
0.220	4.121861	2.034446	725.412718	12.908033	7.179430	-0.521463	-0.989703	1.779405
0.230	4.153807	1.921841	725.428507	12.790093	7.132528	-0.516236	-0.983216	1.763109
0.240	4.193923	1.801143	725.409900	12.670649	7.070081	-0.508442	-0.974632	1.746688
0.250	4.242935	1.673000	725.376529	12.544900	6.998464	-0.498584	-0.964804	1.729433
0.260	4.303173	1.536855	725.343388	12.407352	6.924663	-0.487446	-0.954674	1.710549
0.270	4.376580	1.392512	725.312635	12.253034	6.854798	-0.475918	-0.945082	1.689345
0.280	4.462393	1.241763	725.270271	12.078697	6.793156	-0.464832	-0.936638	1.665406
0.290	4.555753	1.088668	725.190022	11.883887	6.742017	-0.454861	-0.929690	1.638727
0.300	4.648010	0.938123	725.043896	11.671641	6.702267	-0.446546	-0.924395	1.609784
0.310	4.728451	0.793609	724.816125	11.448510	6.674509	-0.440438	-0.920855	1.579505
0.320	4.786468	0.655617	724.515266	11.223771	6.660046	-0.437195	-0.919242	1.549142
0.330	4.813307	0.521944	724.178611	11.007962	6.661184	-0.437465	-0.919826	1.520062
0.340	4.803210	0.390025	723.865059	10.811072	6.680636	-0.441490	-0.922912	1.493520
0.350	4.754188	0.260177	723.637730	10.640771	6.720352	-0.448634	-0.928690	1.470456
0.360	4.668589	0.137869	723.543487	10.501120	6.780416	-0.457162	-0.937112	1.451346
0.370	4.553334	0.033477	723.598606	10.392157	6.858526	-0.464537	-0.947836	1.436177
0.380	4.419599	-0.040681	723.786184	10.310478	6.950196	-0.468137	-0.960255	1.424520
0.390	4.281772	-0.074722	724.064429	10.250561	7.049434	-0.466051	-0.973592	1.415697
0.400	4.155581	-0.065041	724.380184	10.206310	7.149510	-0.457635	-0.986983	1.408971
0.410	4.055445	-0.016089	724.681615	10.172395	7.243646	-0.443699	-0.999563	1.403705
0.420	3.991495	0.060384	724.926884	10.145105	7.325664	-0.426331	-1.010538	1.399466
0.430	3.967185	0.148142	725.089028	10.122583	7.390654	-0.408415	-1.019275	1.396047
0.440	3.978455	0.230299	725.158411	10.104420	7.435548	-0.392947	-1.025369	1.393409
0.450	4.014933	0.293076	725.143072	10.090903	7.459434	-0.382309	-1.028684	1.391574
0.460	4.062828	0.328513	725.065987	10.082313	7.463545	-0.377673	-1.029361	1.390537
0.470	4.108590	0.335611	724.958864	10.078576	7.450966	-0.378717	-1.027778	1.390227
0.480	4.142174	0.319974	724.854090	10.079251	7.426171	-0.383780	-1.024506	1.390521
0.490	4.158973	0.292294	724.777780	10.083669	7.394439	-0.390456	-1.020235	1.391277
0.500	4.160087	0.266036	724.745877	10.091114	7.361086	-0.396404	-1.015678	1.392366
0.510	4.151240	0.254528	724.763369	10.101010	7.330479	-0.400065	-1.011431	1.393698
0.520	4.140985	0.267866	724.825760	10.113053	7.304921	-0.401015	-1.007818	1.395239
0.530	4.138731	0.310299	724.922101	10.127203	7.283739	-0.399838	-1.004762	1.397006
0.540	4.152932	0.378807	725.038971	10.143523	7.263111	-0.397616	-1.001755	1.399031
0.550	4.189761	0.463515	725.163882	10.161973	7.236956	-0.395311	-0.997975	1.401335
0.560	4.252447	0.550153	725.285951	10.182350	7.198748	-0.393356	-0.992539	1.403908
0.570	4.341204	0.624087	725.393220	10.204443	7.143581	-0.391633	-0.984787	1.406746
0.580	4.453511	0.674623	725.469332	10.228260	7.069724	-0.389807	-0.974504	1.409882
0.590	4.584573	0.698015	725.493967	10.254079	6.979137	-0.387759	-0.961984	1.413393
0.600	4.728026	0.698205	725.448951	10.282219	6.876857	-0.385872	-0.947945	1.417359
0.610	4.876924	0.685195	725.327436	10.312689	6.769561	-0.384979	-0.933311	1.421798
0.620	5.024844	0.671608	725.141133	10.344918	6.663827	-0.386010	-0.918970	1.426608
0.630	5.166765	0.668578	724.921810	10.377691	6.564675	-0.389545	-0.905570	1.431560
0.640	5.299375	0.682382	724.715487	10.409280	6.474873	-0.395482	-0.893437	1.436326
0.650	5.420751	0.712944	724.569878	10.437728	6.395172	-0.403015	-0.882616	1.440541
0.660	5.529721	0.754427	724.518484	10.461238	6.325204	-0.410918	-0.873022	1.443888
0.670	5.625409	0.797255	724.567896	10.478547	6.264486	-0.418045	-0.864582	1.446179
0.680	5.707184	0.830757	724.695157	10.489143	6.213023	-0.423768	-0.857329	1.447387
0.690	5.774819	0.845899	724.857677	10.493238	6.171404	-0.428148	-0.851395	1.447627
0.700	5.828454	0.837729	725.011372	10.491562	6.140614	-0.431757	-0.846968	1.447089
0.710	5.868232	0.806978	725.127793	10.485140	6.121821	-0.435271	-0.844240	1.445971
0.720	5.893716	0.760051	725.201508	10.475204	6.116249	-0.439058	-0.843386	1.444454
0.730	5.903387	0.707156	725.244773	10.463250	6.125010	-0.442969	-0.844544	1.442720
0.740	5.894636	0.659246	725.274003	10.451103	6.148788	-0.446433	-0.847788	1.440987
0.750	5.864529	0.625193	725.296471	10.440888	6.187444	-0.448781	-0.853092	1.439534
0.760	5.811219	0.610342	725.304153	10.434893	6.239853	-0.449646	-0.860308	1.438692
0.770	5.735348	0.616557	725.276836	10.435353	6.304164	-0.449204	-0.869208	1.438810
0.780	5.640721	0.642996	725.192049	10.444101	6.378424	-0.448121	-0.879550	1.440184
0.790	5.533860	0.686858	725.036833	10.462081	6.461169	-0.447214	-0.891150	1.442972
0.800	5.422536	0.743951	724.816269	10.488860	6.551589	-0.446964	-0.903896	1.447106
0.810	5.313901	0.809382	724.555751	10.522443	6.649076	-0.447223	-0.917676	1.452261
0.820	5.213035	0.878419	724.296976	10.559647	6.752460	-0.447316	-0.932278	1.457917
0.830	5.122571	0.947228	724.089565	10.596970	6.859504	-0.446511	-0.947328	1.463489
0.840	5.043349	1.013192	723.980552	10.631581	6.967152	-0.444554	-0.962340	1.468490
0.850	4.975421	1.074839	724.003801	10.662061	7.072433	-0.441924	-0.976850	1.472653
0.860	4.918606	1.131645	724.171456	10.688702	7.173414	-0.439673	-0.990568	1.475990
0.870	4.872342	1.183819	724.469338	10.713323	7.269533	-0.438935	-1.003429	1.478782
0.880	4.835238	1.231941	724.857498	10.738585	7.361111	-0.440450	-1.015525	1.481475
0.890	4.804937	1.276258	725.276372	10.766903	7.448469	-0.444333	-1.026984	1.484524
0.900	4.778555	1.315839	725.657972	10.799273	7.531307	-0.450133	-1.037859	1.488204
0.910	4.753484	1.348196	725.939904	10.834576	7.608749	-0.456995	-1.048124	1.492489
0.920	4.728115	1.370033	726.078401	10.869745	7.679995	-0.463838	-1.057736	1.497048
0.930	4.702100	1.379049	726.056858	10.900745	7.745115	-0.469550	-1.066737	1.501362
0.940	4.675911	1.375933	725.888419	10.923895	7.805594	-0.473244	-1.075316	1.504900
0.950	4.649683	1.365336	725.612675	10.937012	7.864433	-0.474534	-1.083833	1.507280
0.960	4.621817	1.355073	725.286598	10.939965	7.925821	-0.473729	-1.092785	1.508364
0.970	4.588345	1.353675	724.970660	10.934510	7.994497	-0.471826	-1.102734	1.508269
0.980	4.543921	1.367219	724.713491	10.923538	8.074896	-0.470237	-1.114219	1.507291
0.990	4.484324	1.396721	724.540328	10.910148	8.170248	-0.470306	-1.127646	1.505803
1.000	4.409209	1.437354	724.449750	10.896952	8.281805	-0.472807	-1.143186	1.504170
1.010	4.323519	1.480030	724.420049	10.885828	8.408434	-0.477626	-1.160712	1.502696
1.020	4.236595	1.514855	724.422405	10.877986	8.546765	-0.483762	-1.179804	1.501608
1.030	4.159205	1.534940	724.434441	10.874109	8.692036	-0.489613	-1.199838	1.501048
1.040	4.099704	1.538818	724.447128	10.874401	8.839566	-0.493455	-1.220181	1.501062
1.050	4.060936	1.530324	724.461807	10.878578	8.986455	-0.493943	-1.240432	1.501608
1.060	4.039097	1.516132	724.480595	10.885865	9.132805	-0.490475	-1.260600	1.502575
1.070	4.024855	1.502289	724.498286	10.894969	9.281851	-0.483337	-1.281142	1.503795
1.080	4.006022	1.491395	724.502655	10.904025	9.438819	-0.473552	-1.302800	1.505036
1.090	3.970575	1.481547	724.483063	10.910658	9.608929	-0.462547	-1.326315	1.505992
1.100	3.909003	1.467423	724.440279	10.912308	9.795337	-0.451758	-1.352125	1.506309
1.110	3.815462	1.442988	724.389492	10.906884	9.997875	-0.442347	-1.380179	1.505666
1.120	3.687719	1.404607	724.353849	10.893540	10.213148	-0.435073	-1.409967	1.503898
1.130	3.526199	1.353082	724.352467	10.873154	10.435869	-0.430257	-1.440717	1.501086
1.140	3.332645	1.293761	724.390107	10.848099	10.660761	-0.427778	-1.471688	1.497549
1.150	3.109094	1.234858	724.454464	10.821272	10.884068	-0.427086	-1.502381	1.493713
1.160	2.857916	1.184945	724.522587	10.794914	11.104022	-0.427288	-1.532598	1.489935
1.170	2.583119	1.150761	724.573022	10.770009	11.320103	-0.427372	-1.562314	1.486394
1.180	2.292180	1.136069	724.597488	10.746742	11.531563	-0.426549	-1.591444	1.483133
1.190	1.997009	1.141632	724.606198	10.725668	11.735974	-0.424592	-1.619635	1.480207
1.200	1.712937	1.165765	724.623711	10.708624	11.928485	-0.421992	-1.646163	1.477819
1.210	1.455847	1.204916	724.676604	10.698549	12.102057	-0.419846	-1.669994	1.476320
1.220	1.238787	1.254138	724.778842	10.698192	12.248438	-0.419521	-1.689955	1.476063
1.230	1.069767	1.307643	724.922778	10.708543	12.359488	-0.422274	-1.704939	1.477198
1.240	0.951631	1.359580	725.080670	10.727964	12.428513	-0.428932	-1.714087	1.479555
1.250	0.883602	1.404925	725.215288	10.752565	12.451363	-0.439679	-1.716920	1.482672
1.260	0.863244	1.440322	725.293290	10.777688	12.427091	-0.453979	-1.713388	1.485977
1.270	0.887715	1.464746	725.294908	10.799873	12.357999	-0.470681	-1.703858	1.489032
1.280	0.954019	1.479690	725.217135	10.818349	12.249049	-0.488309	-1.689018	1.491739
1.290	1.058738	1.488537	725.071826	10.835345	12.106792	-0.505462	-1.669737	1.494382
1.300	1.197837	1.495286	724.881764	10.855119	11.938070	-0.521195	-1.646899	1.497502
1.310	1.366841	1.503433	724.676574	10.882204	11.748808	-0.535259	-1.621248	1.501664
1.320	1.561244	1.515736	724.488431	10.919513	11.543123	-0.548075	-1.593279	1.507203
1.330	1.776739	1.534866	724.347187	10.966920	11.322934	-0.560437	-1.563192	1.514042
1.340	2.009036	1.564294	724.275601	11.020859	11.088166	-0.573030	-1.530932	1.521639
1.350	2.253550	1.608553	724.285847	11.075275	10.837518	-0.586015	-1.496304	1.529130
1.360	2.505504	1.672251	724.377783	11.123714	10.569622	-0.598913	-1.459131	1.535623
1.370	2.760780	1.757905	724.538934	11.161682	10.284248	-0.610861	-1.419420	1.540522
1.380	3.017294	1.863467	724.746228	11.188212	9.983223	-0.621076	-1.377478	1.543742
1.390	3.276112	1.980839	724.969437	11.205934	9.670711	-0.629221	-1.333947	1.545711
1.400	3.541439	2.096433	725.175675	11.219670	9.352730	-0.635463	-1.289719	1.547166
1.410	3.819036	2.194021	725.334205	11.234281	9.035949	-0.640244	-1.245764	1.548842
1.420	4.113470	2.259140	725.421351	11.252785	8.726163	-0.643954	-1.202910	1.551207
1.430	4.425202	2.283531	725.425363	11.275547	8.426954	-0.646686	-1.161657	1.554336
1.440	4.748728	2.267884	725.350172	11.300672	8.139136	-0.648160	-1.122098	1.557961
1.450	5.072710	2.221712	725.216181	11.325101	7.861298	-0.647821	-1.083994	1.561617
1.460	5.382292	2.160407	725.056966	11.345776	7.591227	-0.645086	-1.046984	1.564812
1.470	5.662884	2.100604	724.912388	11.360414	7.327531	-0.639657	-1.010816	1.567143
1.480	5.904012	2.055524	724.819573	11.367809	7.070666	-0.631772	-0.975507	1.568364
1.490	6.101702	2.031676	724.803423	11.367703	6.823008	-0.622256	-0.941360	1.568384
1.500	6.258616	2.027693	724.869006	11.360395	6.588073	-0.612303	-0.908864	1.567234
1.510	6.382220	2.035539	724.999235	11.346234	6.369337	-0.603092	-0.878530	1.564999
1.520	6.482190	2.043731	725.160334	11.325277	6.169092	-0.595416	-0.850721	1.561762
1.530	6.568481	2.041385	725.313653	11.297310	5.987649	-0.589503	-0.825525	1.557576
1.540	6.650686	2.021465	725.428233	11.262292	5.823064	-0.585095	-0.802707	1.552503
1.550	6.738178	1.982082	725.487795	11.220981	5.671436	-0.581711	-0.781741	1.546681
1.560	6.839861	1.925861	725.489573	11.175264	5.527730	-0.578920	-0.761931	1.540376
1.570	6.962834	1.858208	725.437683	11.127781	5.386975	-0.576454	-0.742583	1.533940
1.580	7.110295	1.785368	725.336791	11.080903	5.245627	-0.574100	-0.723199	1.527691
1.590	7.279801	1.712703	725.190629	11.035654	5.102786	-0.571447	-0.703648	1.521759
1.600	7.462931	1.643458	725.005480	10.991269	4.960952	-0.567683	-0.684264	1.516026
1.610	7.646493	1.578377	724.794854	10.945660	4.826083	-0.561623	-0.665855	1.510174
1.620	7.814723	1.516464	724.581101	10.896566	4.706901	-0.552084	-0.649603	1.503844
1.630	7.951773	1.456702	724.392135	10.842839	4.613536	-0.538450	-0.636884	1.496819
1.640	8.044147	1.399767	724.254576	10.785275	4.555667	-0.521123	-0.629015	1.489155
1.650	8.082962	1.348626	724.186591	10.726595	4.540443	-0.501566	-0.626971	1.481192
1.660	8.065732	1.307585	724.193619	10.670473	4.570666	-0.481824	-0.631139	1.473428
1.670	7.997040	1.280289	724.267895	10.620013	4.643859	-0.463777	-0.641180	1.466310
1.680	7.887517	1.267682	724.390476	10.576259	4.752701	-0.448491	-0.656097	1.460022
1.690	7.751244	1.266806	724.534508	10.537365	4.886842	-0.436005	-0.674480	1.454364
1.700	7.602582	1.270991	724.670000	10.498785	5.035534	-0.425617	-0.694873	1.448768
1.710	7.453645	1.271426	724.770356	10.454516	5.190206	-0.416438	-0.716117	1.442459
1.720	7.312948	1.259542	724.819107	10.399091	5.346188	-0.407878	-0.737589	1.434715
1.730	7.184835	1.229277	724.814167	10.329560	5.503130	-0.399833	-0.759247	1.425132
1.740	7.069072	1.178520	724.767832	10.246553	5.664181	-0.392572	-0.781517	1.413770
1.750	6.960599	1.109479	724.702510	10.153848	5.834401	-0.386520	-0.805075	1.401106
1.760	6.850043	1.028067	724.643493	10.056761	6.019057	-0.382091	-0.830623	1.387822
1.770	6.725520	0.942495	724.611087	9.960296	6.222340	-0.379631	-0.858714	1.374571
1.780	6.575580	0.861182	724.614882	9.867971	6.446723	-0.379394	-0.889676	1.361823
1.790	6.392403	0.790372	724.652070	9.781633	6.692901	-0.381463	-0.923602	1.349839
1.800	6.173904	0.732376	724.709880	9.701973	6.960122	-0.385586	-0.960401	1.338739
1.810	5.923559	0.685501	724.770569	9.629251	7.246757	-0.391022	-0.999869	1.328593
1.820	5.647791	0.645949	724.816886	9.563886	7.550935	-0.396530	-1.041771	1.319490
1.830	5.352387	0.610753	724.836164	9.506800	7.871003	-0.400650	-1.085901	1.311579
1.840	5.040280	0.580109	724.822041	9.459496	8.205574	-0.402268	-1.132081	1.305078
1.850	4.712264	0.557736	724.773836	9.423738	8.553173	-0.401262	-1.180116	1.300232
1.860	4.370027	0.549053	724.694624	9.400704	8.911726	-0.398823	-1.229721	1.297195
1.870	4.019156	0.558108	724.589522	9.389788	9.278194	-0.397183	-1.280476	1.295877
1.880	3.669789	0.584942	724.465074	9.387650	9.648526	-0.398782	-1.331814	1.295804
1.890	3.334292	0.624761	724.329495	9.388195	10.017978	-0.405247	-1.383069	1.296122
1.900	3.023316	0.669297	724.193191	9.383823	10.381745	-0.416650	-1.433560	1.295762
1.910	2.742529	0.709541	724.069210	9.367569	10.735733	-0.431368	-1.482694	1.293739
1.920	2.491659	0.738368	723.973224	9.335299	11.077108	-0.446650	-1.530044	1.289454
1.930	2.265863	0.751866	723.922570	9.286953	11.404314	-0.459639	-1.575350	1.282865
1.940	2.058115	0.749207	723.934236	9.226247	11.716451	-0.468421	-1.618441	1.274459
1.950	1.861318	0.731622	724.021837	9.158965	12.012287	-0.472655	-1.659106	1.265012
1.960	1.669821	0.701149	724.191386	9.090668	12.289390	-0.473542	-1.696981	1.255285
1.970	1.480707	0.659463	724.436152	9.024873	12.543887	-0.473198	-1.731538	1.245779
1.980	1.294983	0.607080	724.732503	8.962423	12.771029	-0.473775	-1.762171	1.236653
1.990	1.118096	0.543366	725.039835	8.902202	12.966360	-0.476702	-1.788365	1.227822
2.000	0.958986	0.467691	725.306782	8.842727	13.126983	-0.482357	-1.809853	1.219171
2.010	0.827628	0.381485	725.483250	8.783871	13.252352	-0.490200	-1.826693	1.210761
2.020	0.731970	0.290198	725.534835	8.727924	13.344252	-0.499226	-1.839230	1.202964
2.030	0.675660	0.203925	725.454214	8.679539	13.406025	-0.508477	-1.847949	1.196428
2.040	0.657463	0.136001	725.264539	8.644571	13.441451	-0.517365	-1.853317	1.191920
2.050	0.672153	0.099840	725.013089	8.628335	13.453762	-0.525717	-1.855658	1.190094
2.060	0.711900	0.105049	724.757694	8.634051	13.445146	-0.533553	-1.855123	1.191302
2.070	0.767492	0.154153	724.551021	8.662166	13.416726	-0.540829	-1.851730	1.195522
2.080	0.829627	0.241145	724.427821	8.710711	13.368810	-0.547345	-1.845430	1.202426
2.090	0.890739	0.352590	724.398646	8.776357	13.301162	-0.552877	-1.836166	1.211537
2.100	0.947115	0.471291	724.451291	8.855568	13.213162	-0.557379	-1.823885	1.222383
2.110	1.000312	0.581519	724.558613	8.945338	13.103805	-0.561033	-1.808522	1.234591
2.120	1.056998	0.673938	724.689125	9.043333	12.971627	-0.564129	-1.789957	1.247891
2.130	1.127182	0.748073	724.815848	9.147604	12.814708	-0.566924	-1.767995	1.262059
2.140	1.221665	0.811132	724.920423	9.256191	12.630902	-0.569621	-1.742385	1.276856
2.150	1.349806	0.873766	724.992984	9.366936	12.418354	-0.572479	-1.712893	1.292004
2.160	1.518216	0.944818	725.030770	9.477510	12.176253	-0.575925	-1.679412	1.307187
2.170	1.730297	1.027366	725.037659	9.585476	11.905655	-0.580536	-1.642074	1.322066
2.180	1.986077	1.117557	725.024142	9.688239	11.610095	-0.586888	-1.601339	1.336264
2.190	2.281917	1.206402	725.006020	9.782894	11.295684	-0.595343	-1.558012	1.349353
2.200	2.610122	1.283434	725.001067	9.866202	10.970502	-0.605908	-1.513171	1.360853
2.210	2.958986	1.340446	725.024391	9.934886	10.643410	-0.618237	-1.468007	1.370283
2.220	3.313920	1.373818	725.083801	9.986341	10.322591	-0.631736	-1.423641	1.377267
2.230	3.659850	1.384950	725.176433	10.019613	10.014256	-0.645729	-1.380941	1.381679
2.240	3.984185	1.379368	725.288127	10.036217	9.721828	-0.659603	-1.340409	1.383756
2.250	4.279103	1.365350	725.396793	10.040332	9.445799	-0.672874	-1.302156	1.384116
2.260	4.542238	1.352474	725.479095	10.038166	9.184276	-0.685096	-1.265960	1.383660
2.270	4.775704	1.350048	725.517414	10.036728	8.934020	-0.695677	-1.231400	1.383389
2.280	4.984107	1.365257	725.503932	10.042456	8.691630	-0.703745	-1.198013	1.384204
2.290	5.172337	1.401157	725.441043	10.060122	8.454488	-0.708207	-1.165427	1.386759
2.300	5.343834	1.455104	725.339541	10.092163	8.221190	-0.708023	-1.133426	1.391371
2.310	5.499926	1.518626	725.216189	10.138523	7.991494	-0.702568	-1.101946	1.398000
2.320	5.640472	1.579447	725.090831	10.196984	7.766005	-0.691914	-1.071039	1.406304
2.330	5.765358	1.625368	724.982338	10.263826	7.545885	-0.676920	-1.040837	1.415735
2.340	5.875938	1.648435	724.903372	10.334520	7.332744	-0.659109	-1.011548	1.425641
2.350	5.975634	1.647318	724.855549	10.404207	7.128700	-0.640393	-0.983465	1.435349
2.360	6.069451	1.626773	724.827797	10.467904	6.936463	-0.622735	-0.956981	1.444192
2.370	6.162691	1.594837	724.800183	10.520637	6.759207	-0.607764	-0.932561	1.451522
2.380	6.259283	1.559554	724.752724	10.557735	6.600062	-0.596406	-0.910664	1.456736
2.390	6.360278	1.526702	724.675131	10.575512	6.461361	-0.588607	-0.891622	1.459345
