Time[s]	Fx[N]	Fy[N]	Fz[N]	Mx[Nm]	My[Nm]	Mz[Nm]	COPx[cm]	COPy[cm]
0.010	1.639793	-5.852704	524.816152	-17.313445	6.208732	-0.112093	-1.183030	-3.298954
0.020	1.754278	-5.318739	523.463512	-16.668810	6.178654	-0.118442	-1.180341	-3.184331
0.030	1.822518	-4.797292	522.086486	-16.034485	6.178583	-0.123050	-1.183440	-3.071232
0.040	1.817244	-4.301996	520.702725	-15.418491	6.230394	-0.124871	-1.196536	-2.961093
0.050	1.738677	-3.847691	519.402401	-14.825990	6.343336	-0.123629	-1.221276	-2.854432
0.060	1.615655	-3.449405	518.343153	-14.259352	6.512578	-0.119601	-1.256422	-2.750948
0.070	1.495953	-3.119775	517.713763	-13.719043	6.721524	-0.113150	-1.298309	-2.649928
0.080	1.429025	-2.865739	517.680487	-13.204852	6.946883	-0.104321	-1.341925	-2.550773
0.090	1.447792	-2.685630	518.338050	-12.716674	7.164634	-0.092813	-1.382232	-2.453355
0.100	1.556247	-2.567497	519.683819	-12.254290	7.355044	-0.078372	-1.415292	-2.358028
0.110	1.727033	-2.489228	521.621985	-11.816300	7.505428	-0.061361	-1.438863	-2.265299
0.120	1.909449	-2.420986	523.991989	-11.398857	7.610268	-0.043169	-1.452363	-2.175388
0.130	2.045410	-2.329963	526.607583	-10.994928	7.669052	-0.026242	-1.456312	-2.087879
0.140	2.088868	-2.186415	529.292010	-10.594405	7.682796	-0.013735	-1.451523	-2.001618
0.150	2.023089	-1.969090	531.899465	-10.185116	7.650514	-0.008921	-1.438338	-1.914857
0.160	1.870133	-1.668373	534.319810	-9.754571	7.566954	-0.014514	-1.416185	-1.825605
0.170	1.688568	-1.286511	536.469368	-9.292301	7.422518	-0.032025	-1.383586	-1.732121
0.180	1.558880	-0.835392	538.274619	-8.792498	7.205444	-0.061215	-1.338619	-1.633460
0.190	1.560435	-0.332921	539.657514	-8.256266	6.905566	-0.099728	-1.279620	-1.529908
0.200	1.747496	0.200751	540.529995	-7.692324	6.518388	-0.143077	-1.205925	-1.423108
0.210	2.132813	0.746267	540.800965	-7.115247	6.048141	-0.185235	-1.118367	-1.315687
0.220	2.684750	1.287251	540.393474	-6.541400	5.508787	-0.219925	-1.019403	-1.210488
0.230	3.338821	1.812173	539.266011	-5.984097	4.922535	-0.242271	-0.912821	-1.109674
0.240	4.019052	2.316025	537.431076	-5.449986	4.316303	-0.250188	-0.803136	-1.014081
0.250	4.661022	2.800856	534.965361	-4.938002	3.717171	-0.244864	-0.694843	-0.923051
0.260	5.228186	3.273761	532.007634	-4.440994	3.148156	-0.230102	-0.591750	-0.834761
0.270	5.716243	3.742052	528.743295	-3.949170	2.625363	-0.210823	-0.496529	-0.746897
0.280	6.145574	4.207268	525.378918	-3.454090	2.157020	-0.191358	-0.410565	-0.657447
0.290	6.546634	4.660892	522.113771	-2.951891	1.744296	-0.174193	-0.334084	-0.565373
0.300	6.945176	5.084263	519.115533	-2.444859	1.383434	-0.159572	-0.266498	-0.470966
0.310	7.352888	5.453314	516.504646	-1.941175	1.068577	-0.146009	-0.206886	-0.375829
0.320	7.765463	5.746322	514.348778	-1.453309	0.794622	-0.131376	-0.154491	-0.282553
0.330	8.166686	5.951156	512.666982	-0.995880	0.559430	-0.114057	-0.109122	-0.194255
0.340	8.535205	6.068837	511.441546	-0.583714	0.364822	-0.093646	-0.071332	-0.114131
0.350	8.850656	6.112242	510.633905	-0.230356	0.216158	-0.070989	-0.042331	-0.045112
0.360	9.097100	6.101305	510.200010	0.053178	0.120795	-0.047718	-0.023676	0.010423
0.370	9.263535	6.057455	510.101374	0.259801	0.086013	-0.025667	-0.016862	0.050931
0.380	9.342886	5.999708	510.310961	0.387875	0.116982	-0.006464	-0.022924	0.076008
0.390	9.331446	5.943083	510.816012	0.442255	0.215159	0.008621	-0.042121	0.086578
0.400	9.229920	5.898066	511.619559	0.434031	0.377410	0.018662	-0.073768	0.084835
0.410	9.045350	5.869420	512.738918	0.378542	0.596095	0.022996	-0.116257	0.073827
0.420	8.791743	5.853971	514.197217	0.292008	0.860235	0.021195	-0.167297	0.056789
0.430	8.487636	5.838909	516.006524	0.187821	1.157547	0.013158	-0.224328	0.036399
0.440	8.150914	5.802889	518.146714	0.073824	1.476699	-0.000670	-0.284996	0.014248
0.450	7.793387	5.721124	520.548361	-0.048387	1.808921	-0.019116	-0.347503	-0.009295
0.460	7.418062	5.573329	523.087628	-0.181940	2.148382	-0.040340	-0.410712	-0.034782
0.470	7.020633	5.351284	525.596830	-0.331762	2.491452	-0.062235	-0.474023	-0.063121
0.480	6.594574	5.062665	527.888739	-0.501690	2.835493	-0.083070	-0.537138	-0.095037
0.490	6.137692	4.729605	529.787860	-0.692774	3.177920	-0.102116	-0.599848	-0.130764
0.500	5.657472	4.382923	531.159558	-0.903080	3.515855	-0.119930	-0.661921	-0.170021
0.510	5.172993	4.054579	531.929449	-1.128474	3.846342	-0.138184	-0.723092	-0.212147
0.520	4.712574	3.771115	532.089664	-1.363676	4.166878	-0.159140	-0.783116	-0.256287
0.530	4.307908	3.549956	531.692037	-1.603263	4.476070	-0.185034	-0.841854	-0.301540
0.540	3.986510	3.398966	530.829665	-1.842590	4.774357	-0.217508	-0.899414	-0.347115
0.550	3.764384	3.318235	529.610589	-2.078618	5.064785	-0.257091	-0.956322	-0.392480
0.560	3.640588	3.302386	528.131988	-2.310353	5.353631	-0.302696	-1.013692	-0.437457
0.570	3.595468	3.342182	526.466446	-2.538592	5.650357	-0.351311	-1.073261	-0.482194
0.580	3.594191	3.425054	524.667916	-2.764985	5.966319	-0.398159	-1.137161	-0.526997
0.590	3.595779	3.534721	522.794625	-2.990964	6.312123	-0.437544	-1.207381	-0.572111
0.600	3.565157	3.650323	520.936185	-3.217156	6.694304	-0.464237	-1.285053	-0.617572
0.610	3.483526	3.745896	519.228967	-3.443553	7.112654	-0.474985	-1.369849	-0.663205
0.620	3.352463	3.791321	517.848613	-3.670236	7.559489	-0.469547	-1.459787	-0.708747
0.630	3.189853	3.755656	516.978787	-3.898352	8.021332	-0.450846	-1.551579	-0.754064
0.640	3.019468	3.612632	516.765892	-4.131141	8.482445	-0.424184	-1.641448	-0.799422
0.650	2.858886	3.346614	517.276225	-4.374946	8.928814	-0.395783	-1.726121	-0.845766
0.660	2.711254	2.956694	518.471763	-4.639921	9.351103	-0.371189	-1.803590	-0.894923
0.670	2.564563	2.457305	520.213647	-4.939909	9.745583	-0.354055	-1.873381	-0.949592
0.680	2.398545	1.875442	522.291692	-5.290914	10.112905	-0.345622	-1.936256	-1.013019
0.690	2.195537	1.246014	524.469183	-5.707980	10.455490	-0.344972	-1.993538	-1.088335
0.700	1.949895	0.607283	526.528749	-6.200981	10.774835	-0.349874	-2.046391	-1.177710
0.710	1.671671	-0.002350	528.307307	-6.770458	11.070004	-0.357897	-2.095372	-1.281538
0.720	1.383297	-0.546361	529.713357	-7.404931	11.337832	-0.367414	-2.140371	-1.397913
0.730	1.111095	-0.992176	530.725126	-8.080763	11.574525	-0.378160	-2.180889	-1.522589
0.740	0.875212	-1.314468	531.372136	-8.765003	11.777756	-0.391100	-2.216480	-1.649504
0.750	0.681823	-1.499609	531.706729	-9.420829	11.948302	-0.407653	-2.247160	-1.771809
0.760	0.520457	-1.549878	531.775819	-10.014525	12.090637	-0.428537	-2.273634	-1.883223
0.770	0.367556	-1.485577	531.603925	-10.522333	12.212315	-0.452754	-2.297258	-1.979356
0.780	0.195386	-1.343794	531.193858	-10.935341	12.322385	-0.477181	-2.319753	-2.058635
0.790	-0.016279	-1.173699	530.542805	-11.261035	12.429291	-0.497005	-2.342750	-2.122550
0.800	-0.269390	-1.029314	529.663948	-11.521248	12.538962	-0.506848	-2.367343	-2.175200
0.810	-0.541939	-0.961148	528.601869	-11.747270	12.653887	-0.502114	-2.393841	-2.222328
0.820	-0.790779	-1.008085	527.433923	-11.973398	12.773752	-0.480116	-2.421868	-2.270123
0.830	-0.963796	-1.191045	526.256157	-12.230279	12.897593	-0.440795	-2.450820	-2.324016
0.840	-1.018388	-1.509875	525.158677	-12.539415	13.026569	-0.387035	-2.480501	-2.387738
0.850	-0.939619	-1.944515	524.200524	-12.910152	13.165903	-0.324582	-2.511616	-2.462827
0.860	-0.750085	-2.460400	523.396770	-13.339922	13.324659	-0.261378	-2.545805	-2.548721
0.870	-0.505715	-3.016886	522.726787	-13.817542	13.512903	-0.206075	-2.585079	-2.643358
0.880	-0.277286	-3.576337	522.162009	-14.328339	13.737134	-0.165921	-2.630818	-2.744041
0.890	-0.124476	-4.110859	521.699450	-14.859171	13.995988	-0.144758	-2.682768	-2.848224
0.900	-0.073994	-4.604562	521.382874	-15.401558	14.278353	-0.142113	-2.738554	-2.953982
0.910	-0.112346	-5.051471	521.299954	-15.952079	14.565024	-0.153920	-2.793981	-3.060058
0.920	-0.196632	-5.451383	521.556113	-16.510397	14.833281	-0.174627	-2.844043	-3.165603
0.930	-0.277447	-5.806384	522.235962	-17.076002	15.062457	-0.199716	-2.884224	-3.269787
0.940	-0.322208	-6.119245	523.367257	-17.645015	15.238242	-0.227483	-2.911577	-3.371440
0.950	-0.328265	-6.392964	524.900480	-18.208383	15.354301	-0.259318	-2.925183	-3.468921
0.960	-0.321281	-6.629926	526.710960	-18.752336	15.411063	-0.298416	-2.925905	-3.560271
0.970	-0.341380	-6.830075	528.621741	-19.261022	15.412689	-0.347533	-2.915637	-3.643630
0.980	-0.424070	-6.989056	530.437706	-19.720071	15.363695	-0.406840	-2.896418	-3.717698
0.990	-0.583775	-7.097971	531.978990	-20.119342	15.266624	-0.472880	-2.869780	-3.781981
1.000	-0.805827	-7.145608	533.105020	-20.453684	15.121553	-0.539093	-2.836505	-3.836708
1.010	-1.049182	-7.122797	533.726284	-20.721892	14.927356	-0.597650	-2.796819	-3.882494
1.020	-1.258223	-7.027738	533.805139	-20.925108	14.683984	-0.641733	-2.750814	-3.919990
1.030	-1.378834	-6.870651	533.349096	-21.065956	14.394750	-0.667304	-2.698936	-3.949750
1.040	-1.372727	-6.675821	532.400748	-21.148790	14.067792	-0.673738	-2.642331	-3.972344
1.050	-1.225423	-6.479374	531.028113	-21.180450	13.716212	-0.663307	-2.582954	-3.988574
1.060	-0.946396	-6.322562	529.317531	-21.170617	13.356810	-0.639936	-2.523402	-3.999606
1.070	-0.562889	-6.242338	527.369429	-21.131234	13.007768	-0.607845	-2.466538	-4.006913
1.080	-0.110540	-6.262324	525.295825	-21.075082	12.685981	-0.570544	-2.415017	-4.012041
1.090	0.375915	-6.386980	523.217772	-21.014091	12.404766	-0.530358	-2.370861	-4.016318
1.100	0.869417	-6.600526	521.260652	-20.958016	12.172434	-0.488415	-2.335191	-4.020640
1.110	1.353548	-6.870856	519.545684	-20.913859	11.991911	-0.444932	-2.308153	-4.025413
1.120	1.821314	-7.157782	518.177585	-20.886028	11.861400	-0.399708	-2.289061	-4.030670
1.130	2.270172	-7.423863	517.230911	-20.877043	11.775925	-0.352788	-2.276725	-4.036310
1.140	2.695036	-7.644774	516.739782	-20.888426	11.729412	-0.305111	-2.269888	-4.042349
1.150	3.082369	-7.815520	516.695665	-20.921212	11.716683	-0.258829	-2.267618	-4.049040
1.160	3.408723	-7.949601	517.054834	-20.975622	11.734671	-0.217026	-2.269522	-4.056750
1.170	3.645242	-8.070873	517.752790	-21.049938	11.782430	-0.182920	-2.275687	-4.065635
1.180	3.766447	-8.201124	518.719973	-21.139310	11.859967	-0.158925	-2.286391	-4.075284
1.190	3.759203	-8.348771	519.893175	-21.235341	11.966402	-0.146038	-2.301704	-4.084559
1.200	3.627649	-8.503665	521.219522	-21.326904	12.098320	-0.143831	-2.321156	-4.091732
1.210	3.392087	-8.639824	522.653302	-21.401816	12.249089	-0.150995	-2.343636	-4.094840
1.220	3.082866	-8.723914	524.148785	-21.448535	12.409422	-0.166123	-2.367538	-4.092070
1.230	2.732325	-8.725019	525.653737	-21.457092	12.568893	-0.188295	-2.391097	-4.081982
1.240	2.368052	-8.621688	527.107630	-21.419086	12.717732	-0.217103	-2.412739	-4.063513
1.250	2.009449	-8.404712	528.445702	-21.327133	12.848290	-0.252058	-2.431336	-4.035823
1.260	1.667864	-8.076483	529.606401	-21.174297	12.955768	-0.291743	-2.446301	-3.998120
1.270	1.349268	-7.648698	530.538102	-20.953818	13.038130	-0.333327	-2.457529	-3.949541
1.280	1.057711	-7.139606	531.202272	-20.659172	13.095406	-0.372901	-2.465239	-3.889135
1.290	0.798068	-6.571051	531.572862	-20.284547	13.128772	-0.406627	-2.469797	-3.815949
1.300	0.577296	-5.965371	531.633805	-19.825904	13.139837	-0.432147	-2.471596	-3.729241
1.310	0.404212	-5.342677	531.377575	-19.282588	13.130338	-0.449459	-2.471000	-3.628792
1.320	0.288217	-4.719412	530.807646	-18.658939	13.102221	-0.460691	-2.468356	-3.515198
1.330	0.237692	-4.108466	529.945920	-17.965027	13.057916	-0.468814	-2.464009	-3.389974
1.340	0.258727	-3.520267	528.842711	-17.215972	13.000569	-0.475935	-2.458305	-3.255405
1.350	0.354343	-2.963994	527.583242	-16.430105	12.934040	-0.482008	-2.451564	-3.114220
1.360	0.523694	-2.448654	526.283588	-15.626879	12.862578	-0.484565	-2.444039	-2.969289
1.370	0.760703	-1.984039	525.072880	-14.825266	12.790207	-0.479562	-2.435892	-2.823468
1.380	1.052379	-1.581137	524.066326	-14.042847	12.719947	-0.462944	-2.427164	-2.679594
1.390	1.378105	-1.251139	523.339862	-13.295312	12.653060	-0.432269	-2.417752	-2.540474
1.400	1.711352	-1.002725	522.916936	-12.596070	12.588623	-0.387760	-2.407385	-2.408809
1.410	2.024112	-0.838757	522.771489	-11.955962	12.523745	-0.332428	-2.395644	-2.287034
1.420	2.292724	-0.754306	522.843419	-11.383171	12.454484	-0.271318	-2.382068	-2.177166
1.430	2.502769	-0.737339	523.058660	-10.883327	12.377115	-0.210285	-2.366296	-2.080709
1.440	2.651073	-0.771694	523.346737	-10.459600	12.289175	-0.154795	-2.348190	-1.998599
1.450	2.744304	-0.840454	523.652382	-10.112476	12.189915	-0.109159	-2.327864	-1.931143
1.460	2.795156	-0.927503	523.940977	-9.839045	12.080185	-0.076327	-2.305638	-1.877892
1.470	2.817727	-1.016144	524.198444	-9.631859	11.962055	-0.058119	-2.281971	-1.837445
1.480	2.823504	-1.085674	524.426042	-9.477855	11.838490	-0.055585	-2.257418	-1.807282
1.490	2.818914	-1.108698	524.631809	-9.358146	11.713162	-0.069227	-2.232644	-1.783755
1.500	2.805030	-1.052139	524.822840	-9.249400	11.590292	-0.098956	-2.208420	-1.762385
1.510	2.779747	-0.883240	525.002796	-9.126954	11.474257	-0.143777	-2.185561	-1.738458
1.520	2.741852	-0.579277	525.175602	-8.968925	11.368764	-0.201425	-2.164755	-1.707796
1.530	2.695244	-0.137605	525.351346	-8.760111	11.275674	-0.268153	-2.146311	-1.667477
1.540	2.650922	0.418190	525.548029	-8.494498	11.193951	-0.338804	-2.129958	-1.616312
1.550	2.625145	1.039364	525.785347	-8.175811	11.119410	-0.407199	-2.114819	-1.554971
1.560	2.634090	1.661304	526.072866	-7.816076	11.045609	-0.466807	-2.099635	-1.485740
1.570	2.687330	2.219003	526.399811	-7.432597	10.965632	-0.511669	-2.083138	-1.411968
1.580	2.783441	2.664139	526.733029	-7.044028	10.874153	-0.537450	-2.064452	-1.337305
1.590	2.910189	2.977783	527.023840	-6.666507	10.769159	-0.542332	-2.043391	-1.264935
1.600	3.049253	3.173402	527.218564	-6.310932	10.652862	-0.527488	-2.020578	-1.197024
1.610	3.182845	3.288078	527.266646	-5.982230	10.531413	-0.496873	-1.997360	-1.134574
1.620	3.298684	3.365100	527.124612	-5.680880	10.413322	-0.456272	-1.975495	-1.077711
1.630	3.391362	3.435299	526.758880	-5.406023	10.307103	-0.411834	-1.956702	-1.026280
1.640	3.460540	3.505012	526.151260	-5.158755	10.219106	-0.368588	-1.942237	-0.980470
1.650	3.507935	3.555097	525.307503	-4.944003	10.152472	-0.329484	-1.932672	-0.941164
1.660	3.534863	3.550472	524.265469	-4.770058	10.107476	-0.295260	-1.927931	-0.909856
1.670	3.541211	3.455885	523.098334	-4.645955	10.082760	-0.265107	-1.927508	-0.888161
1.680	3.525849	3.251922	521.909814	-4.577866	10.076590	-0.237795	-1.930715	-0.877137
1.690	3.487917	2.945683	520.820884	-4.566044	10.087513	-0.212795	-1.936849	-0.876701
1.700	3.428137	2.572576	519.950227	-4.603527	10.114360	-0.190920	-1.945255	-0.885378
1.710	3.349280	2.188747	519.393350	-4.677104	10.155978	-0.174253	-1.955354	-0.900494
1.720	3.255308	1.856813	519.206531	-4.770153	10.211047	-0.165386	-1.966664	-0.918739
1.730	3.149306	1.629839	519.399905	-4.866377	10.278135	-0.166361	-1.978848	-0.936923
1.740	3.031161	1.538810	519.940036	-4.953282	10.355906	-0.177778	-1.991750	-0.952664
1.750	2.896435	1.587017	520.759093	-5.024424	10.443322	-0.198444	-2.005404	-0.964827
1.760	2.737570	1.751912	521.767074	-5.079919	10.539637	-0.225663	-2.019989	-0.973599
1.770	2.547382	1.992592	522.864994	-5.125237	10.644079	-0.255927	-2.035722	-0.980222
1.780	2.323337	2.259940	523.958047	-5.168821	10.755270	-0.285689	-2.052697	-0.986495
1.790	2.070493	2.506688	524.967590	-5.219329	10.870620	-0.311994	-2.070722	-0.994219
1.800	1.801474	2.695478	525.839850	-5.283245	10.986088	-0.332905	-2.089246	-1.004725
1.810	1.533398	2.803787	526.548954	-5.363422	11.096558	-0.347687	-2.107412	-1.018599
1.820	1.283371	2.825019	527.093054	-5.459011	11.196814	-0.356679	-2.124258	-1.035683
1.830	1.064836	2.765789	527.484923	-5.566960	11.282657	-0.360907	-2.138953	-1.055378
1.840	0.886308	2.640545	527.740945	-5.684620	11.351494	-0.361594	-2.150960	-1.077161
1.850	0.752575	2.465551	527.873443	-5.812233	11.402016	-0.359817	-2.159991	-1.101066
1.860	0.667132	2.254147	527.889698	-5.954011	11.433151	-0.356463	-2.165822	-1.127889
1.870	0.634040	2.014492	527.797187	-6.117153	11.443078	-0.352455	-2.168082	-1.158997
1.880	0.657785	1.750132	527.610365	-6.309198	11.429027	-0.349055	-2.166187	-1.195806
1.890	0.740982	1.463100	527.353286	-6.534896	11.388060	-0.347974	-2.159475	-1.239188
1.900	0.881044	1.158429	527.055622	-6.793924	11.318385	-0.351114	-2.147474	-1.289034
1.910	1.067521	0.848041	526.744641	-7.080293	11.220487	-0.359949	-2.130157	-1.344160
1.920	1.281586	0.551601	526.438577	-7.383617	11.097594	-0.374815	-2.108051	-1.402560
1.930	1.498480	0.293079	526.145953	-7.691676	10.955295	-0.394443	-2.082178	-1.461890
1.940	1.692744	0.093934	525.871512	-7.993226	10.800407	-0.416004	-2.053811	-1.519996
1.950	1.844697	-0.034145	525.624613	-8.279996	10.639394	-0.435687	-2.024143	-1.575268
1.960	1.945761	-0.093640	525.423423	-8.547411	10.476862	-0.449641	-1.993985	-1.626766
1.970	2.000610	-0.100767	525.290952	-8.794317	10.314666	-0.454963	-1.963610	-1.674180
1.980	2.025442	-0.080469	525.245271	-9.022218	10.151932	-0.450391	-1.932798	-1.717715
1.990	2.043100	-0.058909	525.290477	-9.234271	9.985908	-0.436437	-1.901026	-1.757936
2.000	2.076688	-0.056263	525.413513	-9.434085	9.813303	-0.414912	-1.867730	-1.795554
2.010	2.143587	-0.082227	525.587215	-9.624496	9.631623	-0.388096	-1.832545	-1.831189
2.020	2.251584	-0.135489	525.776949	-9.806662	9.440124	-0.357948	-1.795462	-1.865175
2.030	2.397995	-0.207173	525.948257	-9.979959	9.240100	-0.325726	-1.756846	-1.897517
2.040	2.571707	-0.286988	526.073892	-10.142977	9.034473	-0.292103	-1.717339	-1.928052
2.050	2.757291	-0.369766	526.138838	-10.295462	8.826910	-0.257596	-1.677677	-1.956796
2.060	2.939968	-0.459751	526.142012	-10.440462	8.620858	-0.223031	-1.638504	-1.984343
2.070	3.110092	-0.570864	526.094498	-10.585584	8.418816	-0.189788	-1.600248	-2.012107
2.080	3.265767	-0.722895	526.015240	-10.742496	8.222007	-0.159787	-1.563074	-2.042240
2.090	3.412594	-0.934903	525.925255	-10.924497	8.030405	-0.135238	-1.526910	-2.077196
2.100	3.560474	-1.217628	525.841011	-11.142853	7.843030	-0.118217	-1.491521	-2.119054
2.110	3.718608	-1.567024	525.768363	-11.403196	7.658391	-0.110163	-1.456609	-2.168863
2.120	3.890845	-1.961252	525.699384	-11.703339	7.475039	-0.111415	-1.421923	-2.226242
2.130	4.073567	-2.363202	525.614076	-12.033449	7.292146	-0.120996	-1.387357	-2.289408
2.140	4.257207	-2.729086	525.487077	-12.378696	7.109999	-0.136712	-1.353030	-2.355661
2.150	4.430516	-3.021092	525.296875	-12.723466	6.930247	-0.155544	-1.319301	-2.422148
2.160	4.585150	-3.219653	525.033168	-13.055417	6.755839	-0.174161	-1.286745	-2.486589
2.170	4.717986	-3.330139	524.698928	-13.367671	6.590652	-0.189482	-1.256083	-2.547684
2.180	4.830100	-3.380726	524.307779	-13.658463	6.438855	-0.199246	-1.228068	-2.605047
2.190	4.923417	-3.412076	523.880687	-13.928965	6.304142	-0.202462	-1.203355	-2.658805
2.200	4.997481	-3.463185	523.444930	-14.180803	6.189045	-0.199496	-1.182368	-2.709130
2.210	5.048401	-3.559075	523.034415	-14.414483	6.094541	-0.191657	-1.165228	-2.755934
2.220	5.070298	-3.704632	522.687920	-14.629002	6.020066	-0.180481	-1.151752	-2.798802
2.230	5.057949	-3.885913	522.442819	-14.822309	5.963888	-0.167168	-1.141539	-2.837116
2.240	5.009047	-4.077413	522.325397	-14.992181	5.923644	-0.152536	-1.134091	-2.870276
2.250	4.925516	-4.252071	522.342589	-15.137281	5.896813	-0.137419	-1.128917	-2.897960
2.260	4.814148	-4.390523	522.480968	-15.258116	5.880928	-0.123114	-1.125577	-2.920320
2.270	4.686727	-4.486830	522.715349	-15.357578	5.873540	-0.111379	-1.123659	-2.938039
2.280	4.559198	-4.549198	523.022794	-15.440785	5.872138	-0.103896	-1.122731	-2.952220
2.290	4.449328	-4.595767	523.392928	-15.514155	5.874234	-0.101531	-1.122337	-2.964151
2.300	4.372976	-4.647127	523.827075	-15.583916	5.877737	-0.103901	-1.122076	-2.975012
2.310	4.339964	-4.718238	524.326050	-15.654385	5.881521	-0.109530	-1.121730	-2.985620
2.320	4.351052	-4.812557	524.873943	-15.726473	5.885923	-0.116484	-1.121397	-2.996238
