Time[s]	Fx[N]	Fy[N]	Fz[N]	Mx[Nm]	My[Nm]	Mz[Nm]	COPx[cm]	COPy[cm]
0.010	1.826477	-0.811355	511.840791	2.865217	-4.094241	0.334292	0.799905	0.559787
0.020	1.956051	-0.771764	511.532446	2.786860	-4.140267	0.342700	0.809385	0.544806
0.030	2.074440	-0.744877	511.268711	2.711059	-4.185132	0.351199	0.818578	0.530261
0.040	2.170029	-0.740994	511.081935	2.639459	-4.227697	0.359542	0.827205	0.516445
0.050	2.232739	-0.765783	510.985664	2.571820	-4.266724	0.366867	0.834999	0.503306
0.060	2.256382	-0.819618	510.974413	2.506455	-4.301045	0.371829	0.841734	0.490525
0.070	2.240981	-0.898159	511.029115	2.441333	-4.329992	0.373044	0.847308	0.477729
0.080	2.193717	-0.993926	511.125357	2.375176	-4.353919	0.369695	0.851830	0.464695
0.090	2.127929	-1.098552	511.241080	2.307878	-4.374487	0.362000	0.855660	0.451427
0.100	2.060581	-1.204904	511.360873	2.240044	-4.394438	0.351309	0.859361	0.438056
0.110	2.009009	-1.308154	511.475626	2.172001	-4.416837	0.339718	0.863548	0.424654
0.120	1.987632	-1.405456	511.579162	2.102944	-4.444054	0.329336	0.868693	0.411069
0.130	2.005008	-1.494910	511.665544	2.030849	-4.476941	0.321545	0.874974	0.396910
0.140	2.061697	-1.574817	511.729683	1.953300	-4.514539	0.316570	0.882212	0.381705
0.150	2.149616	-1.643735	511.770264	1.868909	-4.554468	0.313549	0.889944	0.365185
0.160	2.253359	-1.701012	511.791371	1.778697	-4.593815	0.310990	0.897595	0.347543
0.170	2.353464	-1.747060	511.800250	1.686826	-4.630149	0.307385	0.904679	0.329587
0.180	2.430845	-1.782917	511.802493	1.600325	-4.662189	0.301740	0.910935	0.312684
0.190	2.471130	-1.809371	511.798552	1.527737	-4.689844	0.293849	0.916346	0.298504
0.200	2.467454	-1.826348	511.784162	1.476986	-4.713724	0.284286	0.921037	0.288596
0.210	2.420898	-1.833094	511.753714	1.453137	-4.734450	0.274157	0.925142	0.283952
0.220	2.338900	-1.829149	511.703476	1.456932	-4.752158	0.264743	0.928694	0.284722
0.230	2.232886	-1.815541	511.632512	1.484750	-4.766471	0.257145	0.931620	0.290198
0.240	2.116159	-1.795281	511.541927	1.529995	-4.777004	0.252042	0.933844	0.299095
0.250	2.002209	-1.772549	511.435060	1.585288	-4.784137	0.249594	0.935434	0.309969
0.260	1.903078	-1.750844	511.320322	1.644581	-4.789521	0.249456	0.936697	0.321634
0.270	1.827579	-1.731234	511.214993	1.704533	-4.795942	0.250866	0.938146	0.333428
0.280	1.779803	-1.711846	511.145921	1.764814	-4.806672	0.252818	0.940372	0.345266
0.290	1.758681	-1.688998	511.143893	1.827325	-4.824722	0.254321	0.943907	0.357497
0.300	1.759131	-1.659398	511.231825	1.894600	-4.852378	0.254700	0.949154	0.370595
0.310	1.774536	-1.622250	511.410800	1.968023	-4.891086	0.253807	0.956391	0.384822
0.320	1.799613	-1.580116	511.650788	2.046682	-4.941604	0.252041	0.965816	0.400015
0.330	1.832391	-1.537963	511.892365	2.127440	-5.004247	0.250137	0.977598	0.415603
0.340	1.874344	-1.500698	512.061374	2.206169	-5.079037	0.248843	0.991881	0.430841
0.350	1.928675	-1.470281	512.092095	2.279547	-5.165592	0.248668	1.008723	0.445144
0.360	1.997907	-1.443957	511.950235	2.346615	-5.262794	0.249804	1.027989	0.458368
0.370	2.082292	-1.414729	511.647041	2.409501	-5.368475	0.252223	1.049254	0.470930
0.380	2.179799	-1.373941	511.239323	2.472984	-5.479345	0.255827	1.071777	0.483723
0.390	2.287185	-1.314623	510.814816	2.543003	-5.591269	0.260542	1.094578	0.497833
0.400	2.400976	-1.233962	510.467089	2.624724	-5.699794	0.266332	1.116584	0.514181
0.410	2.517483	-1.133905	510.268395	2.721058	-5.800702	0.273129	1.136794	0.533260
0.420	2.631964	-1.019870	510.250183	2.832223	-5.890393	0.280702	1.154413	0.555066
0.430	2.737789	-0.898280	510.397886	2.956265	-5.966078	0.288559	1.168907	0.579208
0.440	2.826658	-0.774125	510.660401	3.089894	-6.025967	0.296002	1.180034	0.605078
0.450	2.890342	-0.649607	510.969050	3.229198	-6.069592	0.302422	1.187859	0.631975
0.460	2.923451	-0.524396	511.258234	3.370175	-6.098090	0.307655	1.192761	0.659192
0.470	2.925807	-0.397279	511.480990	3.509234	-6.114138	0.312152	1.195379	0.686093
0.480	2.902921	-0.268350	511.616120	3.643647	-6.121282	0.316815	1.196460	0.712184
0.490	2.864151	-0.140762	511.667196	3.771774	-6.122804	0.322608	1.196638	0.737154
0.500	2.819604	-0.021198	511.655857	3.892973	-6.120622	0.330192	1.196238	0.760858
0.510	2.777433	0.081380	511.612178	4.007264	-6.114813	0.339760	1.195205	0.783262
0.520	2.742557	0.158582	511.564487	4.114991	-6.104043	0.351060	1.193211	0.804393
0.530	2.716709	0.206036	511.530794	4.216628	-6.086665	0.363471	1.189892	0.824316
0.540	2.699120	0.225921	511.514475	4.312719	-6.061811	0.376069	1.185071	0.843127
0.550	2.687211	0.227352	511.506592	4.403818	-6.029892	0.387718	1.178849	0.860950
0.560	2.677124	0.224209	511.494203	4.490274	-5.992355	0.397294	1.171539	0.877874
0.570	2.664199	0.231010	511.469397	4.571831	-5.951018	0.404018	1.163514	0.893862
0.580	2.643540	0.258141	511.432514	4.647261	-5.907422	0.407743	1.155074	0.908675
0.590	2.610627	0.308172	511.387554	4.714387	-5.862466	0.408981	1.146384	0.921881
0.600	2.561881	0.374781	511.334466	4.770723	-5.816337	0.408618	1.137482	0.932995
0.610	2.495177	0.444800	511.265776	4.814454	-5.768694	0.407456	1.128316	0.941673
0.620	2.410492	0.502616	511.171075	4.845198	-5.719031	0.405893	1.118810	0.947862
0.630	2.310640	0.535294	511.046140	4.864165	-5.667129	0.403935	1.108927	0.951805
0.640	2.201633	0.536637	510.899926	4.873681	-5.613400	0.401483	1.098728	0.953941
0.650	2.092053	0.508804	510.754704	4.876426	-5.558944	0.398631	1.088378	0.954749
0.660	1.991324	0.460970	510.639359	4.874653	-5.505268	0.395690	1.078113	0.954617
0.670	1.907557	0.405780	510.579521	4.869574	-5.453815	0.392946	1.068162	0.953735
0.680	1.845935	0.355223	510.589137	4.860974	-5.405555	0.390331	1.058690	0.952032
0.690	1.808118	0.317401	510.666743	4.847227	-5.360898	0.387275	1.049784	0.949196
0.700	1.792400	0.294887	510.797303	4.825943	-5.320038	0.382841	1.041516	0.944786
0.710	1.794234	0.284675	510.957781	4.795092	-5.283535	0.376082	1.034045	0.938452
0.720	1.807147	0.279552	511.123017	4.754080	-5.252761	0.366497	1.027690	0.930124
0.730	1.824231	0.270579	511.269423	4.704190	-5.229764	0.354398	1.022898	0.920100
0.740	1.839947	0.250163	511.376750	4.648180	-5.216518	0.341002	1.020093	0.908954
0.750	1.851523	0.214770	511.429861	4.589380	-5.213891	0.328142	1.019473	0.897363
0.760	1.859181	0.166097	511.421523	4.530763	-5.220964	0.317650	1.020873	0.885916
0.770	1.864979	0.109989	511.355307	4.474399	-5.235143	0.310687	1.023778	0.875008
0.780	1.870799	0.053481	511.246784	4.421363	-5.253111	0.307309	1.027510	0.864820
0.790	1.876562	0.001482	511.121431	4.371953	-5.272136	0.306473	1.031484	0.855365
0.800	1.879700	-0.045191	511.008846	4.325975	-5.291068	0.306514	1.035416	0.846556
0.810	1.876278	-0.089524	510.934731	4.282957	-5.310496	0.305861	1.039369	0.838259
0.820	1.863195	-0.136171	510.913570	4.242237	-5.331969	0.303609	1.043615	0.830324
0.830	1.840200	-0.188716	510.944708	4.202950	-5.356761	0.299625	1.048403	0.822584
0.840	1.810464	-0.247635	511.013259	4.163922	-5.384916	0.294201	1.053772	0.814836
0.850	1.779235	-0.309757	511.096030	4.123585	-5.415154	0.287588	1.059518	0.806812
0.860	1.751203	-0.369348	511.171133	4.080104	-5.445578	0.279789	1.065314	0.798187
0.870	1.728022	-0.420375	511.227499	4.031825	-5.474602	0.270761	1.070874	0.788656
0.880	1.707354	-0.459078	511.268987	3.977895	-5.501586	0.260809	1.076065	0.778043
0.890	1.684124	-0.485690	511.310068	3.918753	-5.526994	0.250835	1.080948	0.766414
0.900	1.653727	-0.504480	511.365338	3.856158	-5.552244	0.242209	1.085769	0.754091
0.910	1.615941	-0.522133	511.439184	3.792621	-5.579417	0.236325	1.090925	0.741558
0.920	1.577656	-0.545421	511.521496	3.730430	-5.610913	0.234075	1.096907	0.729281
0.930	1.552792	-0.579236	511.591602	3.670739	-5.649067	0.235504	1.104214	0.717514
0.940	1.558954	-0.625517	511.628642	3.613246	-5.695665	0.239775	1.113242	0.706224
0.950	1.611932	-0.682957	511.623786	3.556760	-5.751381	0.245427	1.124143	0.695191
0.960	1.720070	-0.747246	511.588185	3.500465	-5.815258	0.250819	1.136707	0.684235
0.970	1.880528	-0.811800	511.551675	3.445158	-5.884498	0.254619	1.150323	0.673472
0.980	2.078621	-0.869101	511.551829	3.393668	-5.954763	0.256248	1.164059	0.663407
0.990	2.290459	-0.912516	511.618359	3.350100	-6.020935	0.256129	1.176841	0.654805
1.000	2.488114	-0.938007	511.760178	3.318310	-6.078176	0.255606	1.187700	0.648411
1.010	2.645847	-0.945052	511.960846	3.300472	-6.123004	0.256479	1.195991	0.644673
1.020	2.745666	-0.936524	512.184109	3.296480	-6.154029	0.260327	1.201527	0.643612
1.030	2.780718	-0.917827	512.387048	3.304329	-6.172059	0.267908	1.204570	0.644889
1.040	2.755746	-0.895782	512.535257	3.321039	-6.179508	0.278908	1.205675	0.647963
1.050	2.684870	-0.877468	512.613356	3.343542	-6.179376	0.292114	1.205465	0.652254
1.060	2.587735	-0.868815	512.625906	3.369186	-6.174247	0.305873	1.204435	0.657241
1.070	2.485303	-0.872851	512.588849	3.395794	-6.165740	0.318571	1.202863	0.662479
1.080	2.396110	-0.888062	512.517386	3.421465	-6.154565	0.329009	1.200850	0.667580
1.090	2.333284	-0.907768	512.418169	3.444414	-6.141016	0.336587	1.198438	0.672188
1.100	2.302536	-0.921319	512.289904	3.463094	-6.125489	0.341312	1.195708	0.676003
1.110	2.301358	-0.917117	512.130157	3.476683	-6.108728	0.343651	1.192808	0.678867
1.120	2.319741	-0.886593	511.942250	3.485665	-6.091748	0.344301	1.189929	0.680871
1.130	2.342504	-0.827562	511.737453	3.492109	-6.075542	0.343943	1.187238	0.682403
1.140	2.353079	-0.745463	511.532354	3.499394	-6.060698	0.343101	1.184812	0.684100
1.150	2.337997	-0.651743	511.344616	3.511389	-6.047042	0.342144	1.182577	0.686697
1.160	2.290667	-0.559822	511.189680	3.531340	-6.033470	0.341422	1.180280	0.690808
1.170	2.212905	-0.480419	511.078775	3.560850	-6.018119	0.341378	1.177533	0.696732
1.180	2.113529	-0.418530	511.017645	3.599364	-5.998963	0.342461	1.173925	0.704352
1.190	2.004897	-0.373469	511.005750	3.644383	-5.974778	0.344824	1.169219	0.713178
1.200	1.899153	-0.341495	511.036074	3.692218	-5.946095	0.348033	1.163537	0.722497
1.210	1.805634	-0.319035	511.096142	3.738853	-5.915559	0.351081	1.157426	0.731536
1.220	1.729949	-0.304529	511.171141	3.780542	-5.887307	0.352771	1.151729	0.739584
1.230	1.674328	-0.298121	511.248997	3.814109	-5.865575	0.352251	1.147303	0.746038
1.240	1.638371	-0.299926	511.325052	3.837172	-5.853266	0.349396	1.144725	0.750437
1.250	1.619540	-0.308286	511.402872	3.848457	-5.851238	0.344778	1.144154	0.752530
1.260	1.613411	-0.319220	511.489580	3.848080	-5.858620	0.339295	1.145404	0.752328
1.270	1.614340	-0.327470	511.588110	3.837503	-5.873803	0.333713	1.148151	0.750116
1.280	1.616941	-0.328620	511.691381	3.819095	-5.895407	0.328430	1.152141	0.746367
1.290	1.617888	-0.321172	511.782312	3.795516	-5.922638	0.323573	1.157257	0.741627
1.300	1.616995	-0.307530	511.839752	3.769158	-5.954950	0.319258	1.163440	0.736394
1.310	1.616834	-0.293405	511.846704	3.741740	-5.991479	0.315747	1.170561	0.731027
1.320	1.621122	-0.285928	511.796479	3.714114	-6.030768	0.313325	1.178353	0.725701
1.330	1.632713	-0.291338	511.694450	3.686285	-6.071087	0.311978	1.186467	0.720407
1.340	1.652068	-0.313240	511.556117	3.657580	-6.111162	0.311145	1.194622	0.714991
1.350	1.676671	-0.351919	511.403771	3.626821	-6.150822	0.309804	1.202733	0.709189
1.360	1.701517	-0.404579	511.263050	3.592410	-6.191141	0.306882	1.210950	0.702654
1.370	1.720470	-0.466103	511.158701	3.552475	-6.233987	0.301777	1.219580	0.694985
1.380	1.728063	-0.530136	511.108602	3.505200	-6.281276	0.294724	1.228951	0.685803
1.390	1.721216	-0.590505	511.117531	3.449384	-6.334283	0.286840	1.239301	0.674871
1.400	1.700428	-0.642861	511.174548	3.385002	-6.393301	0.279822	1.250708	0.662201
1.410	1.670102	-0.686097	511.256889	3.313461	-6.457761	0.275348	1.263115	0.648101
1.420	1.637894	-0.722724	511.338903	3.237347	-6.526700	0.274400	1.276394	0.633112
1.430	1.613301	-0.757716	511.400611	3.159738	-6.599240	0.276804	1.290425	0.617860
1.440	1.605979	-0.796179	511.431332	3.083413	-6.674796	0.281219	1.305121	0.602899
1.450	1.624280	-0.841093	511.428255	3.010356	-6.752936	0.285569	1.320407	0.588617
1.460	1.674170	-0.892363	511.393384	2.941662	-6.833136	0.287736	1.336180	0.575225
1.470	1.758335	-0.947547	511.332119	2.877656	-6.914650	0.286253	1.352281	0.562776
1.480	1.875147	-1.003670	511.254290	2.817997	-6.996578	0.280811	1.368512	0.551193
1.490	2.017689	-1.058992	511.175949	2.761788	-7.078056	0.272422	1.384661	0.540281
1.500	2.173737	-1.113624	511.119552	2.707907	-7.158369	0.263110	1.400527	0.529799
1.510	2.327707	-1.168577	511.111273	2.655644	-7.236924	0.255167	1.415919	0.519582
1.520	2.464536	-1.224024	511.175432	2.605402	-7.313132	0.250276	1.430650	0.509689
1.530	2.573874	-1.278235	511.326395	2.558952	-7.386347	0.248994	1.444546	0.500454
1.540	2.652482	-1.328093	511.559281	2.518880	-7.455923	0.250833	1.457489	0.492393
1.550	2.703855	-1.370719	511.843488	2.487374	-7.521395	0.254829	1.469472	0.485964
1.560	2.735836	-1.404892	512.124741	2.464987	-7.582744	0.260189	1.480644	0.481325
1.570	2.757771	-1.431291	512.338392	2.450162	-7.640614	0.266637	1.491322	0.478231
1.580	2.778310	-1.451669	512.430003	2.439834	-7.696240	0.274291	1.501911	0.476130
1.590	2.804021	-1.467812	512.374488	2.430678	-7.750940	0.283202	1.512749	0.474395
1.600	2.838488	-1.480958	512.185715	2.420249	-7.805356	0.292886	1.523931	0.472533
1.610	2.881812	-1.491717	511.912917	2.407537	-7.858984	0.302177	1.535219	0.470302
1.620	2.930866	-1.500083	511.625239	2.392972	-7.910353	0.309532	1.546123	0.467720
1.630	2.980631	-1.505313	511.390235	2.378178	-7.957758	0.313608	1.556103	0.465042
1.640	3.026257	-1.505810	511.254884	2.365630	-7.999935	0.313779	1.564765	0.462711
1.650	3.064757	-1.499348	511.236106	2.358168	-8.036181	0.310332	1.571912	0.461268
1.660	3.095287	-1.483818	511.321906	2.358388	-8.065949	0.304320	1.577470	0.461233
1.670	3.117963	-1.458383	511.478898	2.368027	-8.088449	0.297184	1.581385	0.462977
1.680	3.132160	-1.424499	511.661134	2.387564	-8.102715	0.290309	1.583610	0.466630
1.690	3.135558	-1.386064	511.817954	2.416132	-8.108098	0.284618	1.584176	0.472069
1.700	3.124570	-1.348326	511.901468	2.451663	-8.104831	0.280365	1.583280	0.478933
1.710	3.095895	-1.315971	511.875264	2.491108	-8.094250	0.277215	1.581293	0.486663
1.720	3.048235	-1.291366	511.724401	2.530817	-8.078548	0.274587	1.578691	0.494566
1.730	2.983218	-1.273778	511.463619	2.567327	-8.060167	0.272099	1.575902	0.501957
1.740	2.905197	-1.259784	511.138501	2.598602	-8.041068	0.269871	1.573168	0.508395
1.750	2.820253	-1.244462	510.815691	2.625212	-8.022144	0.268505	1.570458	0.513926
1.760	2.734928	-1.222771	510.563781	2.650685	-8.003053	0.268781	1.567493	0.519168
1.770	2.655101	-1.190719	510.432908	2.680642	-7.982571	0.271234	1.563883	0.525170
1.780	2.585249	-1.146251	510.442655	2.721020	-7.959410	0.275808	1.559315	0.533071
1.790	2.528161	-1.089887	510.582424	2.776054	-7.933166	0.281742	1.553748	0.543703
1.800	2.485010	-1.024852	510.820827	2.846810	-7.904914	0.287756	1.547493	0.557301
1.810	2.455690	-0.956396	511.116857	2.930831	-7.877001	0.292494	1.541135	0.573417
1.820	2.439346	-0.890262	511.427359	3.023004	-7.852065	0.295028	1.535324	0.591092
1.830	2.434921	-0.830819	511.709918	3.117207	-7.831796	0.295127	1.530515	0.609175
1.840	2.441462	-0.779656	511.924299	3.208016	-7.816150	0.293220	1.526818	0.626658
1.850	2.458019	-0.735336	512.036639	3.291892	-7.803335	0.290151	1.523980	0.642902
1.860	2.483037	-0.694462	512.028104	3.367644	-7.790389	0.286929	1.521477	0.657707
1.870	2.513294	-0.653422	511.904891	3.436276	-7.773970	0.284513	1.518636	0.671272
1.880	2.542925	-0.609786	511.702618	3.500386	-7.751062	0.283611	1.514759	0.684067
1.890	2.563528	-0.562666	511.478925	3.563229	-7.719520	0.284495	1.509255	0.696652
1.900	2.565889	-0.512140	511.294466	3.627552	-7.678422	0.286962	1.501761	0.709484
1.910	2.542682	-0.458356	511.190653	3.694521	-7.628206	0.290493	1.492243	0.722728
1.920	2.490750	-0.401021	511.176079	3.763248	-7.570496	0.294565	1.480996	0.736194
1.930	2.411858	-0.339686	511.228540	3.831296	-7.507556	0.298901	1.468532	0.749429
1.940	2.311719	-0.274632	511.309148	3.895951	-7.441573	0.303462	1.455396	0.761956
1.950	2.197938	-0.207705	511.378242	3.955602	-7.374151	0.308200	1.442015	0.773518
1.960	2.077861	-0.142279	511.404981	4.010474	-7.306318	0.312780	1.428675	0.784207
1.970	1.957221	-0.082067	511.370380	4.062374	-7.238916	0.316508	1.415592	0.794409
1.980	1.839950	-0.029456	511.268841	4.113602	-7.172948	0.318560	1.402970	0.804587
1.990	1.728958	0.015433	511.111493	4.165571	-7.109522	0.318373	1.390992	0.815002
2.000	1.627178	0.054261	510.929008	4.217753	-7.049539	0.315969	1.379749	0.825507
2.010	1.538137	0.088982	510.768200	4.267438	-6.993537	0.312041	1.369219	0.835494
2.020	1.465607	0.120399	510.679455	4.310414	-6.941947	0.307752	1.359355	0.844055
2.030	1.412481	0.147562	510.698683	4.342370	-6.895521	0.304361	1.350213	0.850280
2.040	1.379472	0.168120	510.832514	4.360460	-6.855488	0.302860	1.342023	0.853599
2.050	1.364340	0.179219	511.054710	4.364377	-6.823246	0.303736	1.335130	0.853994
2.060	1.362138	0.178452	511.315909	4.356430	-6.799821	0.306889	1.329867	0.852004
2.070	1.366526	0.164589	511.561897	4.340639	-6.785481	0.311646	1.326424	0.848507
2.080	1.371700	0.137972	511.751494	4.321346	-6.779753	0.316924	1.324814	0.844423
2.090	1.374151	0.100502	511.866145	4.302047	-6.781781	0.321532	1.324913	0.840463
2.100	1.373556	0.055272	511.908665	4.284797	-6.790728	0.324584	1.326551	0.837024
2.110	1.372439	0.006082	511.894601	4.270115	-6.805951	0.325816	1.329561	0.834178
2.120	1.374648	-0.043106	511.842666	4.257168	-6.826838	0.325649	1.333777	0.831734
2.130	1.383229	-0.088831	511.769331	4.244145	-6.852429	0.324910	1.338968	0.829308
2.140	1.398682	-0.128854	511.688752	4.228829	-6.881061	0.324365	1.344775	0.826446
2.150	1.418570	-0.162536	511.615593	4.209227	-6.910326	0.324332	1.350687	0.822732
2.160	1.438673	-0.190624	511.566713	4.184013	-6.937574	0.324579	1.356143	0.817882
2.170	1.454925	-0.214561	511.558597	4.152520	-6.960937	0.324520	1.360731	0.811739
2.180	1.465070	-0.235772	511.600401	4.114383	-6.980401	0.323521	1.364424	0.804218
2.190	1.469508	-0.255355	511.686244	4.069165	-6.998244	0.321135	1.367683	0.795246
2.200	1.471400	-0.274280	511.792409	4.016352	-7.018361	0.317190	1.371330	0.784762
2.210	1.476177	-0.293891	511.883101	3.955791	-7.044735	0.311796	1.376239	0.772792
2.220	1.490345	-0.316432	511.922938	3.888272	-7.079828	0.305344	1.382987	0.759542
2.230	1.519529	-0.345309	511.889754	3.815808	-7.123710	0.298489	1.391649	0.745436
2.240	1.566143	-0.384716	511.781677	3.741287	-7.174283	0.292095	1.401825	0.731032
2.250	1.627613	-0.438367	511.616616	3.667567	-7.228432	0.287066	1.412861	0.716858
2.260	1.696264	-0.507671	511.425884	3.596428	-7.283556	0.284114	1.424167	0.703216
2.270	1.761436	-0.590287	511.244362	3.527946	-7.338736	0.283543	1.435465	0.690070
2.280	1.813231	-0.680077	511.099575	3.460711	-7.394939	0.285154	1.446869	0.677111
2.290	1.846301	-0.768760	511.003287	3.392872	-7.454177	0.288300	1.458734	0.663963
2.300	1.861877	-0.848578	510.950039	3.323479	-7.518100	0.292079	1.471396	0.650451
2.310	1.867103	-0.914745	510.924164	3.253274	-7.586841	0.295611	1.484925	0.636743
2.320	1.872022	-0.966599	510.911277	3.184467	-7.658727	0.298330	1.499033	0.623292
2.330	1.885608	-1.007105	510.906882	3.119698	-7.730950	0.300178	1.513182	0.610620
2.340	1.912584	-1.041083	510.916928	3.060904	-7.800759	0.301553	1.526816	0.599100
2.350	1.952325	-1.072968	510.951075	3.008795	-7.866455	0.303051	1.539571	0.588862
2.360	2.000208	-1.104994	511.014320	2.963170	-7.927678	0.305121	1.551361	0.579860
2.370	2.050612	-1.136371	511.102856	2.923806	-7.984969	0.307878	1.562302	0.572058
2.380	2.099973	-1.163608	511.206143	2.891323	-8.039094	0.311148	1.572574	0.565589
2.390	2.148336	-1.181810	511.313138	2.867560	-8.090653	0.314727	1.582328	0.560823
2.400	2.198660	-1.186557	511.418768	2.855209	-8.140138	0.318654	1.591678	0.558292
2.410	2.254384	-1.175783	511.526560	2.856809	-8.188161	0.323309	1.600730	0.558487
2.420	2.316785	-1.150995	511.644648	2.873437	-8.235464	0.329248	1.609606	0.561608
2.430	2.383785	-1.117308	511.776280	2.903716	-8.282598	0.336846	1.618402	0.567380
