Time[s]	Fx[N]	Fy[N]	Fz[N]	Mx[Nm]	My[Nm]	Mz[Nm]	COPx[cm]	COPy[cm]
0.010	4.777334	-0.506224	522.630670	3.537745	19.777395	0.668446	-3.784201	0.676911
0.020	4.924234	-0.482946	522.368587	3.512158	19.592919	0.668685	-3.750784	0.672352
0.030	5.049535	-0.464222	522.168353	3.491739	19.415709	0.669534	-3.718285	0.668700
0.040	5.138462	-0.452795	522.076985	3.480196	19.251590	0.671610	-3.687500	0.666606
0.050	5.186896	-0.448296	522.114119	3.478970	19.102858	0.675285	-3.658751	0.666324
0.060	5.201899	-0.447539	522.267779	3.486848	18.967424	0.680391	-3.631743	0.667636
0.070	5.199433	-0.445721	522.499138	3.500344	18.839166	0.686032	-3.605588	0.669923
0.080	5.200538	-0.438032	522.755262	3.514804	18.709574	0.690707	-3.579031	0.672361
0.090	5.226815	-0.421391	522.984759	3.525951	18.570249	0.692770	-3.550820	0.674198
0.100	5.295567	-0.395912	523.149094	3.531328	18.415457	0.691064	-3.520116	0.675014
0.110	5.415266	-0.365380	523.225315	3.530984	18.243924	0.685400	-3.486820	0.674850
0.120	5.582467	-0.336145	523.202300	3.526982	18.059395	0.676705	-3.451704	0.674114
0.130	5.781339	-0.314582	523.076632	3.521871	17.869877	0.666790	-3.416302	0.673299
0.140	5.986399	-0.304241	522.852776	3.516977	17.685923	0.657883	-3.382582	0.672651
0.150	6.168182	-0.304224	522.547469	3.511457	17.518462	0.652099	-3.352511	0.671988
0.160	6.300519	-0.309801	522.194192	3.502570	17.376735	0.650947	-3.327639	0.670741
0.170	6.367163	-0.314989	521.843267	3.486948	17.266779	0.654986	-3.308806	0.668198
0.180	6.365375	-0.315604	521.555878	3.462242	17.190597	0.663678	-3.296022	0.663830
0.190	6.305477	-0.311139	521.392999	3.428384	17.145936	0.675540	-3.288486	0.657543
0.200	6.207318	-0.304764	521.401110	3.387831	17.126485	0.688549	-3.284704	0.649755
0.210	6.095721	-0.301827	521.597315	3.344592	17.122459	0.700702	-3.282697	0.641221
0.220	5.996419	-0.307842	521.958672	3.302496	17.121755	0.710528	-3.280289	0.632712
0.230	5.932685	-0.326829	522.422031	3.263587	17.111927	0.717403	-3.275499	0.624703
0.240	5.922230	-0.360403	522.897682	3.227462	17.082891	0.721593	-3.266966	0.617226
0.250	5.974261	-0.407580	523.293126	3.191731	17.029563	0.724052	-3.254307	0.609932
0.260	6.087460	-0.465030	523.537888	3.153163	16.953248	0.726061	-3.238208	0.602280
0.270	6.249998	-0.527628	523.600225	3.108890	16.861020	0.728828	-3.220209	0.593753
0.280	6.442182	-0.589393	523.491216	3.057208	16.763337	0.733167	-3.202219	0.584004
0.290	6.641151	-0.644902	523.257194	2.997843	16.671012	0.739296	-3.186007	0.572920
0.300	6.826002	-0.690880	522.964913	2.931800	16.592807	0.746746	-3.172834	0.560611
0.310	6.981497	-0.727224	522.684341	2.861077	16.534370	0.754386	-3.163357	0.547381
0.320	7.099296	-0.756796	522.473107	2.788434	16.498431	0.760635	-3.157757	0.533699
0.330	7.176971	-0.784018	522.365613	2.717165	16.485652	0.763892	-3.155960	0.520165
0.340	7.215978	-0.812986	522.368662	2.650648	16.495467	0.763088	-3.157821	0.507429
0.350	7.219787	-0.845865	522.463990	2.591625	16.526562	0.758085	-3.163196	0.496039
0.360	7.192679	-0.882081	522.616431	2.541443	16.577072	0.749731	-3.171939	0.486292
0.370	7.138954	-0.918639	522.784630	2.499587	16.644738	0.739513	-3.183861	0.478129
0.380	7.062022	-0.951624	522.930233	2.463748	16.727240	0.729021	-3.198752	0.471143
0.390	6.963373	-0.978330	523.023208	2.430447	16.822689	0.719438	-3.216433	0.464692
0.400	6.842183	-0.998887	523.044369	2.395988	16.930030	0.711263	-3.236825	0.458085
0.410	6.696526	-1.016499	522.987573	2.357349	17.049073	0.704286	-3.259938	0.450747
0.420	6.526147	-1.036232	522.862086	2.312786	17.180026	0.697782	-3.285766	0.442332
0.430	6.335377	-1.063014	522.692834	2.262132	17.322723	0.690819	-3.314131	0.432784
0.440	6.134258	-1.099765	522.515968	2.206809	17.475882	0.682631	-3.344564	0.422343
0.450	5.936832	-1.146300	522.369659	2.149495	17.636670	0.672983	-3.376281	0.411489
0.460	5.757233	-1.199390	522.283401	2.093426	17.800679	0.662422	-3.408241	0.400822
0.470	5.605369	-1.254027	522.270498	2.041567	17.962361	0.652244	-3.439283	0.390902
0.480	5.484126	-1.305378	522.326806	1.996047	18.115834	0.644108	-3.468295	0.382145
0.490	5.389083	-1.350415	522.435164	1.957990	18.255858	0.639408	-3.494378	0.374781
0.500	5.310504	-1.388423	522.572297	1.927578	18.378749	0.638677	-3.516977	0.368863
0.510	5.236518	-1.420348	522.714875	1.904118	18.483190	0.641334	-3.535998	0.364275
0.520	5.156202	-1.447571	522.843399	1.886020	18.570864	0.645905	-3.551898	0.360724
0.530	5.061773	-1.470898	522.944580	1.870836	18.646685	0.650640	-3.565710	0.357750
0.540	4.949655	-1.490303	523.012895	1.855547	18.718166	0.654269	-3.578911	0.354780
0.550	4.820550	-1.505471	523.050599	1.837206	18.793693	0.656534	-3.593093	0.351248
0.560	4.678809	-1.516593	523.064946	1.813827	18.879950	0.658281	-3.609485	0.346769
0.570	4.531594	-1.524581	523.062982	1.785220	18.979312	0.661017	-3.628495	0.341301
0.580	4.388220	-1.530357	523.046304	1.753340	19.088273	0.666117	-3.649442	0.335217
0.590	4.259673	-1.533804	523.008932	1.721799	19.197693	0.673997	-3.670624	0.329210
0.600	4.157953	-1.533340	522.940141	1.694545	19.295000	0.683661	-3.689715	0.324042
0.610	4.094799	-1.526521	522.831274	1.674252	19.367652	0.692897	-3.704379	0.320228
0.620	4.079482	-1.511299	522.682894	1.661238	19.406663	0.699096	-3.712894	0.317829
0.630	4.115859	-1.487356	522.508385	1.653515	19.408972	0.700386	-3.714576	0.316457
0.640	4.199764	-1.457032	522.332476	1.647857	19.377850	0.696591	-3.709869	0.315481
0.650	4.318336	-1.425423	522.185601	1.641196	19.321357	0.689607	-3.700094	0.314294
0.660	4.452311	-1.399328	522.095895	1.631496	19.249594	0.682978	-3.686984	0.312490
0.670	4.580941	-1.385226	522.080997	1.617847	19.171799	0.680787	-3.672189	0.309884
0.680	4.687796	-1.387067	522.142281	1.600119	19.094201	0.686256	-3.656896	0.306453
0.690	4.765270	-1.404876	522.263742	1.578740	19.019201	0.700566	-3.641685	0.302288
0.700	4.815999	-1.434817	522.416091	1.554813	18.946026	0.722348	-3.626616	0.297620
0.710	4.850606	-1.470608	522.564808	1.530360	18.872519	0.748068	-3.611517	0.292856
0.720	4.882684	-1.505531	522.679438	1.508259	18.797248	0.773161	-3.596324	0.288563
0.730	4.923229	-1.534024	522.740851	1.491736	18.720920	0.793477	-3.581300	0.285368
0.740	4.977000	-1.552204	522.744154	1.483590	18.646448	0.806479	-3.567031	0.283808
0.750	5.042126	-1.557371	522.697241	1.485514	18.577771	0.811764	-3.554212	0.284202
0.760	5.112588	-1.547234	522.616965	1.497693	18.518170	0.810858	-3.543354	0.286576
0.770	5.181920	-1.519770	522.524923	1.518696	18.469089	0.806475	-3.534585	0.290646
0.780	5.246228	-1.474278	522.443629	1.545624	18.429989	0.801630	-3.527651	0.295845
0.790	5.305116	-1.413258	522.392753	1.574577	18.399098	0.798834	-3.522081	0.301416
0.800	5.360376	-1.343781	522.385136	1.601522	18.374413	0.799549	-3.517407	0.306579
0.810	5.413620	-1.276852	522.423034	1.623437	18.354362	0.803951	-3.513314	0.310751
0.820	5.464525	-1.224361	522.496014	1.639373	18.337839	0.810976	-3.509661	0.313758
0.830	5.510657	-1.194792	522.582367	1.650868	18.323766	0.818598	-3.506388	0.315906
0.840	5.548787	-1.189793	522.654852	1.661382	18.310572	0.824282	-3.503377	0.317874
0.850	5.576903	-1.203350	522.689242	1.674885	18.296020	0.825617	-3.500363	0.320436
0.860	5.595882	-1.223986	522.671997	1.694203	18.277553	0.821015	-3.496945	0.324143
0.870	5.609918	-1.239029	522.603724	1.719936	18.252965	0.810267	-3.492697	0.329109
0.880	5.625291	-1.239185	522.497924	1.750442	18.221072	0.794667	-3.487300	0.335014
0.890	5.647960	-1.221650	522.377106	1.782760	18.182122	0.776626	-3.480651	0.341278
0.900	5.681160	-1.190582	522.268093	1.813797	18.137865	0.758963	-3.472903	0.347292
0.910	5.724137	-1.154905	522.196603	1.841152	18.091279	0.744169	-3.464457	0.352578
0.920	5.772492	-1.124601	522.181075	1.863356	18.045955	0.733894	-3.455881	0.356841
0.930	5.819845	-1.107176	522.227062	1.879812	18.005235	0.728715	-3.447779	0.359961
0.940	5.860068	-1.105641	522.324250	1.890713	17.971342	0.728197	-3.440649	0.361981
0.950	5.889223	-1.118313	522.447603	1.897051	17.944856	0.731140	-3.434767	0.363108
0.960	5.906438	-1.139994	522.563196	1.900561	17.924858	0.735929	-3.430180	0.363700
0.970	5.913442	-1.163806	522.638067	1.903462	17.909777	0.740882	-3.426803	0.364203
0.980	5.913109	-1.183118	522.651715	1.908028	17.898646	0.744561	-3.424584	0.365067
0.990	5.907889	-1.193168	522.605310	1.916146	17.892167	0.746036	-3.423648	0.366653
1.000	5.898944	-1.192083	522.524398	1.928986	17.892984	0.745069	-3.424335	0.369167
1.010	5.886183	-1.181104	522.452376	1.946851	17.904941	0.742136	-3.427095	0.372637
1.020	5.868763	-1.163859	522.435355	1.969258	17.931645	0.738227	-3.432318	0.376938
1.030	5.845568	-1.144879	522.503213	1.995271	17.975018	0.734426	-3.440174	0.381868
1.040	5.815598	-1.127948	522.655063	2.023940	18.034527	0.731459	-3.450560	0.387242
1.050	5.778406	-1.115051	522.857078	2.054565	18.107421	0.729431	-3.463168	0.392950
1.060	5.734475	-1.106349	523.055028	2.086718	18.189825	0.727922	-3.477612	0.398948
1.070	5.685159	-1.100938	523.195300	2.120223	18.278106	0.726402	-3.493553	0.405245
1.080	5.631995	-1.097739	523.243181	2.155207	18.369856	0.724728	-3.510768	0.411894
1.090	5.575697	-1.095947	523.189967	2.192086	18.464088	0.723385	-3.529136	0.418985
1.100	5.515490	-1.094890	523.048452	2.231343	18.560677	0.723243	-3.548558	0.426604
1.110	5.449347	-1.093444	522.843007	2.273176	18.659413	0.724919	-3.568837	0.434772
1.120	5.375095	-1.089347	522.601344	2.317182	18.759201	0.728130	-3.589581	0.443394
1.130	5.291857	-1.078884	522.350931	2.362195	18.857910	0.731489	-3.610199	0.452224
1.140	5.201097	-1.057438	522.118244	2.406358	18.953089	0.732948	-3.630038	0.460884
1.150	5.106765	-1.021161	521.927572	2.447527	19.043175	0.730698	-3.648624	0.468940
1.160	5.014377	-0.969398	521.798116	2.483996	19.128416	0.724076	-3.665865	0.476045
1.170	4.929378	-0.906686	521.740785	2.515299	19.210792	0.714032	-3.682057	0.482097
1.180	4.855628	-0.842891	521.756796	2.542673	19.292930	0.702887	-3.697686	0.487329
1.190	4.794918	-0.790656	521.839050	2.568867	19.376643	0.693466	-3.713145	0.492272
1.200	4.747773	-0.760799	521.975632	2.597354	19.461956	0.687998	-3.728518	0.497601
1.210	4.714683	-0.757694	522.153498	2.631327	19.547067	0.687333	-3.743548	0.503937
1.220	4.696526	-0.776973	522.360089	2.672806	19.629091	0.690816	-3.757770	0.511679
1.230	4.693637	-0.806807	522.581654	2.722017	19.705092	0.696803	-3.770720	0.520879
1.240	4.704118	-0.832114	522.799410	2.777092	19.772921	0.703445	-3.782124	0.531197
1.250	4.722526	-0.839765	522.986649	2.834181	19.831734	0.709316	-3.792015	0.541922
1.260	4.740003	-0.822819	523.110162	2.888118	19.882281	0.713668	-3.800783	0.552105
1.270	4.746279	-0.782503	523.137527	2.933690	19.927050	0.716346	-3.809142	0.560788
1.280	4.733070	-0.727408	523.048706	2.967281	19.970172	0.717560	-3.818033	0.567305
1.290	4.697424	-0.670225	522.847137	2.988398	20.017001	0.717712	-3.828461	0.571563
1.300	4.643194	-0.623200	522.564085	3.000421	20.073282	0.717320	-3.841305	0.574173
1.310	4.579560	-0.594031	522.252387	3.009979	20.143909	0.716993	-3.857122	0.576346
1.320	4.517077	-0.583643	521.971490	3.024842	20.231474	0.717324	-3.875973	0.579503
1.330	4.463088	-0.586455	521.770769	3.050986	20.335130	0.718655	-3.897330	0.584737
1.340	4.418624	-0.592799	521.678439	3.090236	20.450536	0.720827	-3.920142	0.592364
1.350	4.378076	-0.592643	521.698824	3.139763	20.571270	0.723150	-3.943131	0.601834
1.360	4.331503	-0.579393	521.815450	3.193613	20.691352	0.724731	-3.965262	0.612020
1.370	4.268381	-0.552384	521.995740	3.245313	20.807689	0.725037	-3.986180	0.621713
1.380	4.181120	-0.516864	522.195858	3.290174	20.921187	0.724353	-4.006387	0.630065
1.390	4.067003	-0.481288	522.367448	3.326370	21.036028	0.723800	-4.027056	0.636787
1.400	3.928147	-0.453125	522.467615	3.354696	21.157655	0.724837	-4.049563	0.642087
1.410	3.769936	-0.435205	522.470096	3.377478	21.290549	0.728480	-4.074979	0.646444
1.420	3.598748	-0.424387	522.373151	3.397247	21.436549	0.734651	-4.103685	0.650349
1.430	3.419927	-0.413145	522.200459	3.415750	21.594015	0.742039	-4.135196	0.654107
1.440	3.237019	-0.393299	521.994141	3.433609	21.757819	0.748590	-4.168211	0.657787
1.450	3.052670	-0.360126	521.802312	3.450639	21.920136	0.752380	-4.200851	0.661292
1.460	2.870452	-0.314938	521.666026	3.466483	22.071928	0.752439	-4.231046	0.664502
1.470	2.696148	-0.265059	521.610668	3.481097	22.204877	0.749132	-4.256983	0.667375
1.480	2.537402	-0.221475	521.644190	3.494841	22.313197	0.743944	-4.277475	0.669966
1.490	2.401946	-0.195296	521.760393	3.508156	22.394670	0.738820	-4.292137	0.672369
1.500	2.295693	-0.194200	521.942869	3.521073	22.450384	0.735366	-4.301311	0.674609
1.510	2.222065	-0.219748	522.166625	3.532800	22.483197	0.734246	-4.305751	0.676566
1.520	2.182897	-0.266412	522.398669	3.541601	22.495549	0.735000	-4.306203	0.677950
1.530	2.180054	-0.323072	522.601377	3.545094	22.487632	0.736301	-4.303018	0.678355
1.540	2.216392	-0.376755	522.740387	3.540996	22.456769	0.736529	-4.295970	0.677391
1.550	2.295296	-0.417131	522.794508	3.528057	22.398292	0.734453	-4.284339	0.674846
1.560	2.418991	-0.439655	522.762854	3.506706	22.307493	0.729781	-4.267230	0.670803
1.570	2.586454	-0.446087	522.665481	3.478915	22.181837	0.723364	-4.243983	0.665610
1.580	2.791645	-0.442543	522.536500	3.447239	22.022548	0.716930	-4.214547	0.659712
1.590	3.022559	-0.436462	522.411980	3.413618	21.835085	0.712403	-4.179668	0.653434
1.600	3.261665	-0.434089	522.317756	3.378679	21.628396	0.711079	-4.140850	0.646863
1.610	3.488438	-0.439341	522.263046	3.341869	21.413141	0.713023	-4.100068	0.639882
1.620	3.684032	-0.453813	522.243054	3.302221	21.199278	0.716979	-4.059274	0.632315
1.630	3.836785	-0.477208	522.248504	3.259236	20.993612	0.720867	-4.019851	0.624078
1.640	3.946200	-0.507728	522.275577	3.213484	20.798184	0.722637	-3.982224	0.615285
1.650	4.023278	-0.542476	522.329492	3.166701	20.610266	0.721069	-3.945836	0.606265
1.660	4.086585	-0.578114	522.419508	3.121392	20.424085	0.716174	-3.909518	0.597488
1.670	4.155516	-0.611816	522.548927	3.080033	20.233561	0.709080	-3.872089	0.589425
1.680	4.243796	-0.642269	522.706636	3.044116	20.034847	0.701546	-3.832905	0.582376
1.690	4.356188	-0.670257	522.865698	3.013375	19.827640	0.695397	-3.792109	0.576319
1.700	4.489506	-0.698476	522.990754	2.985643	19.614931	0.692158	-3.750531	0.570879
1.710	4.636728	-0.730587	523.051127	2.957633	19.401584	0.692945	-3.709309	0.565458
1.720	4.791733	-0.769806	523.032909	2.926387	19.192473	0.698493	-3.669458	0.559503
1.730	4.952211	-0.817541	522.943496	2.890528	18.990887	0.709148	-3.631537	0.552742
1.740	5.119453	-0.872686	522.806715	2.850494	18.797604	0.724748	-3.595517	0.545229
1.750	5.295611	-0.931906	522.652504	2.807733	18.610749	0.744443	-3.560827	0.537208
1.760	5.480552	-0.990701	522.507687	2.763598	18.426408	0.766585	-3.526533	0.528911
1.770	5.670372	-1.044598	522.392210	2.718744	18.239891	0.788827	-3.491609	0.520441
1.780	5.858104	-1.090002	522.320231	2.673322	18.047362	0.808474	-3.455229	0.511817
1.790	6.035755	-1.124603	522.301908	2.627687	17.847307	0.823044	-3.417048	0.503097
1.800	6.196283	-1.147445	522.342337	2.582995	17.641366	0.830845	-3.377357	0.494502
1.810	6.334540	-1.158811	522.438033	2.541111	17.434257	0.831377	-3.337096	0.486395
1.820	6.447097	-1.160182	522.574330	2.503789	17.232826	0.825448	-3.297679	0.479126
1.830	6.531639	-1.154382	522.726416	2.471634	17.044479	0.814976	-3.260688	0.472835
1.840	6.586770	-1.145597	522.864069	2.443583	16.875449	0.802549	-3.227502	0.467346
1.850	6.612462	-1.138791	522.958352	2.417368	16.729450	0.790800	-3.199002	0.462249
1.860	6.610842	-1.138530	522.988452	2.390739	16.607162	0.781782	-3.175436	0.457130
1.870	6.586899	-1.147751	522.947169	2.362683	16.506619	0.776484	-3.156460	0.451801
1.880	6.548821	-1.166977	522.843254	2.333821	16.424236	0.774659	-3.141331	0.446371
1.890	6.507674	-1.194127	522.698955	2.305842	16.356015	0.775002	-3.129146	0.441142
1.900	6.475949	-1.224868	522.542795	2.280598	16.298576	0.775617	-3.119089	0.436442
1.910	6.464765	-1.253499	522.400189	2.259574	16.249874	0.774590	-3.110618	0.432537
1.920	6.480255	-1.274186	522.286114	2.243916	16.209642	0.770515	-3.103594	0.429633
1.930	6.520481	-1.282235	522.203597	2.234637	16.179528	0.762846	-3.098318	0.427925
1.940	6.574524	-1.275119	522.149079	2.232559	16.162881	0.752009	-3.095453	0.427571
1.950	6.624698	-1.253196	522.121486	2.237899	16.164128	0.739232	-3.095856	0.428616
1.960	6.651530	-1.220025	522.128792	2.249841	16.187808	0.726150	-3.100348	0.430898
1.970	6.639795	-1.182062	522.186873	2.266521	16.237348	0.714361	-3.109490	0.434044
1.980	6.583325	-1.147502	522.310645	2.285657	16.313739	0.705126	-3.123379	0.437605
1.990	6.486756	-1.124330	522.502680	2.305614	16.414442	0.699271	-3.141504	0.441264
2.000	6.363732	-1.118065	522.745974	2.326287	16.532936	0.697162	-3.162709	0.445013
2.010	6.232611	-1.130009	523.004588	2.349147	16.659235	0.698620	-3.185294	0.449164
2.020	6.111606	-1.156726	523.231401	2.376287	16.781423	0.702821	-3.207266	0.454156
2.030	6.014989	-1.190957	523.379385	2.408961	16.887894	0.708349	-3.226702	0.460270
2.040	5.950994	-1.223611	523.412620	2.446469	16.969819	0.713482	-3.242149	0.467407
2.050	5.921128	-1.246160	523.314400	2.486019	17.023096	0.716638	-3.252939	0.475053
2.060	5.920412	-1.252722	523.090683	2.523615	17.049172	0.716781	-3.259315	0.482443
2.070	5.938361	-1.241321	522.768181	2.555531	17.054520	0.713641	-3.262348	0.488846
2.080	5.960673	-1.214169	522.388302	2.579705	17.049089	0.707732	-3.263681	0.493829
2.090	5.971575	-1.177031	522.000016	2.596478	17.044295	0.700189	-3.265190	0.497410
2.100	5.956654	-1.137694	521.654508	2.608410	17.050939	0.692460	-3.268627	0.500026
2.110	5.905827	-1.103550	521.401531	2.619305	17.077291	0.685911	-3.275267	0.502359
2.120	5.815781	-1.078805	521.284176	2.632875	17.127533	0.681470	-3.285642	0.505075
2.130	5.691247	-1.062571	521.329504	2.651540	17.200971	0.679427	-3.299443	0.508611
2.140	5.544746	-1.049239	521.537774	2.675739	17.292347	0.679467	-3.315646	0.513048
2.150	5.394677	-1.031470	521.877483	2.703891	17.393278	0.680892	-3.332828	0.518108
2.160	5.261800	-1.004393	522.291457	2.733009	17.494416	0.682952	-3.349551	0.523273
2.170	5.164551	-0.968670	522.711965	2.759779	17.587638	0.685165	-3.364690	0.527973
2.180	5.114280	-0.930720	523.077233	2.781725	17.667672	0.687492	-3.377641	0.531800
2.190	5.111902	-0.899941	523.342581	2.798091	17.732838	0.690271	-3.388380	0.534658
2.200	5.147226	-0.884212	523.484538	2.810122	17.784946	0.693940	-3.397416	0.536811
2.210	5.201381	-0.885859	523.500080	2.820649	17.828511	0.698699	-3.405637	0.538806
2.220	5.251731	-0.900178	523.403614	2.833098	17.869493	0.704350	-3.414094	0.541284
2.230	5.277906	-0.917428	523.223232	2.850260	17.913775	0.710377	-3.423735	0.544750
2.240	5.267228	-0.927300	522.996725	2.873288	17.965653	0.716185	-3.435137	0.549389
2.250	5.217962	-0.923529	522.766857	2.901230	18.026676	0.721282	-3.448320	0.554976
2.260	5.139428	-0.906483	522.575042	2.931260	18.095008	0.725339	-3.462662	0.560926
2.270	5.048956	-0.882771	522.453722	2.959536	18.165437	0.728192	-3.476947	0.566469
2.280	4.966648	-0.862303	522.419475	2.982422	18.230153	0.729877	-3.489562	0.570886
2.290	4.909466	-0.854111	522.469394	2.997632	18.280379	0.730662	-3.498842	0.573743
2.300	4.886324	-0.862634	522.582436	3.004888	18.308602	0.730998	-3.503486	0.575008
2.310	4.895661	-0.885926	522.725538	3.005819	18.310715	0.731391	-3.502931	0.575028
2.320	4.926388	-0.916475	522.862124	3.003190	18.287275	0.732273	-3.497533	0.574375
2.330	4.962044	-0.944206	522.959645	2.999864	18.243373	0.734007	-3.488486	0.573632
2.340	4.986751	-0.960278	522.994223	2.998019	18.187025	0.736987	-3.477481	0.573241
2.350	4.990738	-0.960129	522.953182	2.998921	18.126527	0.741685	-3.466186	0.573459
2.360	4.973462	-0.944657	522.837242	3.003130	18.067723	0.748499	-3.455707	0.574391
2.370	4.943435	-0.919261	522.662448	3.010802	18.012389	0.757388	-3.446276	0.576051
2.380	4.915169	-0.891255	522.459430	3.021755	17.958494	0.767541	-3.437299	0.578371
2.390	4.904400	-0.866837	522.267418	3.035235	17.902174	0.777359	-3.427779	0.581165
2.400	4.922950	-0.848981	522.123223	3.049550	17.840394	0.784891	-3.416893	0.584067
