Time[s]	Fx[N]	Fy[N]	Fz[N]	Mx[Nm]	My[Nm]	Mz[Nm]	COPx[cm]	COPy[cm]
0.010	0.774776	-0.241577	544.099791	8.022857	16.466198	-0.159076	-3.026320	1.474519
0.020	0.783738	-0.052632	544.679419	8.056468	16.458623	-0.178570	-3.021708	1.479121
0.030	0.792414	0.105362	545.206462	8.088018	16.446224	-0.194120	-3.016513	1.483478
0.040	0.802832	0.208940	545.634265	8.115311	16.424401	-0.202720	-3.010148	1.487317
0.050	0.819999	0.248197	545.921595	8.136320	16.389277	-0.202844	-3.002130	1.490382
0.060	0.850391	0.227542	546.032519	8.149191	16.338430	-0.194734	-2.992208	1.492437
0.070	0.899069	0.162195	545.936937	8.152487	16.271525	-0.180235	-2.980477	1.493302
0.080	0.967143	0.072329	545.614268	8.145683	16.190460	-0.162235	-2.967382	1.492938
0.090	1.051177	-0.022651	545.060548	8.129614	16.098867	-0.143908	-2.953592	1.491507
0.100	1.144837	-0.107715	544.296437	8.106430	16.001163	-0.127957	-2.939788	1.489341
0.110	1.241681	-0.173231	543.371953	8.078893	15.901498	-0.116054	-2.926448	1.486807
0.120	1.337374	-0.214399	542.363962	8.049211	15.803009	-0.108603	-2.913728	1.484098
0.130	1.430243	-0.230548	541.365054	8.017905	15.707603	-0.104839	-2.901481	1.481053
0.140	1.520382	-0.224914	540.466688	7.983345	15.616244	-0.103208	-2.889400	1.477121
0.150	1.608393	-0.204512	539.742920	7.942307	15.529436	-0.101886	-2.877191	1.471498
0.160	1.694680	-0.179345	539.240951	7.891344	15.447586	-0.099315	-2.864691	1.463417
0.170	1.779373	-0.160655	538.980498	7.828332	15.371081	-0.094611	-2.851881	1.452433
0.180	1.862428	-0.158550	538.958549	7.753556	15.300104	-0.087699	-2.838828	1.438618
0.190	1.943490	-0.179743	539.154072	7.669970	15.234424	-0.079087	-2.825616	1.422593
0.200	2.021651	-0.226159	539.530005	7.582546	15.173348	-0.069415	-2.812327	1.405398
0.210	2.095401	-0.294959	540.034149	7.496891	15.115957	-0.059083	-2.799074	1.388225
0.220	2.162813	-0.379899	540.602218	7.417604	15.061544	-0.048202	-2.786068	1.372100
0.230	2.221549	-0.473370	541.164602	7.347041	15.010056	-0.036831	-2.773658	1.357635
0.240	2.268424	-0.568102	541.655537	7.285060	14.962303	-0.025274	-2.762328	1.344962
0.250	2.298902	-0.657794	542.022063	7.229784	14.919767	-0.014230	-2.752613	1.333854
0.260	2.307409	-0.736716	542.230744	7.178886	14.884031	-0.004730	-2.744963	1.323954
0.270	2.288987	-0.799150	542.271125	7.130744	14.856062	0.002094	-2.739600	1.314978
0.280	2.241824	-0.839766	542.155371	7.084994	14.835709	0.005355	-2.736431	1.306820
0.290	2.169355	-0.855238	541.914435	7.042338	14.821618	0.004774	-2.735048	1.299530
0.300	2.080765	-0.846306	541.592166	7.003653	14.811575	0.000921	-2.734821	1.293160
0.310	1.989606	-0.818943	541.238851	6.968783	14.803096	-0.004805	-2.735039	1.287561
0.320	1.911019	-0.783796	540.904511	6.935761	14.794095	-0.010501	-2.735066	1.282252
0.330	1.858339	-0.754012	540.631997	6.901079	14.783410	-0.014269	-2.734468	1.276484
0.340	1.839780	-0.742241	540.450994	6.860983	14.771030	-0.014740	-2.733093	1.269492
0.350	1.856077	-0.757802	540.374769	6.812972	14.757958	-0.011455	-2.731060	1.260787
0.360	1.900054	-0.804766	540.400618	6.756648	14.745735	-0.005026	-2.728667	1.250304
0.370	1.958748	-0.881313	540.513577	6.693590	14.735797	0.002995	-2.726258	1.238376
0.380	2.017567	-0.980322	540.691949	6.626593	14.728907	0.010582	-2.724085	1.225576
0.390	2.064759	-1.090999	540.912682	6.558746	14.724894	0.015923	-2.722231	1.212533
0.400	2.094179	-1.201235	541.154386	6.492735	14.722853	0.018020	-2.720638	1.199794
0.410	2.105364	-1.300190	541.396952	6.430467	14.721718	0.016916	-2.719210	1.187755
0.420	2.101538	-1.380433	541.619245	6.373010	14.720859	0.013412	-2.717935	1.176659
0.430	2.087154	-1.438903	541.798352	6.320780	14.720397	0.008488	-2.716951	1.166630
0.440	2.066170	-1.476352	541.913630	6.273917	14.721045	0.002799	-2.716493	1.157734
0.450	2.041261	-1.495486	541.955667	6.232731	14.723590	-0.003480	-2.716752	1.150044
0.460	2.013601	-1.498761	541.935756	6.197973	14.728196	-0.010444	-2.717701	1.143673
0.470	1.982997	-1.486937	541.888861	6.170747	14.733843	-0.018118	-2.718979	1.138748
0.480	1.948361	-1.459135	541.865299	6.152104	14.738150	-0.026219	-2.719892	1.135357
0.490	1.908516	-1.414330	541.912741	6.142592	14.737764	-0.034166	-2.719582	1.133502
0.500	1.863174	-1.353516	542.055856	6.141992	14.729258	-0.041256	-2.717295	1.133092
0.510	1.813700	-1.281298	542.282434	6.149257	14.710205	-0.046867	-2.712646	1.133958
0.520	1.763283	-1.205899	542.542159	6.162628	14.680002	-0.050575	-2.705781	1.135880
0.530	1.716331	-1.137538	542.759914	6.179895	14.640116	-0.052218	-2.697347	1.138606
0.540	1.677449	-1.085984	542.860079	6.198774	14.593652	-0.051968	-2.688290	1.141873
0.550	1.650537	-1.058208	542.792727	6.217244	14.544428	-0.050432	-2.679555	1.145418
0.560	1.638311	-1.056544	542.550201	6.233714	14.495983	-0.048634	-2.671823	1.148965
0.570	1.642058	-1.077564	542.167002	6.247041	14.450996	-0.047783	-2.665414	1.152236
0.580	1.661391	-1.112049	541.705270	6.256505	14.411293	-0.048834	-2.660357	1.154965
0.590	1.694141	-1.146491	541.234930	6.261842	14.378134	-0.052069	-2.656542	1.156954
0.600	1.736804	-1.166232	540.817394	6.263364	14.352264	-0.056949	-2.653810	1.158129
0.610	1.785591	-1.159662	540.496702	6.262028	14.333580	-0.062366	-2.651927	1.158569
0.620	1.837521	-1.122207	540.296956	6.259217	14.320825	-0.067097	-2.650547	1.158477
0.630	1.890826	-1.058458	540.222954	6.256194	14.311830	-0.070203	-2.649245	1.158076
0.640	1.944425	-0.981230	540.262237	6.253407	14.304349	-0.071205	-2.647668	1.157476
0.650	1.996826	-0.907642	540.388976	6.249989	14.296998	-0.070026	-2.645686	1.156572
0.660	2.045243	-0.853807	540.570472	6.243673	14.289651	-0.066798	-2.643439	1.155015
0.670	2.085665	-0.830290	540.775182	6.231214	14.283075	-0.061676	-2.641222	1.152274
0.680	2.114022	-0.839817	540.979676	6.209284	14.278109	-0.054787	-2.639306	1.147785
0.690	2.127840	-0.877484	541.172077	6.175624	14.275017	-0.046344	-2.637796	1.141157
0.700	2.127422	-0.932692	541.351124	6.130064	14.273455	-0.036846	-2.636635	1.132364
0.710	2.115900	-0.991972	541.521768	6.074895	14.272964	-0.027223	-2.635714	1.121819
0.720	2.098164	-1.042353	541.689637	6.014294	14.273536	-0.018786	-2.635003	1.110284
0.730	2.079032	-1.074962	541.856785	5.952925	14.275825	-0.012950	-2.634612	1.098616
0.740	2.061385	-1.087889	542.019817	5.894410	14.280829	-0.010809	-2.634743	1.087490
0.750	2.045042	-1.086822	542.170602	5.840484	14.289159	-0.012731	-2.635547	1.077241
0.760	2.026996	-1.082533	542.299761	5.791242	14.300197	-0.018159	-2.636954	1.067904
0.770	2.003049	-1.085895	542.402177	5.746138	14.311577	-0.025731	-2.638554	1.059387
0.780	1.970309	-1.102576	542.481376	5.704905	14.319382	-0.033691	-2.639608	1.051631
0.790	1.929589	-1.129999	542.548777	5.667860	14.319142	-0.040418	-2.639236	1.044673
0.800	1.886658	-1.158104	542.616756	5.635628	14.307274	-0.044839	-2.636718	1.038602
0.810	1.851562	-1.173577	542.689082	5.608674	14.282279	-0.046554	-2.631761	1.033497
0.820	1.835857	-1.165639	542.754351	5.587010	14.245220	-0.045676	-2.624616	1.029381
0.830	1.848512	-1.130933	542.786549	5.570229	14.199345	-0.042521	-2.616009	1.026228
0.840	1.892092	-1.075435	542.753440	5.557722	14.149046	-0.037339	-2.606901	1.023986
0.850	1.961145	-1.012481	542.629753	5.548830	14.098497	-0.030228	-2.598180	1.022581
0.860	2.043947	-0.957650	542.409477	5.542801	14.050417	-0.021274	-2.590371	1.021885
0.870	2.127179	-0.922863	542.111579	5.538665	14.005407	-0.010824	-2.583491	1.021684
0.880	2.201416	-0.912633	541.776568	5.535227	13.962149	0.000317	-2.577105	1.021681
0.890	2.264669	-0.924234	541.455275	5.531250	13.918405	0.010950	-2.570555	1.021553
0.900	2.322089	-0.951126	541.193876	5.525766	13.872355	0.019836	-2.563287	1.021033
0.910	2.382055	-0.987026	541.020178	5.518315	13.823770	0.026167	-2.555130	1.019983
0.920	2.450824	-1.028165	540.936076	5.508930	13.774563	0.029858	-2.546431	1.018407
0.930	2.528529	-1.073201	540.919407	5.497793	13.728529	0.031486	-2.537999	1.016379
0.940	2.608358	-1.121951	540.934567	5.484743	13.690358	0.031886	-2.530871	1.013938
0.950	2.679088	-1.174111	540.946677	5.469035	13.664193	0.031653	-2.525978	1.011012
0.960	2.729442	-1.228356	540.932193	5.449598	13.652237	0.030834	-2.523835	1.007446
0.970	2.751969	-1.281867	540.881761	5.425665	13.653889	0.028981	-2.524376	1.003115
0.980	2.744683	-1.330438	540.796765	5.397403	13.665877	0.025547	-2.526989	0.998046
0.990	2.710304	-1.369195	540.684799	5.366242	13.683476	0.020397	-2.530768	0.992490
1.000	2.654280	-1.393480	540.558197	5.334774	13.702324	0.014134	-2.534847	0.986901
1.010	2.582769	-1.399503	540.435429	5.306201	13.720037	0.008032	-2.538700	0.981838
1.020	2.501153	-1.384943	540.341710	5.283470	13.736920	0.003587	-2.542265	0.977802
1.030	2.413277	-1.350006	540.305484	5.268412	13.755615	0.001926	-2.545896	0.975080
1.040	2.321692	-1.298871	540.350873	5.261193	13.779896	0.003345	-2.550176	0.973662
1.050	2.228868	-1.240442	540.489609	5.260301	13.813053	0.007204	-2.555656	0.973247
1.060	2.138618	-1.187096	540.716748	5.263029	13.856374	0.012172	-2.562594	0.973343
1.070	2.056662	-1.151331	541.012445	5.266297	13.908290	0.016739	-2.570789	0.973415
1.080	1.989822	-1.141760	541.348882	5.267433	13.964521	0.019758	-2.579579	0.973020
1.090	1.944345	-1.160508	541.699124	5.264682	14.019203	0.020821	-2.588005	0.971883
1.100	1.924202	-1.203256	542.043911	5.257382	14.066505	0.020294	-2.595086	0.969918
1.110	1.929921	-1.261598	542.373330	5.245938	14.102111	0.019011	-2.600075	0.967219
1.120	1.958130	-1.326166	542.682529	5.231558	14.124082	0.017803	-2.602642	0.964018
1.130	2.001880	-1.388842	542.963316	5.215742	14.133007	0.017102	-2.602940	0.960607
1.140	2.051776	-1.443437	543.195859	5.199577	14.131565	0.016788	-2.601560	0.957220
1.150	2.097768	-1.485349	543.345748	5.183163	14.123676	0.016317	-2.599390	0.953935
1.160	2.131313	-1.511206	543.370272	5.165468	14.113498	0.015020	-2.597400	0.950635
1.170	2.147379	-1.518931	543.233055	5.144777	14.104554	0.012425	-2.596409	0.947066
1.180	2.145594	-1.508102	542.920756	5.119622	14.099226	0.008462	-2.596921	0.942978
1.190	2.130062	-1.480352	542.453914	5.089747	14.098692	0.003464	-2.599058	0.938282
1.200	2.107949	-1.439817	541.887083	5.056649	14.103248	-0.001988	-2.602617	0.933155
1.210	2.087520	-1.393482	541.298393	5.023369	14.112776	-0.007249	-2.607208	0.928022
1.220	2.076206	-1.350833	540.772104	4.993570	14.127074	-0.011690	-2.612390	0.923415
1.230	2.078913	-1.322116	540.379057	4.970177	14.145895	-0.014654	-2.617773	0.919757
1.240	2.096628	-1.315265	540.160231	4.954217	14.168781	-0.015425	-2.623070	0.917176
1.250	2.125618	-1.332781	540.118846	4.944508	14.195018	-0.013311	-2.628129	0.915448
1.260	2.157724	-1.370389	540.224908	4.938362	14.223964	-0.007855	-2.632971	0.914131
1.270	2.182069	-1.418599	540.431102	4.932925	14.255650	0.000904	-2.637829	0.912776
1.280	2.187917	-1.466622	540.692398	4.926395	14.291181	0.012200	-2.643126	0.911127
1.290	2.167773	-1.506618	540.979061	4.918595	14.332467	0.024493	-2.649357	0.909202
1.300	2.119488	-1.535903	541.277087	4.910774	14.381286	0.035708	-2.656918	0.907257
1.310	2.046485	-1.556109	541.578616	4.904884	14.438194	0.043758	-2.665946	0.905664
1.320	1.956052	-1.570218	541.871080	4.902769	14.501893	0.047178	-2.676263	0.904785
1.330	1.856612	-1.579545	542.133684	4.905687	14.569347	0.045617	-2.687408	0.904885
1.340	1.755268	-1.582386	542.343824	4.914336	14.636500	0.039991	-2.698749	0.906129
1.350	1.656540	-1.574742	542.488714	4.929112	14.699261	0.032231	-2.709598	0.908611
1.360	1.562453	-1.552481	542.573510	4.950130	14.754337	0.024717	-2.719325	0.912343
1.370	1.473591	-1.513843	542.619256	4.976806	14.799711	0.019580	-2.727458	0.917182
1.380	1.390454	-1.461131	542.651009	5.007315	14.834744	0.018120	-2.733754	0.922751
1.390	1.314385	-1.400732	542.683908	5.038501	14.860010	0.020532	-2.738244	0.928441
1.400	1.247736	-1.341342	542.716810	5.066594	14.877002	0.025999	-2.741209	0.933561
1.410	1.193320	-1.291297	542.737268	5.088529	14.887693	0.033073	-2.743076	0.937568
1.420	1.153522	-1.256418	542.733040	5.103182	14.893925	0.040153	-2.744245	0.940275
1.430	1.129440	-1.239224	542.701391	5.111879	14.896657	0.045884	-2.744909	0.941932
1.440	1.120446	-1.239183	542.650633	5.117995	14.895396	0.049417	-2.744933	0.943147
1.450	1.124379	-1.253096	542.594643	5.125921	14.888236	0.050523	-2.743897	0.944705
1.460	1.138347	-1.275280	542.545349	5.139888	14.872659	0.049604	-2.741275	0.947366
1.470	1.159873	-1.298092	542.508302	5.162994	14.846726	0.047588	-2.736682	0.951689
1.480	1.187981	-1.313380	542.483159	5.196593	14.809995	0.045611	-2.730038	0.957927
1.490	1.223668	-1.314645	542.466882	5.240050	14.763708	0.044509	-2.721587	0.965967
1.500	1.269495	-1.299061	542.455823	5.290884	14.710287	0.044383	-2.711794	0.975358
1.510	1.328437	-1.268489	542.444915	5.345385	14.652555	0.044553	-2.701206	0.985424
1.520	1.402416	-1.229094	542.425619	5.399711	14.593073	0.043954	-2.690336	0.995475
1.530	1.490933	-1.189607	542.385752	5.451189	14.533730	0.041729	-2.679593	1.005039
1.540	1.590282	-1.158731	542.313080	5.499262	14.475555	0.037676	-2.669225	1.014038
1.550	1.693889	-1.142442	542.201883	5.545583	14.418694	0.032305	-2.659285	1.022789
1.560	1.794182	-1.142000	542.059201	5.593202	14.362527	0.026515	-2.649623	1.031843
1.570	1.885609	-1.153157	541.906684	5.645403	14.305931	0.021074	-2.639925	1.041767
1.580	1.967504	-1.166832	541.775590	5.704783	14.247608	0.016200	-2.629799	1.052979
1.590	2.045022	-1.171243	541.695902	5.772837	14.186376	0.011434	-2.618882	1.065697
1.600	2.127024	-1.155163	541.684031	5.849860	14.121365	0.005863	-2.606938	1.079940
1.610	2.221486	-1.111389	541.735053	5.934835	14.052167	-0.001451	-2.593919	1.095523
1.620	2.330702	-1.039172	541.823695	6.025176	13.979045	-0.011001	-2.579999	1.112018
1.630	2.448880	-0.944579	541.913819	6.116579	13.903218	-0.022541	-2.565577	1.128700
1.640	2.563544	-0.838530	541.971549	6.203425	13.827061	-0.035083	-2.551252	1.144603
1.650	2.660190	-0.733238	541.975422	6.279964	13.753915	-0.047216	-2.537738	1.158717
1.660	2.728258	-0.638459	541.919237	6.341860	13.687401	-0.057592	-2.525727	1.170259
1.670	2.765949	-0.559013	541.807683	6.387275	13.630406	-0.065357	-2.515728	1.178882
1.680	2.781811	-0.494464	541.648477	6.416907	13.584165	-0.070348	-2.507930	1.184700
1.690	2.792076	-0.440828	541.445987	6.433070	13.547896	-0.073045	-2.502169	1.188128
1.700	2.814393	-0.393279	541.200237	6.438359	13.519240	-0.074359	-2.498011	1.189645
1.710	2.860339	-0.348700	540.911954	6.434615	13.495397	-0.075340	-2.494934	1.189586
1.720	2.930074	-0.307420	540.589993	6.422635	13.474505	-0.076827	-2.492555	1.188079
1.730	3.011654	-0.273774	540.255489	6.402675	13.456616	-0.079113	-2.490787	1.185120
1.740	3.085357	-0.255194	539.939540	6.375330	13.443724	-0.081774	-2.489857	1.180749
1.750	3.130978	-0.259787	539.675833	6.342110	13.438840	-0.083782	-2.490169	1.175170
1.760	3.134775	-0.293151	539.492259	6.305279	13.444617	-0.083937	-2.492087	1.168743
1.770	3.093204	-0.355872	539.405020	6.267058	13.462305	-0.081373	-2.495769	1.161847
1.780	3.012519	-0.443097	539.416868	6.228829	13.491496	-0.075850	-2.501126	1.154734
1.790	2.905531	-0.546540	539.519694	6.190907	13.530550	-0.067650	-2.507888	1.147485
1.800	2.787715	-0.657721	539.700218	6.152984	13.577271	-0.057194	-2.515706	1.140074
1.810	2.674150	-0.770448	539.945879	6.114923	13.629421	-0.044695	-2.524220	1.132507
1.820	2.577368	-0.881112	540.247983	6.077430	13.684994	-0.030138	-2.533095	1.124933
1.830	2.505631	-0.987103	540.601502	6.042292	13.742351	-0.013663	-2.542048	1.117698
1.840	2.461567	-1.084921	541.003029	6.012086	13.800377	0.003880	-2.550887	1.111285
1.850	2.441699	-1.169465	541.447897	5.989441	13.858657	0.020626	-2.559555	1.106190
1.860	2.437435	-1.234874	541.926467	5.976071	13.917453	0.033978	-2.568144	1.102746
1.870	2.437738	-1.276249	542.420392	5.971909	13.977319	0.041421	-2.576842	1.100974
1.880	2.432831	-1.291448	542.901091	5.974787	14.038369	0.041443	-2.585806	1.100530
1.890	2.417403	-1.282401	543.332148	5.980993	14.099599	0.034078	-2.595024	1.100799
1.900	2.391634	-1.255484	543.675319	5.986559	14.158734	0.020868	-2.604263	1.101128
1.910	2.359430	-1.220429	543.898261	5.988625	14.212805	0.004387	-2.613137	1.101056
1.920	2.325206	-1.187674	543.981569	5.986161	14.259127	-0.012373	-2.621252	1.100435
1.930	2.291466	-1.164985	543.922899	5.979771	14.296063	-0.026576	-2.628325	1.099378
1.940	2.258689	-1.154979	543.736856	5.970916	14.323159	-0.036048	-2.634208	1.098126
1.950	2.226999	-1.154831	543.450777	5.961115	14.340774	-0.039704	-2.638836	1.096901
1.960	2.197831	-1.158333	543.097714	5.951493	14.349643	-0.037808	-2.642184	1.095842
1.970	2.174139	-1.159257	542.708596	5.942710	14.350707	-0.031889	-2.644275	1.095009
1.980	2.159268	-1.154483	542.305975	5.935112	14.345223	-0.024285	-2.645227	1.094421
1.990	2.155714	-1.145466	541.901485	5.928896	14.335036	-0.017428	-2.645321	1.094091
2.000	2.164865	-1.137333	541.497985	5.924205	14.322800	-0.013161	-2.645033	1.094040
2.010	2.187673	-1.136036	541.095710	5.921247	14.311915	-0.012314	-2.644988	1.094307
2.020	2.225269	-1.145027	540.700006	5.920525	14.306006	-0.014670	-2.645831	1.094974
2.030	2.278584	-1.163222	540.326653	5.923060	14.307988	-0.019291	-2.648026	1.096200
2.040	2.346963	-1.185278	540.000986	5.930395	14.319197	-0.025024	-2.651698	1.098219
2.050	2.426664	-1.203787	539.750367	5.944285	14.339110	-0.030935	-2.656619	1.101303
2.060	2.510204	-1.212024	539.594220	5.966142	14.365880	-0.036496	-2.662349	1.105672
2.070	2.586956	-1.205984	539.537834	5.996493	14.397430	-0.041469	-2.668475	1.111413
2.080	2.644844	-1.185286	539.573570	6.034733	14.432589	-0.045641	-2.674814	1.118426
2.090	2.672896	-1.153097	539.688029	6.079340	14.471765	-0.048609	-2.681506	1.126454
2.100	2.664221	-1.115169	539.869937	6.128342	14.516809	-0.049797	-2.688946	1.135151
2.110	2.618563	-1.077970	540.113235	6.179713	14.570044	-0.048733	-2.697591	1.144151
2.120	2.543213	-1.046235	540.413589	6.231548	14.632908	-0.045435	-2.707724	1.153107
2.130	2.451426	-1.020960	540.761847	6.282127	14.704907	-0.040625	-2.719294	1.161718
2.140	2.358677	-0.999035	541.140487	6.330055	14.783415	-0.035586	-2.731900	1.169762
2.150	2.278182	-0.975015	541.525900	6.374436	14.864343	-0.031727	-2.744900	1.177125
2.160	2.217439	-0.944311	541.893831	6.414990	14.943279	-0.030100	-2.757603	1.183809
2.170	2.177014	-0.906027	542.223243	6.452005	15.016589	-0.031116	-2.769448	1.189917
2.180	2.151796	-0.863729	542.496972	6.486190	15.082133	-0.034510	-2.780132	1.195618
2.190	2.133995	-0.823656	542.701369	6.518544	15.139456	-0.039493	-2.789648	1.201129
2.200	2.116459	-0.791478	542.827512	6.550239	15.189472	-0.045006	-2.798213	1.206689
2.210	2.094999	-0.769435	542.873653	6.582500	15.233765	-0.050026	-2.806135	1.212529
2.220	2.069146	-0.755243	542.846223	6.616439	15.273854	-0.053871	-2.813661	1.218842
2.230	2.041674	-0.743134	542.757472	6.652847	15.310763	-0.056426	-2.820922	1.225750
2.240	2.017492	-0.726576	542.620752	6.691920	15.345106	-0.058163	-2.827961	1.233259
2.250	2.002217	-0.701640	542.446431	6.732990	15.377525	-0.059905	-2.834847	1.241227
2.260	2.000533	-0.669571	542.240723	6.774397	15.409116	-0.062431	-2.841748	1.249334
2.270	2.014543	-0.637104	542.007487	6.813615	15.441520	-0.066076	-2.848949	1.257107
2.280	2.042616	-0.614041	541.751388	6.847715	15.476649	-0.070517	-2.856781	1.263996
2.290	2.079178	-0.609001	541.480793	6.874064	15.516247	-0.074881	-2.865521	1.269494
2.300	2.115780	-0.625344	541.209740	6.891106	15.561500	-0.078167	-2.875318	1.273278
2.310	2.143424	-0.659186	540.958805	6.898951	15.612747	-0.079778	-2.886125	1.275319
2.320	2.155625	-0.700445	540.753941	6.899518	15.669282	-0.079848	-2.897673	1.275907
2.330	2.150965	-0.736571	540.621992	6.896050	15.729312	-0.079111	-2.909484	1.275577
2.340	2.133673	-0.757596	540.583407	6.892068	15.790228	-0.078410	-2.920960	1.274931
2.350	2.111749	-0.760636	540.645370	6.890094	15.849217	-0.078159	-2.931537	1.274420
2.360	2.093678	-0.751956	540.799326	6.890626	15.904089	-0.078090	-2.940849	1.274156
2.370	2.085626	-0.745489	541.024582	6.891750	15.953967	-0.077394	-2.948843	1.273833
2.380	2.090313	-0.758166	541.296357	6.889607	15.999495	-0.075153	-2.955774	1.272798
