Time[s]	Fx[N]	Fy[N]	Fz[N]	Mx[Nm]	My[Nm]	Mz[Nm]	COPx[cm]	COPy[cm]
0.010	7.632409	-0.481019	734.161840	12.444889	7.331270	0.610676	-0.998590	1.695115
0.020	7.583842	-0.276732	734.573172	12.539410	7.373580	0.619616	-1.003791	1.707033
0.030	7.544575	-0.067151	734.783891	12.623009	7.410909	0.625996	-1.008583	1.717921
0.040	7.515519	0.149529	734.626963	12.684679	7.439143	0.628111	-1.012642	1.726683
0.050	7.484163	0.368626	733.989239	12.713740	7.455218	0.625777	-1.015712	1.732143
0.060	7.427201	0.578739	732.831856	12.700840	7.457830	0.620400	-1.017673	1.733118
0.070	7.319905	0.763490	731.201205	12.638959	7.447578	0.614492	-1.018540	1.728520
0.080	7.148571	0.904509	729.225392	12.523989	7.426178	0.610840	-1.018365	1.717437
0.090	6.920594	0.984496	727.093180	12.354450	7.395067	0.611679	-1.017073	1.699156
0.100	6.667064	0.989308	725.017219	12.130218	7.354188	0.618153	-1.014347	1.673094
0.110	6.435649	0.908594	723.190140	11.850645	7.301614	0.630226	-1.009640	1.638662
0.120	6.276221	0.735302	721.747039	11.512935	7.234165	0.646944	-1.002313	1.595148
0.130	6.225553	0.465009	720.747084	11.111798	7.148657	0.666842	-0.991840	1.541706
0.140	6.297748	0.096153	720.179324	10.640813	7.043368	0.688384	-0.978002	1.477523
0.150	6.483433	-0.368522	719.986819	10.094875	6.919330	0.710336	-0.961036	1.402092
0.160	6.755956	-0.919917	720.095451	9.472275	6.781145	0.732062	-0.941701	1.315419
0.170	7.079987	-1.541225	720.433484	8.775239	6.636983	0.753695	-0.921249	1.218050
0.180	7.418407	-2.208596	720.935191	8.009027	6.497547	0.776122	-0.901266	1.110922
0.190	7.736029	-2.894376	721.532652	7.180740	6.374147	0.800739	-0.883418	0.995207
0.200	8.001364	-3.572348	722.147316	6.299077	6.276505	0.828981	-0.869145	0.872270
0.210	8.188688	-4.223223	722.691882	5.375267	6.211089	0.861730	-0.859438	0.743784
0.220	8.281753	-4.838269	723.084404	4.424339	6.180461	0.898770	-0.854736	0.611870
0.230	8.278402	-5.419432	723.267212	3.465598	6.183669	0.938463	-0.854963	0.479159
0.240	8.193519	-5.975601	723.219856	2.521758	6.217348	0.977785	-0.859676	0.348685
0.250	8.057291	-6.516172	722.959319	1.617001	6.277153	1.012788	-0.868258	0.223664
0.260	7.907433	-7.044301	722.528285	0.774612	6.359224	1.039463	-0.880135	0.107209
0.270	7.777265	-7.552607	721.978064	0.014666	6.461432	1.054839	-0.894962	0.002031
0.280	7.684429	-8.023261	721.354619	-0.648139	6.584130	1.058036	-0.912745	-0.089850
0.290	7.625603	-8.432423	720.694400	-1.206458	6.730067	1.050881	-0.933831	-0.167402
0.300	7.580300	-8.757169	720.031789	-1.661727	6.903255	1.037772	-0.958743	-0.230785
0.310	7.522737	-8.982356	719.413176	-2.024355	7.107032	1.024685	-0.987893	-0.281390
0.320	7.436587	-9.105390	718.907576	-2.312048	7.342024	1.017592	-1.021275	-0.321606
0.330	7.325240	-9.137806	718.603818	-2.546370	7.605018	1.020761	-1.058305	-0.354350
0.340	7.211714	-9.103528	718.590209	-2.748463	7.889545	1.035455	-1.097920	-0.382480
0.350	7.127309	-9.034278	718.921680	-2.935301	8.188324	1.059435	-1.138973	-0.408292
0.360	7.094140	-8.963111	719.587922	-3.117600	8.496713	1.087457	-1.180775	-0.433248
0.370	7.110254	-8.917514	720.499214	-3.299821	8.815630	1.112728	-1.223545	-0.457991
0.380	7.144931	-8.914016	721.500854	-3.481815	9.152526	1.128908	-1.268540	-0.482579
0.390	7.146556	-8.955974	722.414296	-3.661113	9.519698	1.131994	-1.317762	-0.506789
0.400	7.059434	-9.035042	723.090668	-3.834829	9.930353	1.121367	-1.373321	-0.530339
0.410	6.842408	-9.135527	723.457364	-4.000545	10.393763	1.099650	-1.436679	-0.552976
0.420	6.482361	-9.239946	723.542385	-4.156135	10.911261	1.071487	-1.508033	-0.574415
0.430	5.998642	-9.333766	723.470015	-4.298998	11.474356	1.041790	-1.586017	-0.594219
0.440	5.438212	-9.407780	723.430230	-4.425359	12.065438	1.014181	-1.667810	-0.611719
0.450	4.864267	-9.457837	723.630263	-4.530184	12.660667	0.990179	-1.749604	-0.626036
0.460	4.342231	-9.483008	724.239919	-4.607708	13.234239	0.969221	-1.827328	-0.636213
0.470	3.926530	-9.483656	725.343036	-4.652190	13.763057	0.949261	-1.897455	-0.641378
0.480	3.650147	-9.460237	726.906249	-4.658420	14.230959	0.927560	-1.957743	-0.640856
0.490	3.517939	-9.412765	728.773370	-4.621877	14.631760	0.901460	-2.007724	-0.634199
0.500	3.504743	-9.340397	730.688808	-4.538774	14.970432	0.869124	-2.048811	-0.621164
0.510	3.559581	-9.240661	732.346563	-4.406459	15.261900	0.830184	-2.083972	-0.601690
0.520	3.616629	-9.108433	733.454479	-4.224441	15.527500	0.786107	-2.117037	-0.575965
0.530	3.611477	-8.935503	733.799088	-3.995910	15.789852	0.740042	-2.151795	-0.544551
0.540	3.498655	-8.711764	733.295292	-3.729143	16.067413	0.696052	-2.191125	-0.508546
0.550	3.265130	-8.428409	732.007321	-3.437842	16.370090	0.657952	-2.236329	-0.469646
0.560	2.935069	-8.082370	730.133361	-3.139748	16.697226	0.628226	-2.286873	-0.430024
0.570	2.563672	-7.680474	727.955656	-2.853598	17.038769	0.607546	-2.340633	-0.392002
0.580	2.221012	-7.241693	725.768530	-2.595375	17.379548	0.595118	-2.394641	-0.357604
0.590	1.969989	-6.796420	723.805333	-2.375178	17.705441	0.589611	-2.446161	-0.328151
0.600	1.844769	-6.382531	722.187939	-2.195810	18.009452	0.590068	-2.493735	-0.304050
0.610	1.836938	-6.038854	720.916322	-2.053538	18.295536	0.596275	-2.537817	-0.284851
0.620	1.895091	-5.797523	719.901067	-1.940764	18.578754	0.608438	-2.580737	-0.269588
0.630	1.939325	-5.677233	719.024581	-1.849690	18.881557	0.626461	-2.625996	-0.257250
0.640	1.886255	-5.679342	718.206724	-1.775655	19.227298	0.649342	-2.677126	-0.247235
0.650	1.675602	-5.787785	717.451837	-1.718825	19.632914	0.675131	-2.736478	-0.239574
0.660	1.288724	-5.972479	716.862736	-1.683526	20.103064	0.701490	-2.804311	-0.234846
0.670	0.753103	-6.195045	716.617791	-1.675532	20.627654	0.726458	-2.878474	-0.233811
0.680	0.132402	-6.415778	716.917965	-1.698536	21.183701	0.748915	-2.954829	-0.236922
0.690	-0.493539	-6.600929	717.920669	-1.751329	21.740983	0.768467	-3.028327	-0.243945
0.700	-1.051789	-6.729038	719.682757	-1.826856	22.269513	0.784919	-3.094351	-0.253842
0.710	-1.494857	-6.794601	722.131978	-1.913434	22.746160	0.797784	-3.149862	-0.264970
0.720	-1.808650	-6.807646	725.075034	-1.997561	23.158312	0.806178	-3.193919	-0.275497
0.730	-2.007776	-6.789073	728.236545	-2.067074	23.503844	0.809101	-3.227501	-0.283846
0.740	-2.121507	-6.763023	731.313485	-2.113433	23.788168	0.805871	-3.252800	-0.288991
0.750	-2.177706	-6.748530	734.027310	-2.132427	24.019997	0.796415	-3.272357	-0.290511
0.760	-2.192211	-6.752971	736.160590	-2.123325	24.207498	0.781280	-3.288345	-0.288432
0.770	-2.167445	-6.769369	737.573164	-2.087029	24.355930	0.761387	-3.302171	-0.282959
0.780	-2.098760	-6.778466	738.201036	-2.023893	24.467123	0.737654	-3.314426	-0.274166
0.790	-1.983380	-6.754812	738.045984	-1.931919	24.540507	0.710630	-3.325065	-0.261761
0.800	-1.826570	-6.674588	737.164168	-1.806015	24.575026	0.680248	-3.333725	-0.244995
0.810	-1.642400	-6.522405	735.658464	-1.638800	24.571161	0.645793	-3.340023	-0.222766
0.820	-1.449927	-6.294983	733.673566	-1.423069	24.532397	0.606187	-3.343776	-0.193965
0.830	-1.267920	-6.001089	731.387857	-1.155353	24.465670	0.560634	-3.345102	-0.157967
0.840	-1.111401	-5.658576	728.995372	-0.839366	24.380712	0.509463	-3.344426	-0.115140
0.850	-0.991678	-5.290296	726.676738	-0.487777	24.288592	0.454789	-3.342421	-0.067124
0.860	-0.918973	-4.920578	724.566907	-0.121112	24.200019	0.400565	-3.339929	-0.016715
0.870	-0.904825	-4.572874	722.733489	0.236198	24.123905	0.351856	-3.337870	0.032681
0.880	-0.961601	-4.268092	721.177531	0.561291	24.066458	0.313575	-3.337106	0.077830
0.890	-1.098661	-4.022810	719.859049	0.837790	24.030864	0.289282	-3.338274	0.116382
0.900	-1.317241	-3.847293	718.737933	1.058462	24.017408	0.280456	-3.341609	0.147267
0.910	-1.606766	-3.744126	717.813504	1.225061	24.023775	0.286332	-3.346799	0.170666
0.920	-1.943846	-3.708187	717.146182	1.346039	24.045175	0.304100	-3.352897	0.187694
0.930	-2.293723	-3.727902	716.852346	1.433472	24.074141	0.329314	-3.358312	0.199968
0.940	-2.613788	-3.787113	717.074738	1.500417	24.100190	0.356547	-3.360903	0.209241
0.950	-2.859402	-3.867120	717.940474	1.559103	24.109829	0.380367	-3.358193	0.217163
0.960	-2.991991	-3.948840	719.521690	1.619725	24.087317	0.396522	-3.347685	0.225111
0.970	-2.987716	-4.015169	721.809010	1.689415	24.016190	0.402964	-3.327222	0.234053
0.980	-2.843403	-4.053543	724.700208	1.771289	23.881215	0.400324	-3.295323	0.244417
0.990	-2.576611	-4.058343	728.002146	1.863821	23.670369	0.391622	-3.251415	0.256019
1.000	-2.219046	-4.032210	731.444895	1.960865	23.376546	0.381301	-3.195941	0.268081
1.010	-1.805716	-3.985145	734.708457	2.052554	22.998804	0.373917	-3.130331	0.279370
1.020	-1.364276	-3.931126	737.460477	2.127062	22.542896	0.372880	-3.056828	0.288431
1.030	-0.908769	-3.883649	739.399107	2.172902	22.020859	0.379639	-2.978210	0.293874
1.040	-0.439727	-3.852531	740.293038	2.181217	21.449592	0.393506	-2.897446	0.294642
1.050	0.050205	-3.843553	740.012318	2.147476	20.848711	0.412124	-2.817346	0.290195
1.060	0.567875	-3.860521	738.546518	2.072210	20.238206	0.432358	-2.740275	0.280580
1.070	1.111713	-3.907679	736.008651	1.960716	19.636475	0.451283	-2.667968	0.266399
1.080	1.666674	-3.990145	732.624013	1.821961	19.059087	0.466932	-2.601483	0.248690
1.090	2.203181	-4.111357	728.704538	1.667011	18.518143	0.478646	-2.541242	0.228764
1.100	2.680510	-4.268692	724.612310	1.507299	18.021723	0.487022	-2.487085	0.208015
1.110	3.054630	-4.450214	720.718833	1.352955	17.572917	0.493623	-2.438249	0.187723
1.120	3.289586	-4.635422	717.366813	1.211385	17.168561	0.500598	-2.393275	0.168866
1.130	3.369683	-4.800675	714.838651	1.086334	16.798475	0.510289	-2.349967	0.151969
1.140	3.308315	-4.927081	713.332799	0.977780	16.446199	0.524777	-2.305544	0.137072
1.150	3.149598	-5.006995	712.947470	0.882893	16.091659	0.545322	-2.257061	0.123837
1.160	2.961102	-5.045859	713.671705	0.797738	15.715220	0.571843	-2.202024	0.111779
1.170	2.819238	-5.058547	715.386140	0.718889	15.301800	0.602704	-2.138957	0.100490
1.180	2.791710	-5.062174	717.877046	0.644084	14.843592	0.635058	-2.067707	0.089721
1.190	2.922752	-5.069020	720.864655	0.571749	14.340598	0.665722	-1.989361	0.079314
1.200	3.225695	-5.082945	724.041371	0.499916	13.799249	0.692236	-1.905865	0.069045
1.210	3.684153	-5.100621	727.110715	0.425407	13.230155	0.713634	-1.819552	0.058507
1.220	4.259649	-5.116439	729.817288	0.343813	12.646020	0.730650	-1.732765	0.047110
1.230	4.901705	-5.128402	731.962705	0.250270	12.060102	0.745381	-1.647639	0.034192
1.240	5.557217	-5.142286	733.409733	0.140669	11.485020	0.760632	-1.565976	0.019180
1.250	6.177894	-5.172304	734.081588	0.012875	10.931557	0.779171	-1.489147	0.001754
1.260	6.725967	-5.237862	733.961805	-0.132406	10.407425	0.803009	-1.417979	-0.018040
1.270	7.178336	-5.357325	733.094523	-0.291421	9.916342	0.832828	-1.352669	-0.039752
1.280	7.528514	-5.540991	731.581256	-0.458024	9.457957	0.867737	-1.292810	-0.062607
1.290	7.785184	-5.785944	729.570944	-0.625173	9.028927	0.905485	-1.237567	-0.085691
1.300	7.966760	-6.074971	727.243050	-0.786867	8.624968	0.943114	-1.185982	-0.108199
1.310	8.093123	-6.380246	724.786204	-0.939870	8.243119	0.977823	-1.137317	-0.129675
1.320	8.177608	-6.670683	722.376398	-1.084548	7.883269	1.007733	-1.091297	-0.150136
1.330	8.222887	-6.920538	720.159235	-1.224468	7.548295	1.032265	-1.048143	-0.170027
1.340	8.222715	-7.116424	718.240058	-1.364806	7.242781	1.052034	-1.008407	-0.190021
1.350	8.168543	-7.260471	716.684195	-1.509936	6.970904	1.068346	-0.972661	-0.210684
1.360	8.057627	-7.368472	715.526629	-1.660787	6.734323	1.082598	-0.941170	-0.232107
1.370	7.898849	-7.463540	714.786230	-1.812856	6.530941	1.095787	-0.913692	-0.253622
1.380	7.713764	-7.567448	714.476724	-1.955848	6.355149	1.108291	-0.889483	-0.273745
1.390	7.532468	-7.692800	714.608140	-2.075464	6.199545	1.119921	-0.867545	-0.290434
1.400	7.385790	-7.838695	715.178575	-2.156903	6.057336	1.130174	-0.846968	-0.301589
1.410	7.296730	-7.991071	716.162685	-2.188737	5.924206	1.138494	-0.827215	-0.305620
1.420	7.274584	-8.126978	717.505349	-2.165678	5.798653	1.144386	-0.808169	-0.301834
1.430	7.314408	-8.220723	719.125441	-2.089322	5.680751	1.147361	-0.789953	-0.290536
1.440	7.402163	-8.249728	720.928145	-1.966910	5.570214	1.146872	-0.772645	-0.272830
1.450	7.522977	-8.199050	722.818944	-1.808914	5.465063	1.142415	-0.756076	-0.250258
1.460	7.667982	-8.064505	724.711110	-1.626557	5.361743	1.133820	-0.739846	-0.224442
1.470	7.835597	-7.854299	726.522727	-1.430076	5.256584	1.121557	-0.723526	-0.196838
1.480	8.026225	-7.588467	728.167177	-1.227867	5.147792	1.106866	-0.706952	-0.168624
1.490	8.233498	-7.295530	729.547122	-1.026144	5.036864	1.091532	-0.690410	-0.140655
1.500	8.438057	-7.006753	730.560764	-0.828738	4.928609	1.077316	-0.674634	-0.113439
1.510	8.609145	-6.749539	731.120740	-0.636960	4.829633	1.065204	-0.660579	-0.087121
1.520	8.714925	-6.541929	731.176690	-0.449777	4.745881	1.054763	-0.649074	-0.061514
1.530	8.736845	-6.389779	730.729771	-0.264507	4.680357	1.044006	-0.640504	-0.036198
1.540	8.680245	-6.287355	729.832559	-0.077980	4.632037	1.029986	-0.634671	-0.010685
1.550	8.574995	-6.221062	728.575968	0.112245	4.596474	1.010046	-0.630885	0.015406
1.560	8.464890	-6.175003	727.069793	0.307135	4.567845	0.983185	-0.628254	0.042243
1.570	8.389904	-6.136252	725.423160	0.506287	4.541701	0.950855	-0.626076	0.069792
1.580	8.368926	-6.097607	723.729046	0.708947	4.517425	0.916789	-0.624187	0.097958
1.590	8.390943	-6.056622	722.056646	0.915525	4.499425	0.885911	-0.623140	0.126794
1.600	8.419203	-6.011593	720.455338	1.128879	4.496356	0.862763	-0.624099	0.156690
1.610	8.406935	-5.956938	718.970480	1.354628	4.518340	0.850031	-0.628446	0.188412
1.620	8.317627	-5.880717	717.664461	1.600238	4.573095	0.847661	-0.637219	0.222979
1.630	8.140879	-5.765753	716.631000	1.873253	4.662566	0.852885	-0.650623	0.261397
1.640	7.897094	-5.593927	715.991217	2.179416	4.781574	0.861185	-0.667826	0.304391
1.650	7.629487	-5.351936	715.867966	2.521316	4.918998	0.867838	-0.687138	0.352204
1.660	7.387472	-5.036369	716.347021	2.897840	5.060852	0.869451	-0.706480	0.404530
1.670	7.209030	-4.656330	717.442088	3.304263	5.193924	0.864848	-0.723950	0.460562
1.680	7.109468	-4.232618	719.079059	3.732728	5.308777	0.854947	-0.738275	0.519098
1.690	7.080393	-3.793596	721.105310	4.172950	5.401370	0.841763	-0.749040	0.578688
1.700	7.097780	-3.369000	723.319464	4.613244	5.473131	0.827061	-0.756669	0.637788
1.710	7.134264	-2.983721	725.510877	5.041975	5.529637	0.811377	-0.762171	0.694955
1.720	7.169845	-2.653550	727.496626	5.449245	5.578340	0.793911	-0.766786	0.749041
1.730	7.196945	-2.384001	729.145960	5.828173	5.626032	0.773367	-0.771592	0.799315
1.740	7.219225	-2.172044	730.387121	6.175202	5.676792	0.749228	-0.777231	0.845470
1.750	7.246803	-2.009771	731.198109	6.489367	5.731032	0.722660	-0.783787	0.887498
1.760	7.291549	-1.888611	731.588571	6.771137	5.785846	0.696454	-0.790861	0.925539
1.770	7.364415	-1.802637	731.581535	7.021629	5.836440	0.673996	-0.797784	0.959788
1.780	7.473987	-1.749785	731.201257	7.242633	5.878179	0.657889	-0.803907	0.990512
1.790	7.624211	-1.730760	730.469744	7.437181	5.908673	0.648981	-0.808887	1.018137
1.800	7.810615	-1.746431	729.411245	7.610016	5.929322	0.646188	-0.812891	1.043309
1.810	8.016933	-1.794962	728.061239	7.767440	5.945749	0.647050	-0.816655	1.066866
1.820	8.215368	-1.869576	726.474742	7.916632	5.966837	0.648629	-0.821341	1.089733
1.830	8.372368	-1.957191	724.729614	8.064744	6.002607	0.648361	-0.828255	1.112794
1.840	8.458510	-2.038100	722.923386	8.218021	6.061697	0.644542	-0.838498	1.136776
1.850	8.458257	-2.087307	721.164707	8.380817	6.149429	0.636383	-0.852708	1.162122
1.860	8.375005	-2.078540	719.561337	8.554449	6.267183	0.623843	-0.870973	1.188842
1.870	8.229078	-1.991162	718.206715	8.736121	6.413245	0.607474	-0.892952	1.216380
1.880	8.049498	-1.818432	717.167482	8.918594	6.584742	0.588391	-0.918160	1.243586
1.890	7.862758	-1.573618	716.475170	9.091299	6.779881	0.568226	-0.946283	1.268892
1.900	7.682769	-1.290214	716.125052	9.242981	6.999580	0.548947	-0.977424	1.290694
1.910	7.505671	-1.014650	716.083384	9.365007	7.247820	0.532533	-1.012147	1.307810
1.920	7.311679	-0.793365	716.301266	9.453869	7.530473	0.520628	-1.051300	1.319817
1.930	7.073727	-0.658943	716.730351	9.511610	7.853052	0.514272	-1.095677	1.327083
1.940	6.769859	-0.620556	717.334266	9.543818	8.218262	0.513783	-1.145667	1.330456
1.950	6.394470	-0.662450	718.091203	9.555961	8.624339	0.518819	-1.201009	1.330745
1.960	5.963470	-0.751187	718.987076	9.549678	9.064768	0.528633	-1.260769	1.328213
1.970	5.510617	-0.849126	720.003211	9.520677	9.529438	0.542431	-1.323527	1.322310
1.980	5.075896	-0.929103	721.105433	9.459284	10.006811	0.559706	-1.387704	1.311775
1.990	4.690711	-0.984491	722.241072	9.353508	10.486393	0.580409	-1.451924	1.295067
2.000	4.366587	-1.030562	723.346260	9.193396	10.960703	0.604875	-1.515277	1.270954
2.010	4.092673	-1.096886	724.359959	8.974891	11.426148	0.633465	-1.577413	1.239010
2.020	3.842889	-1.214667	725.237378	8.701778	11.882683	0.666043	-1.638454	1.199852
2.030	3.588741	-1.404956	725.956220	8.385206	12.332577	0.701494	-1.698805	1.155057
2.040	3.311192	-1.672343	726.513737	8.041225	12.778853	0.737585	-1.758928	1.106824
2.050	3.006122	-2.005118	726.917317	7.687282	13.223944	0.771301	-1.819181	1.057518
2.060	2.681937	-2.379682	727.174242	7.338740	13.668815	0.799538	-1.879717	1.009213
2.070	2.352304	-2.766057	727.286420	7.006290	14.112579	0.819861	-1.940443	0.963347
2.080	2.028976	-3.132619	727.253373	6.694814	14.552549	0.831027	-2.001029	0.920561
2.090	1.718587	-3.450061	727.082308	6.403735	14.984570	0.833200	-2.060918	0.880744
2.100	1.424403	-3.695496	726.800074	6.128458	15.403465	0.827822	-2.119354	0.843211
2.110	1.151109	-3.857107	726.460382	5.862296	15.803501	0.817224	-2.175411	0.806967
2.120	0.909072	-3.938352	726.141178	5.598381	16.178877	0.804021	-2.228062	0.770977
2.130	0.714745	-3.959666	725.930532	5.331197	16.524339	0.790501	-2.276298	0.734395
2.140	0.585763	-3.955800	725.903807	5.057549	16.835902	0.778235	-2.319302	0.696724
2.150	0.532196	-3.968539	726.099110	4.776873	17.111544	0.768050	-2.356640	0.657882
2.160	0.548106	-4.036555	726.500973	4.490934	17.351663	0.760287	-2.388388	0.618159
2.170	0.608617	-4.185659	727.041309	4.203120	17.559057	0.755110	-2.415139	0.578113
2.180	0.675737	-4.422940	727.620175	3.917596	17.738165	0.752648	-2.437833	0.538412
2.190	0.711672	-4.736889	728.139231	3.638689	17.893648	0.752923	-2.457449	0.499724
2.200	0.693812	-5.102850	728.534202	3.370674	18.028762	0.755644	-2.474662	0.462665
2.210	0.624060	-5.490581	728.793075	3.117968	18.144266	0.760034	-2.489632	0.427826
2.220	0.527834	-5.870308	728.953276	2.885514	18.238438	0.764781	-2.502004	0.395843
2.230	0.443218	-6.215537	729.079658	2.679189	18.308163	0.768117	-2.511133	0.367475
2.240	0.405461	-6.503554	729.232462	2.505899	18.350445	0.768022	-2.516405	0.343635
2.250	0.433764	-6.715759	729.438374	2.372982	18.363468	0.762505	-2.517480	0.325316
2.260	0.525713	-6.839263	729.676981	2.286805	18.346722	0.749979	-2.514362	0.313400
2.270	0.660822	-6.869485	729.888714	2.250948	18.300330	0.729666	-2.507277	0.308396
2.280	0.810593	-6.812285	730.000548	2.264731	18.224132	0.701955	-2.496455	0.310237
2.290	0.950195	-6.684107	729.957356	2.322637	18.117086	0.668506	-2.481938	0.318188
2.300	1.066988	-6.509341	729.744895	2.414748	17.977261	0.631973	-2.463499	0.330903
2.310	1.162985	-6.315383	729.395415	2.527965	17.802422	0.595386	-2.440709	0.346584
2.320	1.251322	-6.127011	728.974831	2.647838	17.590970	0.561458	-2.413111	0.363228
2.330	1.349643	-5.962042	728.556912	2.760895	17.342858	0.532143	-2.380440	0.378954
2.340	1.474615	-5.829464	728.193435	2.857210	17.060181	0.508560	-2.342809	0.392370
2.350	1.640166	-5.729966	727.890552	2.932563	16.747339	0.491139	-2.300805	0.402885
2.360	1.858588	-5.658031	727.600583	2.989357	16.410876	0.479779	-2.255479	0.410851
2.370	2.140940	-5.604714	727.234105	3.035872	16.059192	0.473913	-2.208256	0.417455
2.380	2.493895	-5.560359	726.689775	3.084149	15.702146	0.472561	-2.160777	0.424411
