Time[s]	Fx[N]	Fy[N]	Fz[N]	Mx[Nm]	My[Nm]	Mz[Nm]	COPx[cm]	COPy[cm]
0.010	4.441508	-1.132609	599.158906	-0.057405	-1.107708	-0.360696	0.184877	-0.009581
0.020	4.341981	-1.130959	598.980868	0.012977	-1.048582	-0.351270	0.175061	0.002167
0.030	4.247591	-1.124040	598.804214	0.080017	-0.991663	-0.341750	0.165607	0.013363
0.040	4.161378	-1.109166	598.637168	0.141429	-0.938437	-0.332143	0.156762	0.023625
0.050	4.082649	-1.086996	598.496739	0.196642	-0.889454	-0.322766	0.148615	0.032856
0.060	4.007467	-1.061245	598.404437	0.246867	-0.844262	-0.314318	0.141085	0.041254
0.070	3.930839	-1.036920	598.377933	0.294582	-0.801649	-0.307701	0.133970	0.049230
0.080	3.849667	-1.017840	598.423279	0.342538	-0.760166	-0.303642	0.127028	0.057240
0.090	3.765153	-1.004693	598.531424	0.392673	-0.718768	-0.302372	0.120089	0.065606
0.100	3.683457	-0.994529	598.679928	0.445506	-0.677352	-0.303570	0.113141	0.074415
0.110	3.614086	-0.981776	598.838208	0.500283	-0.636896	-0.306473	0.106355	0.083542
0.120	3.566567	-0.960173	598.974294	0.555756	-0.599027	-0.309996	0.100009	0.092785
0.130	3.546939	-0.924934	599.061918	0.611106	-0.565194	-0.312798	0.094347	0.102011
0.140	3.555701	-0.874595	599.087182	0.666580	-0.535854	-0.313445	0.089445	0.111266
0.150	3.587947	-0.811905	599.053501	0.723547	-0.510094	-0.310785	0.085150	0.120782
0.160	3.635196	-0.743204	598.983277	0.783985	-0.485819	-0.304456	0.081107	0.130886
0.170	3.687728	-0.676214	598.915093	0.849601	-0.460331	-0.295219	0.076861	0.141857
0.180	3.736495	-0.616934	598.895592	0.920961	-0.431043	-0.284907	0.071973	0.153777
0.190	3.774372	-0.566981	598.966081	0.996973	-0.396143	-0.275931	0.066138	0.166449
0.200	3.797025	-0.522770	599.146148	1.074954	-0.355011	-0.270541	0.059253	0.179414
0.210	3.803549	-0.477248	599.419710	1.151284	-0.308284	-0.270112	0.051430	0.192066
0.220	3.796527	-0.423641	599.730479	1.222458	-0.257519	-0.274680	0.042939	0.203835
0.230	3.780947	-0.359414	599.992107	1.286129	-0.204547	-0.282878	0.034092	0.214358
0.240	3.761891	-0.288305	600.112968	1.341686	-0.150675	-0.292299	0.025108	0.223572
0.250	3.741775	-0.219221	600.028309	1.390045	-0.095997	-0.300244	0.015999	0.231663
0.260	3.718608	-0.162475	599.727148	1.432716	-0.039046	-0.304605	0.006511	0.238895
0.270	3.686407	-0.125327	599.261982	1.470703	0.023034	-0.304584	-0.003844	0.245419
0.280	3.637682	-0.109119	598.736285	1.503874	0.093737	-0.300890	-0.015656	0.251175
0.290	3.566707	-0.109369	598.274186	1.531145	0.175988	-0.295370	-0.029416	0.255927
0.300	3.471868	-0.118460	597.983805	1.551335	0.270837	-0.290220	-0.045292	0.259428
0.310	3.356144	-0.129270	597.927033	1.564217	0.376621	-0.287163	-0.062988	0.261607
0.320	3.225988	-0.137789	598.104587	1.571253	0.489050	-0.286906	-0.081767	0.262705
0.330	3.089708	-0.143612	598.458774	1.575626	0.602286	-0.289078	-0.100640	0.263281
0.340	2.956230	-0.148480	598.891276	1.581474	0.710531	-0.292593	-0.118641	0.264067
0.350	2.834193	-0.154043	599.290362	1.592569	0.809415	-0.296194	-0.135062	0.265742
0.360	2.730936	-0.160183	599.560238	1.610992	0.896648	-0.298890	-0.149551	0.268696
0.370	2.651344	-0.164738	599.644557	1.636375	0.971795	-0.300150	-0.162062	0.272891
0.380	2.596944	-0.164638	599.537704	1.665995	1.035485	-0.299924	-0.172714	0.277880
0.390	2.565442	-0.157687	599.281628	1.695668	1.088505	-0.298630	-0.181635	0.282950
0.400	2.550606	-0.143904	598.950693	1.721027	1.131195	-0.297085	-0.188863	0.287340
0.410	2.542702	-0.125750	598.629787	1.738663	1.163387	-0.296258	-0.194342	0.290440
0.420	2.530167	-0.107296	598.391565	1.746736	1.184812	-0.296858	-0.197999	0.291905
0.430	2.502797	-0.092821	598.278778	1.745057	1.195777	-0.299011	-0.199869	0.291680
0.440	2.455401	-0.085337	598.297339	1.734914	1.197734	-0.302281	-0.200190	0.289975
0.450	2.390033	-0.085567	598.422705	1.718817	1.193415	-0.306040	-0.199427	0.287225
0.460	2.315487	-0.091779	598.615682	1.700077	1.186319	-0.309938	-0.198177	0.284001
0.470	2.244225	-0.100610	598.838643	1.681986	1.179633	-0.314134	-0.196987	0.280875
0.480	2.188123	-0.108633	599.064025	1.666665	1.175023	-0.319185	-0.196143	0.278211
0.490	2.154763	-0.114034	599.273327	1.654074	1.171876	-0.325657	-0.195549	0.276013
0.500	2.145578	-0.117675	599.450873	1.641820	1.167419	-0.333699	-0.194748	0.273887
0.510	2.156269	-0.123019	599.578303	1.626051	1.157710	-0.342781	-0.193087	0.271199
0.520	2.179085	-0.134814	599.633489	1.603036	1.139062	-0.351725	-0.189960	0.267336
0.530	2.205948	-0.156988	599.594499	1.570650	1.109289	-0.359024	-0.185007	0.261952
0.540	2.231342	-0.190802	599.447095	1.529042	1.068338	-0.363335	-0.178221	0.255075
0.550	2.253967	-0.234324	599.193097	1.480321	1.018187	-0.363941	-0.169926	0.247052
0.560	2.276595	-0.283514	598.856439	1.427568	0.962134	-0.360953	-0.160662	0.238382
0.570	2.304137	-0.334236	598.483902	1.373756	0.903761	-0.355191	-0.151008	0.229539
0.580	2.340827	-0.384033	598.138474	1.320986	0.845907	-0.347825	-0.141423	0.220850
0.590	2.387960	-0.432806	597.885484	1.270205	0.790024	-0.340025	-0.132136	0.212450
0.600	2.443281	-0.482256	597.775041	1.221287	0.736093	-0.332789	-0.123139	0.204305
0.610	2.502139	-0.534626	597.827088	1.173366	0.683038	-0.327020	-0.114253	0.196272
0.620	2.559475	-0.591496	598.025293	1.125360	0.629367	-0.323701	-0.105241	0.188179
0.630	2.611481	-0.653115	598.322373	1.076551	0.573798	-0.323941	-0.095901	0.179928
0.640	2.656375	-0.718227	598.654288	1.026982	0.515788	-0.328716	-0.086158	0.171548
0.650	2.694510	-0.784158	598.957297	0.977384	0.455925	-0.338370	-0.076120	0.163181
0.660	2.728199	-0.847165	599.182135	0.928621	0.396104	-0.352198	-0.066107	0.154981
0.670	2.761171	-0.903223	599.302310	0.880961	0.339270	-0.368411	-0.056611	0.146998
0.680	2.797280	-0.949155	599.316148	0.833642	0.288571	-0.384561	-0.048150	0.139099
0.690	2.838643	-0.983564	599.243477	0.785161	0.246140	-0.398245	-0.041075	0.131025
0.700	2.884237	-1.006998	599.118432	0.734356	0.212078	-0.407758	-0.035398	0.122573
0.710	2.930093	-1.021280	598.980396	0.681779	0.184220	-0.412451	-0.030756	0.113823
0.720	2.971250	-1.028467	598.865400	0.630483	0.158895	-0.412689	-0.026533	0.105280
0.730	3.004256	-1.030158	598.799624	0.585481	0.132309	-0.409531	-0.022096	0.097776
0.740	3.028520	-1.027606	598.795359	0.551971	0.101891	-0.404319	-0.017016	0.092180
0.750	3.045737	-1.022483	598.849173	0.533176	0.066912	-0.398350	-0.011173	0.089033
0.760	3.058038	-1.017552	598.942835	0.528941	0.027982	-0.392712	-0.004672	0.088312
0.770	3.066376	-1.016440	599.047926	0.535815	-0.014327	-0.388209	0.002392	0.089444
0.780	3.070303	-1.022213	599.133576	0.548553	-0.060952	-0.385281	0.010173	0.091558
0.790	3.069366	-1.035382	599.174588	0.562263	-0.115076	-0.383900	0.019206	0.093840
0.800	3.065371	-1.052623	599.156701	0.574131	-0.181768	-0.383557	0.030337	0.095823
0.810	3.064140	-1.067360	599.077666	0.584008	-0.266712	-0.383428	0.044520	0.097484
0.820	3.075442	-1.072349	598.945187	0.593779	-0.374532	-0.382696	0.062532	0.099137
0.830	3.110655	-1.063071	598.774002	0.605986	-0.507301	-0.380877	0.084723	0.101204
0.840	3.179104	-1.040062	598.583738	0.622427	-0.663686	-0.377983	0.110876	0.103983
0.850	3.284850	-1.008904	598.397666	0.643383	-0.839032	-0.374483	0.140213	0.107518
0.860	3.425351	-0.978040	598.241143	0.667759	-1.026365	-0.371116	0.171564	0.111620
0.870	3.592293	-0.955788	598.138505	0.693908	-1.217975	-0.368667	0.203628	0.116011
0.880	3.773870	-0.948030	598.108692	0.720447	-1.406983	-0.367757	0.235239	0.120454
0.890	3.957462	-0.957212	598.161436	0.746526	-1.588349	-0.368685	0.265539	0.124803
0.900	4.131961	-0.982344	598.295463	0.771507	-1.759157	-0.371335	0.294028	0.128951
0.910	4.289474	-1.019361	598.498383	0.794509	-1.918313	-0.375163	0.320521	0.132750
0.920	4.426310	-1.061638	598.747500	0.814321	-2.065856	-0.379279	0.345030	0.136004
0.930	4.542923	-1.100945	599.012132	0.829906	-2.202103	-0.382635	0.367622	0.138546
0.940	4.642470	-1.129196	599.258926	0.841346	-2.326908	-0.384287	0.388298	0.140398
0.950	4.728226	-1.140624	599.460180	0.850602	-2.439370	-0.383634	0.406928	0.141895
0.960	4.801130	-1.133379	599.602637	0.861407	-2.538163	-0.380550	0.423307	0.143663
0.970	4.859169	-1.109609	599.692552	0.878036	-2.622306	-0.375354	0.437275	0.146414
0.980	4.899437	-1.074056	599.753459	0.903573	-2.691935	-0.368669	0.448840	0.150657
0.990	4.921771	-1.032118	599.815822	0.938664	-2.748679	-0.361235	0.458254	0.156492
1.000	4.931457	-0.988459	599.901515	0.981327	-2.795568	-0.353722	0.466005	0.163581
1.010	4.938827	-0.946546	600.009095	1.027734	-2.836570	-0.346609	0.472755	0.171286
1.020	4.955518	-0.908721	600.107131	1.073486	-2.875788	-0.340122	0.479212	0.178882
1.030	4.989296	-0.876367	600.140957	1.114963	-2.916348	-0.334267	0.485944	0.185784
1.040	5.039995	-0.850057	600.052556	1.150386	-2.959272	-0.328911	0.493169	0.191714
1.050	5.098419	-0.829828	599.806022	1.180254	-3.002835	-0.323847	0.500634	0.196773
1.060	5.148813	-0.815516	599.407319	1.206941	-3.042805	-0.318841	0.507636	0.201356
1.070	5.174335	-0.806871	598.909695	1.233633	-3.073549	-0.313674	0.513191	0.205980
1.080	5.163682	-0.803411	598.402769	1.263111	-3.089648	-0.308221	0.516316	0.211080
1.090	5.116165	-0.804212	597.989206	1.296815	-3.087519	-0.302507	0.516317	0.216863
1.100	5.042818	-0.807889	597.756277	1.334376	-3.066518	-0.296708	0.513005	0.223231
1.110	4.962820	-0.812780	597.751029	1.373663	-3.029245	-0.291095	0.506774	0.229805
1.120	4.896842	-0.817235	597.966914	1.411344	-2.981049	-0.285951	0.498531	0.236024
1.130	4.860327	-0.819936	598.345706	1.443836	-2.928946	-0.281512	0.489507	0.241305
1.140	4.859385	-0.820113	598.793415	1.468328	-2.880222	-0.277908	0.481004	0.245214
1.150	4.890424	-0.817569	599.205167	1.483557	-2.841010	-0.275123	0.474130	0.247588
1.160	4.942942	-0.812498	599.492011	1.490136	-2.815185	-0.272966	0.469595	0.248566
1.170	5.003913	-0.805231	599.601920	1.490352	-2.803858	-0.271126	0.467620	0.248557
1.180	5.061971	-0.795936	599.529009	1.487511	-2.805527	-0.269347	0.467955	0.248113
1.190	5.110032	-0.784405	599.309455	1.485044	-2.816749	-0.267691	0.469999	0.247793
1.200	5.145918	-0.770126	599.007571	1.485732	-2.833043	-0.266751	0.472956	0.248032
1.210	5.171264	-0.752702	598.697911	1.491276	-2.849836	-0.267625	0.476006	0.249087
1.220	5.189420	-0.732252	598.448608	1.502260	-2.863283	-0.271564	0.478451	0.251026
1.230	5.203320	-0.709470	598.309098	1.518394	-2.870848	-0.279397	0.479827	0.253781
1.240	5.214311	-0.685326	598.303415	1.538931	-2.871540	-0.291030	0.479947	0.257216
1.250	5.222538	-0.660714	598.428699	1.563106	-2.865765	-0.305297	0.478882	0.261202
1.260	5.228660	-0.636200	598.657588	1.590350	-2.854893	-0.320290	0.476883	0.265653
1.270	5.235724	-0.611897	598.943261	1.620122	-2.840736	-0.333998	0.474291	0.270497
1.280	5.249592	-0.587550	599.227008	1.651535	-2.825103	-0.344952	0.471458	0.275611
1.290	5.276899	-0.562936	599.448753	1.683180	-2.809437	-0.352566	0.468670	0.280788
1.300	5.321137	-0.538439	599.559584	1.713495	-2.794523	-0.357069	0.466096	0.285792
1.310	5.379184	-0.515313	599.533149	1.741608	-2.780306	-0.359121	0.463745	0.290494
1.320	5.440828	-0.495164	599.372540	1.768243	-2.765905	-0.359387	0.461467	0.295016
1.330	5.492133	-0.478788	599.110815	1.796075	-2.749799	-0.358289	0.458980	0.299790
1.340	5.521050	-0.465156	598.804683	1.829033	-2.730142	-0.356065	0.455932	0.305447
1.350	5.522365	-0.451460	598.521735	1.870578	-2.705070	-0.353045	0.451958	0.312533
1.360	5.499645	-0.434371	598.323310	1.921685	-2.672908	-0.349877	0.446733	0.321178
1.370	5.463428	-0.411764	598.247846	1.979699	-2.632313	-0.347522	0.440004	0.330916
1.380	5.426557	-0.383831	598.301052	2.038816	-2.582386	-0.346980	0.431620	0.340768
1.390	5.398809	-0.352884	598.456925	2.092082	-2.522812	-0.348929	0.421553	0.349579
1.400	5.383249	-0.321868	598.668411	2.133969	-2.453967	-0.353497	0.409904	0.356453
1.410	5.375878	-0.292427	598.882361	2.162379	-2.376945	-0.360270	0.396897	0.361069
1.420	5.368307	-0.263819	599.053345	2.179314	-2.293370	-0.368491	0.382832	0.363793
1.430	5.351687	-0.233601	599.153310	2.189969	-2.204866	-0.377322	0.367997	0.365511
1.440	5.319836	-0.199795	599.175957	2.200664	-2.112339	-0.386006	0.352541	0.367282
1.450	5.270442	-0.163055	599.135128	2.216433	-2.015505	-0.393857	0.336402	0.369939
1.460	5.204463	-0.127215	599.057374	2.239233	-1.913106	-0.400146	0.319353	0.373793
1.470	5.124699	-0.097697	598.971003	2.267441	-1.803816	-0.404027	0.301153	0.378556
1.480	5.034652	-0.078766	598.896152	2.296775	-1.687331	-0.404714	0.281740	0.383501
1.490	4.938193	-0.071453	598.840386	2.322153	-1.564985	-0.401885	0.261336	0.387775
1.500	4.839768	-0.073384	598.801490	2.339675	-1.439514	-0.396063	0.240399	0.390726
1.510	4.744452	-0.080336	598.775117	2.347943	-1.314059	-0.388637	0.219458	0.392124
1.520	4.657312	-0.088278	598.762215	2.348291	-1.190919	-0.381382	0.198897	0.392191
1.530	4.582225	-0.094730	598.771397	2.343986	-1.070670	-0.375707	0.178811	0.391466
1.540	4.520838	-0.099053	598.814455	2.338773	-0.952047	-0.372057	0.158989	0.390567
1.550	4.472273	-0.102015	598.897364	2.335331	-0.832544	-0.369846	0.139013	0.389938
1.560	4.433495	-0.105169	599.011804	2.334175	-0.709268	-0.367952	0.118406	0.389671
1.570	4.399794	-0.110309	599.132226	2.333432	-0.579576	-0.365394	0.096736	0.389469
1.580	4.365129	-0.119071	599.221128	2.329569	-0.441305	-0.361778	0.073646	0.388766
1.590	4.322599	-0.132554	599.241638	2.318811	-0.292754	-0.357274	0.048854	0.386958
1.600	4.265387	-0.150917	599.172962	2.298694	-0.132664	-0.352262	0.022141	0.383644
1.610	4.188149	-0.173032	599.021920	2.269091	0.039639	-0.346999	-0.006617	0.378799
1.620	4.088477	-0.196580	598.824200	2.232285	0.223965	-0.341549	-0.037401	0.372778
1.630	3.967894	-0.218873	598.632897	2.192101	0.418980	-0.335951	-0.069989	0.366185
1.640	3.832000	-0.238194	598.498362	2.152593	0.622188	-0.330405	-0.103958	0.359666
1.650	3.689671	-0.254870	598.448838	2.116901	0.830365	-0.325320	-0.138753	0.353731
1.660	3.551435	-0.271262	598.481643	2.086621	1.040357	-0.321187	-0.173833	0.348653
1.670	3.427179	-0.290475	598.568603	2.061631	1.249840	-0.318366	-0.208805	0.344427
1.680	3.323540	-0.314415	598.671300	2.040257	1.457549	-0.316886	-0.243464	0.340798
1.690	3.241770	-0.342274	598.757253	2.019781	1.662866	-0.316428	-0.277720	0.337329
1.700	3.177042	-0.370376	598.809790	1.997321	1.865153	-0.316536	-0.311477	0.333549
1.710	3.119759	-0.393647	598.829250	1.970913	2.063403	-0.316969	-0.344573	0.329128
1.720	3.058638	-0.408111	598.827836	1.940346	2.256481	-0.317924	-0.376816	0.324024
1.730	2.984609	-0.413069	598.822614	1.907315	2.443787	-0.319921	-0.408099	0.318511
1.740	2.894122	-0.411615	598.830649	1.874702	2.625847	-0.323382	-0.438496	0.313060
1.750	2.790466	-0.409206	598.867267	1.845248	2.804399	-0.328179	-0.468284	0.308123
1.760	2.682416	-0.411183	598.945442	1.820205	2.981815	-0.333486	-0.497844	0.303902
1.770	2.580752	-0.420517	599.073494	1.798656	3.160081	-0.338068	-0.527495	0.300240
1.780	2.494255	-0.436630	599.249994	1.777944	3.339793	-0.340845	-0.557329	0.296695
1.790	2.426849	-0.455548	599.457288	1.755103	3.519672	-0.341405	-0.587143	0.292782
1.800	2.376744	-0.471332	599.657173	1.728677	3.696939	-0.340192	-0.616509	0.288277
1.810	2.337445	-0.478425	599.793595	1.699922	3.868443	-0.338222	-0.644962	0.283418
1.820	2.299965	-0.474056	599.806120	1.672555	4.032082	-0.336508	-0.672231	0.278849
1.830	2.255501	-0.459689	599.652473	1.650997	4.187902	-0.335559	-0.698388	0.275326
1.840	2.197756	-0.440829	599.331123	1.638060	4.338423	-0.335285	-0.723877	0.273315
1.850	2.124037	-0.425240	598.891943	1.633388	4.488020	-0.335337	-0.749387	0.272735
1.860	2.034639	-0.420261	598.427638	1.633522	4.641559	-0.335579	-0.775626	0.272969
1.870	1.931075	-0.430282	598.047681	1.633454	4.802797	-0.336309	-0.803079	0.273131
1.880	1.814477	-0.455360	597.844046	1.628800	4.973186	-0.338020	-0.831853	0.272446
1.890	1.685327	-0.491452	597.861409	1.617517	5.151475	-0.340874	-0.861650	0.270550
1.900	1.544616	-0.531986	598.083311	1.600451	5.334169	-0.344305	-0.891877	0.267597
1.910	1.395410	-0.569970	598.439581	1.580604	5.516505	-0.347104	-0.921815	0.264121
1.920	1.243682	-0.599823	598.831154	1.561495	5.693488	-0.347969	-0.950767	0.260757
1.930	1.097953	-0.618528	599.161320	1.545439	5.860718	-0.346177	-0.978154	0.257934
1.940	0.967958	-0.626169	599.361400	1.532556	6.014965	-0.342001	-1.003562	0.255698
1.950	0.862582	-0.625901	599.403445	1.520949	6.154641	-0.336633	-1.026794	0.253744
1.960	0.787333	-0.623133	599.299042	1.507814	6.280117	-0.331654	-1.047910	0.251596
1.970	0.742058	-0.623681	599.088179	1.490909	6.393661	-0.328333	-1.067232	0.248863
1.980	0.720049	-0.631307	598.824090	1.469797	6.498745	-0.327126	-1.085251	0.245447
1.990	0.709395	-0.645826	598.559708	1.446452	6.598822	-0.327597	-1.102450	0.241655
2.000	0.696395	-0.662971	598.339309	1.424878	6.696095	-0.328717	-1.119113	0.238139
2.010	0.669746	-0.676204	598.195751	1.409654	6.790911	-0.329333	-1.135232	0.235651
2.020	0.623797	-0.679471	598.150759	1.403849	6.882095	-0.328576	-1.150562	0.234698
2.030	0.559710	-0.669671	598.214687	1.407283	6.967943	-0.326122	-1.164790	0.235247
2.040	0.484325	-0.647988	598.383881	1.416103	7.047209	-0.322272	-1.177707	0.236655
2.050	0.407405	-0.619667	598.637277	1.424049	7.119486	-0.317848	-1.189282	0.237882
2.060	0.338404	-0.592191	598.936204	1.424839	7.184898	-0.313896	-1.199610	0.237895
2.070	0.283792	-0.572600	599.229821	1.414516	7.243458	-0.311264	-1.208795	0.236056
2.080	0.245473	-0.565323	599.464927	1.392635	7.294554	-0.310278	-1.216844	0.232313
2.090	0.220451	-0.571479	599.596634	1.361893	7.336852	-0.310710	-1.223631	0.227135
2.100	0.201880	-0.589375	599.597073	1.326534	7.368650	-0.312061	-1.228934	0.221238
2.110	0.181455	-0.615323	599.461260	1.290430	7.388443	-0.313935	-1.232514	0.215265
2.120	0.152603	-0.644433	599.210090	1.255753	7.395292	-0.316228	-1.234174	0.209568
2.130	0.113357	-0.671770	598.889428	1.222715	7.388732	-0.319047	-1.233739	0.204164
2.140	0.067777	-0.694007	598.563080	1.190208	7.368292	-0.322433	-1.230997	0.198844
2.150	0.025366	-0.710893	598.298682	1.156747	7.332998	-0.326121	-1.225642	0.193339
2.160	-0.001082	-0.725451	598.149559	1.121238	7.281213	-0.329503	-1.217290	0.187451
2.170	0.001800	-0.742454	598.139089	1.083353	7.211026	-0.331852	-1.205577	0.181121
2.180	0.045371	-0.765827	598.253869	1.043492	7.121046	-0.332684	-1.190305	0.174423
2.190	0.136638	-0.796312	598.448376	1.002448	7.011239	-0.332022	-1.171570	0.167508
2.200	0.276093	-0.830655	598.659648	0.961099	6.883275	-0.330449	-1.149781	0.160542
2.210	0.456307	-0.862655	598.827438	0.920387	6.740129	-0.328904	-1.125555	0.153698
2.220	0.662543	-0.885403	598.913337	0.881567	6.585120	-0.328360	-1.099511	0.147194
2.230	0.876272	-0.893667	598.911964	0.846344	6.420908	-0.329495	-1.072096	0.141314
2.240	1.080904	-0.885639	598.849714	0.816584	6.248934	-0.332467	-1.043489	0.136359
2.250	1.267168	-0.863577	598.771637	0.793622	6.069521	-0.336862	-1.013662	0.132542
2.260	1.435263	-0.833103	598.722149	0.777645	5.882577	-0.341843	-0.982522	0.129884
2.270	1.592689	-0.801292	598.727782	0.767624	5.688558	-0.346445	-0.950108	0.128209
2.280	1.749240	-0.774158	598.789075	0.761937	5.489214	-0.349918	-0.916719	0.127246
2.290	1.912013	-0.754492	598.884256	0.759197	5.287756	-0.351984	-0.882935	0.126769
2.300	2.082625	-0.741047	598.981728	0.758669	5.088342	-0.352938	-0.849499	0.126660
2.310	2.257102	-0.729681	599.054394	0.759998	4.895078	-0.353556	-0.817134	0.126866
2.320	2.427753	-0.716102	599.088925	0.762554	4.710940	-0.354823	-0.786351	0.127286
2.330	2.585966	-0.698735	599.086847	0.765021	4.537078	-0.357549	-0.757332	0.127698
2.340	2.724959	-0.680041	599.059252	0.765529	4.372830	-0.361994	-0.729949	0.127789
2.350	2.841737	-0.665670	599.019543	0.762237	4.216412	-0.367695	-0.703886	0.127247
2.360	2.937698	-0.662028	598.977896	0.753962	4.065921	-0.373607	-0.678810	0.125875
2.370	3.017752	-0.673416	598.938535	0.740549	3.920162	-0.378513	-0.654518	0.123644
2.380	3.088451	-0.699858	598.899490	0.722796	3.778922	-0.381506	-0.630978	0.120687
2.390	3.155997	-0.736560	598.854653	0.701948	3.642572	-0.382318	-0.608256	0.117215
2.400	3.225008	-0.775455	598.797919	0.679079	3.511251	-0.381385	-0.586383	0.113407
