Time[s]	Fx[N]	Fy[N]	Fz[N]	Mx[Nm]	My[Nm]	Mz[Nm]	COPx[cm]	COPy[cm]
0.010	4.485587	2.628941	715.744428	-0.320814	24.356861	-0.223327	-3.403011	-0.044822
0.020	4.495512	2.771951	715.990366	-0.280488	24.369668	-0.240313	-3.403631	-0.039175
0.030	4.507088	2.886842	716.197021	-0.249326	24.379166	-0.255121	-3.403975	-0.034813
0.040	4.521538	2.952382	716.338612	-0.233104	24.382466	-0.265854	-3.403763	-0.032541
0.050	4.540289	2.960422	716.414357	-0.232251	24.377865	-0.271155	-3.402761	-0.032418
0.060	4.565275	2.917491	716.443560	-0.242353	24.365146	-0.270691	-3.400847	-0.033827
0.070	4.598798	2.841678	716.453320	-0.256584	24.345673	-0.265396	-3.398082	-0.035813
0.080	4.642434	2.755803	716.467555	-0.268780	24.322350	-0.257173	-3.394759	-0.037515
0.090	4.695251	2.679529	716.502768	-0.275745	24.299363	-0.248167	-3.391384	-0.038485
0.100	4.752559	2.623489	716.569792	-0.277902	24.281432	-0.239980	-3.388565	-0.038782
0.110	4.806593	2.587749	716.676675	-0.278285	24.272436	-0.233268	-3.386804	-0.038830
0.120	4.849589	2.564956	716.828278	-0.280709	24.273698	-0.227837	-3.386264	-0.039160
0.130	4.878002	2.546251	717.021555	-0.288239	24.282697	-0.223093	-3.386606	-0.040199
0.140	4.895380	2.526464	717.239173	-0.302638	24.293031	-0.218553	-3.387019	-0.042195
0.150	4.911730	2.505678	717.446132	-0.324724	24.295975	-0.214207	-3.386453	-0.045261
0.160	4.939130	2.486704	717.593567	-0.354986	24.283239	-0.210568	-3.383982	-0.049469
0.170	4.985545	2.470805	717.630565	-0.393832	24.249964	-0.208413	-3.379171	-0.054879
0.180	5.049882	2.455007	717.520299	-0.441296	24.196818	-0.208354	-3.372283	-0.061503
0.190	5.120682	2.432919	717.253698	-0.496450	24.130211	-0.210528	-3.364251	-0.069215
0.200	5.179277	2.398451	716.854636	-0.556963	24.060331	-0.214583	-3.356375	-0.077695
0.210	5.206530	2.349990	716.374796	-0.619164	23.997617	-0.219864	-3.349869	-0.086430
0.220	5.190637	2.292445	715.881078	-0.678689	23.949135	-0.225592	-3.345407	-0.094805
0.230	5.132617	2.235883	715.440742	-0.731557	23.916397	-0.230905	-3.342890	-0.102253
0.240	5.046918	2.191329	715.108891	-0.775405	23.895472	-0.234846	-3.341515	-0.108432
0.250	4.956931	2.165815	714.920739	-0.810469	23.879174	-0.236459	-3.340115	-0.113365
0.260	4.887593	2.159124	714.888724	-0.839820	23.860200	-0.235058	-3.337610	-0.117476
0.270	4.858201	2.163829	715.003355	-0.868422	23.833873	-0.230559	-3.333393	-0.121457
0.280	4.877775	2.168693	715.236942	-0.901052	23.799540	-0.223662	-3.327504	-0.125979
0.290	4.943689	2.163909	715.549799	-0.939844	23.760361	-0.215721	-3.320574	-0.131346
0.300	5.043007	2.145694	715.897928	-0.982697	23.721870	-0.208279	-3.313583	-0.137268
0.310	5.155574	2.118002	716.240313	-1.023579	23.690041	-0.202437	-3.307555	-0.142910
0.320	5.258278	2.090597	716.544010	-1.054772	23.669588	-0.198369	-3.303299	-0.147203
0.330	5.330190	2.074572	716.786272	-1.069964	23.662958	-0.195267	-3.301257	-0.149272
0.340	5.357957	2.077601	716.954366	-1.066578	23.670118	-0.191782	-3.301482	-0.148765
0.350	5.339970	2.101070	717.044241	-1.046255	23.689013	-0.186744	-3.303703	-0.145912
0.360	5.287429	2.140124	717.058764	-1.013508	23.716479	-0.179774	-3.307467	-0.141342
0.370	5.221174	2.186257	717.005992	-0.973542	23.749470	-0.171459	-3.312311	-0.135779
0.380	5.164882	2.230945	716.898377	-0.930369	23.786360	-0.163002	-3.317954	-0.129777
0.390	5.136954	2.268774	716.753548	-0.885952	23.827839	-0.155548	-3.324412	-0.123606
0.400	5.144249	2.298996	716.595379	-0.840440	23.876926	-0.149549	-3.331996	-0.117282
0.410	5.180354	2.325171	716.452570	-0.793049	23.937950	-0.144521	-3.341177	-0.110691
0.420	5.229027	2.353110	716.353213	-0.743011	24.014906	-0.139319	-3.352383	-0.103721
0.430	5.271028	2.387825	716.317088	-0.690136	24.109866	-0.132703	-3.365809	-0.096345
0.440	5.291027	2.430686	716.349474	-0.634855	24.222059	-0.123900	-3.381319	-0.088624
0.450	5.281746	2.478136	716.439356	-0.577910	24.347923	-0.112938	-3.398463	-0.080664
0.460	5.244299	2.522793	716.562419	-0.520097	24.482080	-0.100735	-3.416601	-0.072582
0.470	5.185604	2.556605	716.687272	-0.462314	24.618811	-0.088932	-3.435084	-0.064507
0.480	5.114501	2.574544	716.783095	-0.405828	24.753516	-0.079469	-3.453418	-0.056618
0.490	5.038035	2.576955	716.827309	-0.352329	24.883743	-0.074006	-3.471372	-0.049151
0.500	4.958837	2.569376	716.811859	-0.303459	25.009621	-0.073367	-3.489008	-0.042334
0.510	4.874205	2.560167	716.746140	-0.259913	25.133607	-0.077251	-3.506626	-0.036263
0.520	4.777107	2.557427	716.654839	-0.220693	25.259550	-0.084399	-3.524647	-0.030795
0.530	4.659015	2.566678	716.570870	-0.183071	25.391277	-0.093154	-3.543443	-0.025548
0.540	4.514035	2.589960	716.525715	-0.143404	25.531091	-0.102132	-3.563179	-0.020014
0.550	4.343039	2.625996	716.539955	-0.098430	25.678600	-0.110639	-3.583694	-0.013737
0.560	4.155850	2.670795	716.616206	-0.046466	25.830235	-0.118657	-3.604473	-0.006484
0.570	3.969763	2.718369	716.736719	0.011917	25.979680	-0.126480	-3.624717	0.001663
0.580	3.804333	2.761787	716.867859	0.074014	26.119289	-0.134293	-3.643529	0.010325
0.590	3.674681	2.794828	716.971123	0.135960	26.242118	-0.141922	-3.660136	0.018963
0.600	3.586647	2.814162	717.016394	0.194177	26.343864	-0.148875	-3.674095	0.027081
0.610	3.536041	2.821394	716.991465	0.246537	26.423865	-0.154577	-3.685381	0.034385
0.620	3.511785	2.823777	716.904098	0.292614	26.484686	-0.158662	-3.694314	0.040816
0.630	3.500911	2.832578	716.776768	0.332949	26.530500	-0.161175	-3.701362	0.046451
0.640	3.493201	2.859143	716.637328	0.367889	26.565134	-0.162593	-3.706915	0.051335
0.650	3.484136	2.910145	716.510060	0.396751	26.590697	-0.163657	-3.711141	0.055373
0.660	3.475667	2.984133	716.410366	0.417776	26.607285	-0.165146	-3.713973	0.058315
0.670	3.474799	3.071018	716.343710	0.428812	26.613616	-0.167672	-3.715202	0.059861
0.680	3.490182	3.154849	716.307580	0.428326	26.608165	-0.171544	-3.714628	0.059796
0.690	3.527362	3.218927	716.294709	0.416196	26.590394	-0.176695	-3.712214	0.058104
0.700	3.584154	3.251307	716.295986	0.393819	26.561674	-0.182666	-3.708198	0.054980
0.710	3.648510	3.248527	716.302442	0.363418	26.525544	-0.188672	-3.703121	0.050735
0.720	3.700958	3.215933	716.306987	0.326803	26.487118	-0.193789	-3.697733	0.045623
0.730	3.721667	3.164386	716.306445	0.284166	26.451751	-0.197229	-3.692798	0.039671
0.740	3.699347	3.104946	716.302949	0.233537	26.423457	-0.198662	-3.688866	0.032603
0.750	3.637568	3.044210	716.303170	0.171343	26.403651	-0.198413	-3.686100	0.023920
0.760	3.554993	2.982569	716.314990	0.093958	26.390766	-0.197422	-3.684240	0.013117
0.770	3.479005	2.915854	716.342889	-0.000477	26.380932	-0.196928	-3.682724	-0.000067
0.780	3.435465	2.839046	716.384543	-0.110942	26.369454	-0.197990	-3.680908	-0.015486
0.790	3.439115	2.749816	716.431425	-0.233667	26.352392	-0.201066	-3.678285	-0.032615
0.800	3.488691	2.650160	716.474382	-0.363393	26.327526	-0.205829	-3.674594	-0.050720
0.810	3.568548	2.545669	716.510889	-0.495119	26.294393	-0.211326	-3.669783	-0.069101
0.820	3.655951	2.443215	716.547610	-0.625697	26.253615	-0.216369	-3.663904	-0.087321
0.830	3.730878	2.348336	716.594468	-0.754707	26.206014	-0.219977	-3.657022	-0.105319
0.840	3.783880	2.263512	716.653903	-0.884058	26.151997	-0.221664	-3.649181	-0.123359
0.850	3.818130	2.187962	716.714169	-1.016153	26.091404	-0.221490	-3.640420	-0.141779
0.860	3.844764	2.118956	716.753236	-1.151192	26.023811	-0.219922	-3.630791	-0.160612
0.870	3.874666	2.053933	716.752410	-1.285050	25.949085	-0.217642	-3.620369	-0.179288
0.880	3.911924	1.992370	716.711773	-1.409203	25.867902	-0.215431	-3.609247	-0.196621
0.890	3.952777	1.936424	716.657298	-1.513195	25.781904	-0.214135	-3.597522	-0.211146
0.900	3.989967	1.889888	716.633440	-1.588676	25.693352	-0.214622	-3.585285	-0.221686
0.910	4.018929	1.855915	716.683355	-1.633042	25.604350	-0.217580	-3.572617	-0.227861
0.920	4.041558	1.834713	716.826276	-1.650778	25.515993	-0.223156	-3.559578	-0.230290
0.930	4.065618	1.822697	717.043512	-1.651763	25.427857	-0.230637	-3.546208	-0.230357
0.940	4.100980	1.813932	717.280382	-1.647343	25.338092	-0.238448	-3.532523	-0.229665
0.950	4.155543	1.803408	717.463739	-1.646100	25.244120	-0.244579	-3.518522	-0.229433
0.960	4.233086	1.790363	717.527486	-1.651244	25.143601	-0.247272	-3.504200	-0.230130
0.970	4.333388	1.779618	717.434661	-1.660536	25.035244	-0.245612	-3.489550	-0.231455
0.980	4.453252	1.779841	717.186733	-1.668254	24.919194	-0.239737	-3.474575	-0.232611
0.990	4.586742	1.799415	716.817773	-1.667922	24.797112	-0.230675	-3.459333	-0.232684
1.000	4.724282	1.842032	716.379615	-1.654522	24.672279	-0.219960	-3.444023	-0.230956
1.010	4.852164	1.904361	715.928039	-1.625583	24.549857	-0.209163	-3.429096	-0.227060
1.020	4.954648	1.977205	715.516362	-1.581265	24.436932	-0.199472	-3.415286	-0.220996
1.030	5.019125	2.049724	715.194698	-1.523932	24.341735	-0.191404	-3.403512	-0.213079
1.040	5.042193	2.114414	715.008239	-1.457593	24.271809	-0.184769	-3.394620	-0.203857
1.050	5.033135	2.169897	714.990211	-1.387333	24.231663	-0.178874	-3.389090	-0.194035
1.060	5.011996	2.219906	715.151323	-1.318610	24.221065	-0.172907	-3.386845	-0.184382
1.070	5.002110	2.269372	715.471960	-1.256334	24.234934	-0.166330	-3.387265	-0.175595
1.080	5.020094	2.320313	715.902851	-1.203802	24.264933	-0.159151	-3.389417	-0.168152
1.090	5.068385	2.369970	716.375420	-1.161846	24.302013	-0.151957	-3.392357	-0.162184
1.100	5.134432	2.411958	716.817764	-1.128634	24.338830	-0.145663	-3.395400	-0.157451
1.110	5.197194	2.439413	717.169755	-1.100441	24.371216	-0.141065	-3.398249	-0.153442
1.120	5.237631	2.448284	717.392499	-1.073279	24.398419	-0.138422	-3.400986	-0.149608
1.130	5.247677	2.439176	717.471589	-1.044815	24.422357	-0.137252	-3.403948	-0.145625
1.140	5.233136	2.416964	717.416646	-1.015614	24.446336	-0.136470	-3.407551	-0.141565
1.150	5.209482	2.388529	717.259121	-0.988957	24.473759	-0.134824	-3.412122	-0.137880
1.160	5.193542	2.359891	717.047734	-0.969226	24.507169	-0.131452	-3.417788	-0.135169
1.170	5.195856	2.334346	716.840077	-0.959713	24.547746	-0.126320	-3.424438	-0.133881
1.180	5.217364	2.312649	716.690782	-0.961033	24.595161	-0.120348	-3.431767	-0.134093
1.190	5.251193	2.294971	716.639150	-0.970892	24.647726	-0.115174	-3.439350	-0.135478
1.200	5.287564	2.283244	716.699795	-0.985062	24.702893	-0.112632	-3.446756	-0.137444
1.210	5.318397	2.282295	716.858919	-0.998885	24.758161	-0.114127	-3.453701	-0.139342
1.220	5.338660	2.298846	717.077701	-1.008583	24.812161	-0.120109	-3.460177	-0.140652
1.230	5.343955	2.338572	717.302728	-1.012082	24.865411	-0.129836	-3.466516	-0.141096
1.240	5.326935	2.402465	717.480601	-1.009373	24.920240	-0.141523	-3.473298	-0.140683
1.250	5.276596	2.484299	717.571350	-1.002511	24.979742	-0.152843	-3.481151	-0.139709
1.260	5.182571	2.570676	717.555706	-0.995370	25.046119	-0.161639	-3.490477	-0.138717
1.270	5.042655	2.643962	717.435088	-0.993121	25.119158	-0.166564	-3.501245	-0.138427
1.280	4.868811	2.686995	717.227151	-1.001361	25.195629	-0.167447	-3.512922	-0.139616
1.290	4.687195	2.687775	716.960827	-1.024951	25.269993	-0.165271	-3.524599	-0.142958
1.300	4.531049	2.642615	716.672696	-1.066960	25.336140	-0.161834	-3.535246	-0.148877
1.310	4.429346	2.557130	716.403695	-1.128180	25.389354	-0.159204	-3.544001	-0.157478
1.320	4.396380	2.444994	716.194044	-1.207422	25.427623	-0.159131	-3.550382	-0.168589
1.330	4.426962	2.324604	716.075427	-1.302286	25.451837	-0.162559	-3.554351	-0.181864
1.340	4.499081	2.214057	716.062371	-1.409866	25.464994	-0.169386	-3.556254	-0.196892
1.350	4.582514	2.125559	716.147041	-1.527016	25.470953	-0.178509	-3.556665	-0.213227
1.360	4.649330	2.061272	716.301119	-1.650263	25.473317	-0.188138	-3.556230	-0.230387
1.370	4.681795	2.012686	716.484587	-1.775767	25.474722	-0.196289	-3.555516	-0.247844
1.380	4.675072	1.964368	716.657419	-1.899741	25.476587	-0.201292	-3.554918	-0.265084
1.390	4.635214	1.900741	716.789400	-2.019353	25.479134	-0.202175	-3.554619	-0.281722
1.400	4.575163	1.812918	716.865085	-2.133657	25.481488	-0.198840	-3.554572	-0.297637
1.410	4.511334	1.702425	716.883151	-2.243926	25.481751	-0.192059	-3.554519	-0.313011
1.420	4.461402	1.580154	716.851587	-2.353025	25.477255	-0.183335	-3.554049	-0.328244
1.430	4.441926	1.461244	716.782299	-2.463927	25.465225	-0.174608	-3.552714	-0.343748
1.440	4.464262	1.358616	716.688575	-2.577945	25.443918	-0.167799	-3.550206	-0.359702
1.450	4.529133	1.278346	716.585869	-2.693526	25.413826	-0.164294	-3.546515	-0.375883
1.460	4.622826	1.218736	716.492911	-2.806241	25.378339	-0.164530	-3.542022	-0.391663
1.470	4.718774	1.173061	716.429828	-2.909988	25.343325	-0.167849	-3.537447	-0.406179
1.480	4.785861	1.134316	716.412428	-2.998827	25.315641	-0.172703	-3.533669	-0.418589
1.490	4.800613	1.099467	716.444970	-3.068663	25.301152	-0.177131	-3.531486	-0.428318
1.500	4.757328	1.071019	716.515366	-3.118224	25.303179	-0.179366	-3.531422	-0.435193
1.510	4.670492	1.055289	716.596599	-3.149017	25.322078	-0.178331	-3.533659	-0.439441
1.520	4.567662	1.058854	716.655912	-3.164281	25.355939	-0.173836	-3.538091	-0.441534
1.530	4.476151	1.085522	716.669186	-3.167273	25.401734	-0.166440	-3.544416	-0.441944
1.540	4.410459	1.135364	716.633302	-3.159598	25.456092	-0.157071	-3.552178	-0.440895
1.550	4.367261	1.205803	716.568201	-3.140315	25.515293	-0.146668	-3.560763	-0.438244
1.560	4.330679	1.293692	716.505786	-3.106358	25.574732	-0.136040	-3.569369	-0.433543
1.570	4.284686	1.397034	716.471931	-3.054204	25.628592	-0.125981	-3.577055	-0.426284
1.580	4.225313	1.515309	716.473236	-2.982113	25.670441	-0.117408	-3.582889	-0.416221
1.590	4.165560	1.648074	716.496750	-2.891966	25.694878	-0.111310	-3.586182	-0.403626
1.600	4.130251	1.792554	716.521615	-2.789773	25.699527	-0.108455	-3.586706	-0.389349
1.610	4.143665	1.941708	716.533760	-2.684506	25.686256	-0.109048	-3.584794	-0.374652
1.620	4.216419	2.084175	716.533871	-2.585625	25.660919	-0.112570	-3.581257	-0.360852
1.630	4.338125	2.206540	716.534742	-2.500271	25.631727	-0.117908	-3.577179	-0.348939
1.640	4.479307	2.297153	716.552107	-2.431257	25.607068	-0.123706	-3.573651	-0.339299
1.650	4.601657	2.349930	716.596987	-2.376706	25.593621	-0.128818	-3.571550	-0.331666
1.660	4.671992	2.366512	716.674661	-2.331528	25.595262	-0.132675	-3.571392	-0.325326
1.670	4.673916	2.355807	716.788516	-2.290081	25.612722	-0.135415	-3.573261	-0.319492
1.680	4.612668	2.330891	716.942282	-2.248846	25.643770	-0.137744	-3.576825	-0.313672
1.690	4.512003	2.304318	717.135613	-2.207947	25.683666	-0.140514	-3.581424	-0.307884
1.700	4.405353	2.283622	717.354400	-2.171005	25.725816	-0.144227	-3.586207	-0.302640
1.710	4.325266	2.268843	717.563207	-2.143494	25.762762	-0.148688	-3.590313	-0.298718
1.720	4.294786	2.253243	717.707772	-2.130433	25.787608	-0.153062	-3.593051	-0.296839
1.730	4.322869	2.227188	717.729676	-2.134438	25.795674	-0.156347	-3.594065	-0.297388
1.740	4.404062	2.183593	717.587331	-2.154896	25.785783	-0.158013	-3.593400	-0.300297
1.750	4.521418	2.122256	717.272937	-2.188406	25.760559	-0.158397	-3.591458	-0.305101
1.760	4.650999	2.050723	716.817361	-2.230082	25.725462	-0.158581	-3.588845	-0.311109
1.770	4.766552	1.981164	716.282088	-2.275076	25.686973	-0.159795	-3.586153	-0.317623
1.780	4.843912	1.924895	715.743971	-2.319681	25.650768	-0.162667	-3.583791	-0.324094
1.790	4.865504	1.887338	715.279746	-2.361677	25.620695	-0.166771	-3.581913	-0.330175
1.800	4.825003	1.866021	714.954062	-2.399910	25.598757	-0.170742	-3.580476	-0.335673
1.810	4.730755	1.852554	714.811202	-2.433448	25.585699	-0.172927	-3.579365	-0.340432
1.820	4.605577	1.837395	714.869517	-2.460789	25.581527	-0.172232	-3.578489	-0.344229
1.830	4.481631	1.814784	715.118259	-2.479571	25.585562	-0.168729	-3.577808	-0.346736
1.840	4.391563	1.785488	715.517493	-2.486959	25.596058	-0.163752	-3.577279	-0.347575
1.850	4.359246	1.756449	716.002427	-2.480518	25.609798	-0.159451	-3.576775	-0.346440
1.860	4.393550	1.737997	716.493440	-2.459140	25.622161	-0.158045	-3.576050	-0.343219
1.870	4.486943	1.740093	716.911565	-2.423555	25.627977	-0.161053	-3.574775	-0.338055
1.880	4.618707	1.768995	717.196518	-2.376104	25.623019	-0.168755	-3.572664	-0.331305
1.890	4.761324	1.825288	717.321758	-2.319866	25.605570	-0.180083	-3.569607	-0.323407
1.900	4.888207	1.903707	717.300753	-2.257645	25.577360	-0.192940	-3.565779	-0.314742
1.910	4.980804	1.994695	717.181305	-2.191504	25.543401	-0.204826	-3.561638	-0.305572
1.920	5.033096	2.087067	717.029427	-2.123086	25.510737	-0.213512	-3.557837	-0.296095
1.930	5.051917	2.170678	716.908451	-2.054293	25.486634	-0.217515	-3.555075	-0.286549
1.940	5.052885	2.238114	716.861166	-1.987564	25.476863	-0.216274	-3.553947	-0.277259
1.950	5.053543	2.285266	716.901500	-1.925366	25.484592	-0.210091	-3.554825	-0.268568
1.960	5.066466	2.311533	717.017348	-1.869189	25.510024	-0.199969	-3.557797	-0.260690
1.970	5.095059	2.320302	717.180369	-1.818706	25.550707	-0.187431	-3.562661	-0.253591
1.980	5.133515	2.319273	717.356214	-1.771575	25.602331	-0.174316	-3.568984	-0.246959
1.990	5.170412	2.319432	717.511030	-1.724027	25.659853	-0.162477	-3.576231	-0.240279
2.000	5.193750	2.332171	717.614596	-1.672062	25.718766	-0.153339	-3.583925	-0.233003
2.010	5.194927	2.365617	717.643010	-1.612880	25.776190	-0.147474	-3.591785	-0.224747
2.020	5.170400	2.421966	717.582481	-1.546064	25.831438	-0.144437	-3.599787	-0.215455
2.030	5.121393	2.497028	717.432460	-1.473977	25.885869	-0.143050	-3.608126	-0.205452
2.040	5.052647	2.581877	717.205128	-1.401158	25.942217	-0.142017	-3.617127	-0.195364
2.050	4.970767	2.665646	716.920896	-1.332981	26.003750	-0.140545	-3.627144	-0.185931
2.060	4.882099	2.738270	716.603162	-1.274128	26.073535	-0.138653	-3.638490	-0.177801
2.070	4.790306	2.792402	716.275942	-1.227469	26.153869	-0.137072	-3.651368	-0.171368
2.080	4.694504	2.824384	715.964916	-1.193600	26.245882	-0.136873	-3.665806	-0.166712
2.090	4.589225	2.834654	715.699168	-1.171041	26.349315	-0.139051	-3.681619	-0.163622
2.100	4.466889	2.827947	715.510168	-1.156867	26.462503	-0.144243	-3.698410	-0.161684
2.110	4.322088	2.812936	715.426238	-1.147558	26.582491	-0.152621	-3.715616	-0.160402
2.120	4.155657	2.800474	715.463578	-1.139894	26.705246	-0.163873	-3.732579	-0.159322
2.130	3.976319	2.800219	715.617394	-1.131777	26.825906	-0.177264	-3.748638	-0.158154
2.140	3.798879	2.816872	715.857517	-1.122736	26.939038	-0.191761	-3.763184	-0.156838
2.150	3.639955	2.848115	716.132117	-1.113811	27.039008	-0.206239	-3.775701	-0.155532
2.160	3.513645	2.885766	716.380606	-1.106728	27.120590	-0.219665	-3.785779	-0.154489
2.170	3.429248	2.919875	716.552462	-1.102748	27.179821	-0.231190	-3.793138	-0.153896
2.180	3.391382	2.943734	716.624155	-1.101930	27.214826	-0.240143	-3.797643	-0.153767
2.190	3.401097	2.957071	716.605505	-1.103335	27.226254	-0.246037	-3.799336	-0.153967
2.200	3.456193	2.965569	716.531782	-1.106102	27.217127	-0.248660	-3.798454	-0.154369
2.210	3.550109	2.976853	716.445907	-1.110719	27.192198	-0.248229	-3.795429	-0.155032
2.220	3.670191	2.995074	716.380369	-1.119694	27.157047	-0.245470	-3.790870	-0.156299
2.230	3.797270	3.017129	716.347560	-1.137070	27.117149	-0.241451	-3.785474	-0.158732
2.240	3.908423	3.032842	716.341525	-1.166898	27.076982	-0.237231	-3.779898	-0.162897
2.250	3.983330	3.029196	716.348078	-1.211402	27.039285	-0.233509	-3.774602	-0.169108
2.260	4.012143	2.996390	716.356494	-1.269845	27.004654	-0.230492	-3.769723	-0.177264
2.270	4.000863	2.932457	716.365915	-1.338793	26.971715	-0.228004	-3.765075	-0.186887
2.280	3.970418	2.844182	716.383321	-1.413643	26.937929	-0.225738	-3.760267	-0.197330
2.290	3.948626	2.744149	716.415779	-1.490645	26.900788	-0.223500	-3.754913	-0.208070
2.300	3.958231	2.645722	716.463437	-1.568366	26.859005	-0.221348	-3.748831	-0.218904
2.310	4.006834	2.558450	716.518307	-1.647929	26.813220	-0.219564	-3.742154	-0.229991
2.320	4.083835	2.485818	716.568818	-1.732013	26.765969	-0.218490	-3.735296	-0.241709
2.330	4.166051	2.425801	716.606119	-1.823218	26.720951	-0.218323	-3.728820	-0.254424
2.340	4.229198	2.373301	716.628062	-1.922628	26.681928	-0.218999	-3.723260	-0.268288
2.350	4.259464	2.322783	716.639468	-2.029168	26.651774	-0.220252	-3.718993	-0.283151
