Time[s]	Fx[N]	Fy[N]	Fz[N]	Mx[Nm]	My[Nm]	Mz[Nm]	COPx[cm]	COPy[cm]
0.010	7.635050	-4.838777	658.923870	-1.121169	-7.789709	-0.165392	1.182186	-0.170152
0.020	7.328000	-4.877320	661.133959	-1.089244	-7.502914	-0.185089	1.134855	-0.164754
0.030	7.023417	-4.921085	663.244768	-1.067392	-7.213774	-0.204007	1.087649	-0.160935
0.040	6.727490	-4.971860	665.173462	-1.062219	-6.922149	-0.221256	1.040653	-0.159691
0.050	6.451843	-5.025796	666.862522	-1.074994	-6.631671	-0.235774	0.994458	-0.161202
0.060	6.212726	-5.073838	668.280987	-1.101316	-6.349848	-0.246410	0.950176	-0.164798
0.070	6.027698	-5.104563	669.418217	-1.132729	-6.086789	-0.252203	0.909265	-0.169211
0.080	5.911144	-5.108475	670.275093	-1.159766	-5.853059	-0.252768	0.873232	-0.173028
0.090	5.870470	-5.082023	670.856492	-1.175217	-5.657360	-0.248547	0.843304	-0.175182
0.100	5.904193	-5.029531	671.165666	-1.176285	-5.504645	-0.240728	0.820162	-0.175260
0.110	6.002167	-4.961993	671.199718	-1.164819	-5.395051	-0.230811	0.803792	-0.173543
0.120	6.147399	-4.893264	670.947470	-1.145829	-5.323759	-0.220091	0.793469	-0.170778
0.130	6.318842	-4.835566	670.393263	-1.125251	-5.281756	-0.209381	0.787859	-0.167849
0.140	6.494754	-4.796388	669.528301	-1.107995	-5.257363	-0.199158	0.785234	-0.165489
0.150	6.656211	-4.777700	668.365577	-1.096913	-5.238306	-0.189949	0.783749	-0.164119
0.160	6.790037	-4.776977	666.951015	-1.092687	-5.213895	-0.182563	0.781751	-0.163833
0.170	6.890195	-4.788925	665.365667	-1.094293	-5.176712	-0.177939	0.778025	-0.164465
0.180	6.957031	-4.807083	663.719074	-1.099663	-5.123228	-0.176698	0.771897	-0.165682
0.190	6.994795	-4.825029	662.136892	-1.106414	-5.053236	-0.178736	0.763171	-0.167098
0.200	7.008867	-4.837422	660.745218	-1.112603	-4.968474	-0.183144	0.751950	-0.168386
0.210	7.004115	-4.841130	659.653102	-1.117365	-4.871128	-0.188519	0.738438	-0.169387
0.220	6.984746	-4.836183	658.936036	-1.121182	-4.762863	-0.193482	0.722811	-0.170150
0.230	6.954769	-4.825940	658.624673	-1.125671	-4.644627	-0.197062	0.705201	-0.170912
0.240	6.917993	-4.816068	658.702097	-1.133032	-4.517038	-0.198770	0.685748	-0.172010
0.250	6.877338	-4.812629	659.110192	-1.145484	-4.380860	-0.198447	0.664663	-0.173793
0.260	6.834016	-4.820131	659.763232	-1.164826	-4.237165	-0.196165	0.642225	-0.176552
0.270	6.787152	-4.840330	660.565280	-1.192092	-4.086996	-0.192311	0.618712	-0.180465
0.280	6.734021	-4.871989	661.426763	-1.227240	-3.930742	-0.187753	0.594282	-0.185544
0.290	6.670895	-4.911256	662.275562	-1.269037	-3.767665	-0.183836	0.568897	-0.191618
0.300	6.594414	-4.952377	663.060128	-1.315346	-3.596044	-0.182066	0.542340	-0.198375
0.310	6.503199	-4.988800	663.745832	-1.363774	-3.414043	-0.183594	0.514360	-0.205466
0.320	6.399220	-5.014793	664.308462	-1.412385	-3.220850	-0.188783	0.484843	-0.212610
0.330	6.288370	-5.027204	664.729124	-1.460172	-3.017352	-0.197095	0.453922	-0.219664
0.340	6.179654	-5.026576	664.992805	-1.507136	-2.805879	-0.207263	0.421941	-0.226639
0.350	6.082551	-5.017012	665.090090	-1.554002	-2.589163	-0.217618	0.389295	-0.233653
0.360	6.002805	-5.004836	665.019746	-1.601788	-2.369150	-0.226463	0.356253	-0.240863
0.370	5.938246	-4.996666	664.790624	-1.651474	-2.146442	-0.232470	0.322875	-0.248420
0.380	5.877130	-4.997701	664.423903	-1.703856	-1.920742	-0.235050	0.289084	-0.256441
0.390	5.800885	-5.010854	663.957861	-1.759336	-1.692119	-0.234574	0.254853	-0.264977
0.400	5.691082	-5.036757	663.454794	-1.817418	-1.462459	-0.232318	0.220431	-0.273932
0.410	5.538121	-5.074106	663.004594	-1.876094	-1.236402	-0.230123	0.186485	-0.282968
0.420	5.347902	-5.119808	662.716699	-1.931650	-1.021249	-0.229879	0.154100	-0.291474
0.430	5.143219	-5.169002	662.696234	-1.979334	-0.825699	-0.233034	0.124597	-0.298679
0.440	4.958718	-5.215427	663.010222	-2.014767	-0.657736	-0.240241	0.099205	-0.303882
0.450	4.831082	-5.252322	663.658534	-2.035498	-0.522452	-0.251261	0.078723	-0.306709
0.460	4.788224	-5.273600	664.564062	-2.041998	-0.420677	-0.265077	0.063301	-0.307269
0.470	4.841552	-5.274869	665.587067	-2.037636	-0.348893	-0.280157	0.052419	-0.306141
0.480	4.983788	-5.254242	666.557066	-2.027706	-0.300274	-0.294731	0.045049	-0.304206
0.490	5.192406	-5.213090	667.309842	-2.018045	-0.266340	-0.307027	0.039912	-0.302415
0.500	5.436673	-5.156695	667.718669	-2.013824	-0.238593	-0.315499	0.035733	-0.301598
0.510	5.685463	-5.094161	667.713724	-2.018759	-0.209695	-0.319099	0.031405	-0.302339
0.520	5.913504	-5.036923	667.288146	-2.034713	-0.173921	-0.317526	0.026064	-0.304923
0.530	6.104932	-4.995957	666.492161	-2.061626	-0.127038	-0.311383	0.019061	-0.309325
0.540	6.253937	-4.978770	665.418427	-2.097746	-0.065978	-0.302172	0.009915	-0.315252
0.550	6.362888	-4.987348	664.182985	-2.140079	0.011347	-0.292090	-0.001708	-0.322212
0.560	6.438851	-5.017673	662.906755	-2.184974	0.106016	-0.283630	-0.015993	-0.329605
0.570	6.489871	-5.060721	661.701598	-2.228742	0.218111	-0.279028	-0.032962	-0.336820
0.580	6.522261	-5.104695	660.662081	-2.268216	0.347066	-0.279723	-0.052533	-0.343325
0.590	6.539340	-5.138147	659.861068	-2.301138	0.492394	-0.286056	-0.074621	-0.348731
0.600	6.541300	-5.153257	659.346156	-2.326351	0.654470	-0.297336	-0.099260	-0.352827
0.610	6.525499	-5.148115	659.135479	-2.343890	0.834943	-0.312220	-0.126672	-0.355601
0.620	6.486702	-5.126953	659.214172	-2.354999	1.036478	-0.329196	-0.157229	-0.357243
0.630	6.417262	-5.098050	659.534775	-2.361909	1.261923	-0.346953	-0.191335	-0.358117
0.640	6.307880	-5.070109	660.024494	-2.367214	1.513232	-0.364546	-0.229269	-0.358655
0.650	6.149531	-5.048752	660.599755	-2.372974	1.790606	-0.381370	-0.271058	-0.359215
0.660	5.936465	-5.034852	661.185005	-2.379929	2.092189	-0.397015	-0.316430	-0.359949
0.670	5.669151	-5.025442	661.729458	-2.387222	2.414423	-0.411089	-0.364866	-0.360755
0.680	5.355670	-5.016477	662.214824	-2.392794	2.752842	-0.423128	-0.415702	-0.361332
0.690	5.010629	-5.005730	662.650804	-2.394367	3.102842	-0.432651	-0.468247	-0.361332
0.700	4.651915	-4.994426	663.061899	-2.390634	3.459954	-0.439387	-0.521815	-0.360545
0.710	4.296861	-4.987180	663.473634	-2.382156	3.819428	-0.443564	-0.575671	-0.359043
0.720	3.959702	-4.990494	663.905029	-2.371374	4.175394	-0.446112	-0.628914	-0.357186
0.730	3.651430	-5.010270	664.368807	-2.361559	4.520208	-0.448635	-0.680376	-0.355459
0.740	3.381535	-5.048939	664.875912	-2.355138	4.844520	-0.453101	-0.728635	-0.354222
0.750	3.159983	-5.103221	665.438765	-2.352341	5.138304	-0.461313	-0.772168	-0.353502
0.760	2.997759	-5.163667	666.068559	-2.350873	5.392505	-0.474333	-0.809602	-0.352948
0.770	2.905416	-5.216590	666.765666	-2.346661	5.600645	-0.492097	-0.839972	-0.351947
0.780	2.890236	-5.247887	667.507110	-2.335299	5.759788	-0.513439	-0.862880	-0.349854
0.790	2.953178	-5.247226	668.237838	-2.313724	5.870698	-0.536516	-0.878534	-0.346243
0.800	3.086852	-5.210931	668.871660	-2.281664	5.937434	-0.559411	-0.887679	-0.341121
0.810	3.275510	-5.142676	669.304088	-2.242317	5.966686	-0.580593	-0.891476	-0.335022
0.820	3.497347	-5.052358	669.434447	-2.201760	5.967021	-0.599070	-0.891353	-0.328899
0.830	3.728525	-4.954022	669.190350	-2.167146	5.948059	-0.614266	-0.888844	-0.323846
0.840	3.947534	-4.863420	668.546322	-2.144321	5.919538	-0.625844	-0.885434	-0.320744
0.850	4.138425	-4.795241	667.530535	-2.135969	5.890345	-0.633660	-0.882408	-0.319981
0.860	4.292125	-4.760037	666.218441	-2.141070	5.867751	-0.637851	-0.880755	-0.321377
0.870	4.405920	-4.761466	664.717252	-2.155802	5.857070	-0.638890	-0.881137	-0.324319
0.880	4.481738	-4.795077	663.148126	-2.175234	5.861749	-0.637507	-0.883928	-0.328016
0.890	4.523871	-4.849662	661.631955	-2.194945	5.883635	-0.634514	-0.889261	-0.331747
0.900	4.536835	-4.910943	660.280707	-2.211996	5.923140	-0.630670	-0.897064	-0.335008
0.910	4.524141	-4.966029	659.192130	-2.225202	5.979265	-0.626641	-0.907059	-0.337565
0.920	4.488413	-5.006685	658.443970	-2.234986	6.049653	-0.623039	-0.918780	-0.339434
0.930	4.432305	-5.030348	658.085917	-2.243059	6.130963	-0.620444	-0.931636	-0.340846
0.940	4.359015	-5.039066	658.131393	-2.251977	6.219617	-0.619346	-0.945042	-0.342177
0.950	4.271621	-5.037337	658.553775	-2.264533	6.312709	-0.619987	-0.958572	-0.343865
0.960	4.171653	-5.029878	659.290489	-2.283051	6.408617	-0.622177	-0.972048	-0.346289
0.970	4.058128	-5.020075	660.254722	-2.308788	6.506940	-0.625223	-0.985520	-0.349681
0.980	3.928199	-5.009408	661.350965	-2.341648	6.607817	-0.628100	-0.999139	-0.354070
0.990	3.779447	-4.997794	662.489442	-2.380248	6.711026	-0.629874	-1.013001	-0.359288
1.000	3.612750	-4.984506	663.595590	-2.422175	6.815238	-0.630144	-1.027017	-0.365008
1.010	3.434148	-4.969107	664.613458	-2.464348	6.917574	-0.629250	-1.040842	-0.370794
1.020	3.254650	-4.951945	665.504856	-2.503441	7.013518	-0.628078	-1.053864	-0.376172
1.030	3.087842	-4.934207	666.247488	-2.536349	7.097178	-0.627565	-1.065246	-0.380692
1.040	2.946249	-4.917815	666.834035	-2.560547	7.161834	-0.628230	-1.074005	-0.383986
1.050	2.838135	-4.905241	667.271394	-2.574209	7.200568	-0.629979	-1.079106	-0.385781
1.060	2.766410	-4.898857	667.577729	-2.576113	7.206835	-0.632242	-1.079550	-0.385890
1.070	2.730261	-4.899673	667.776097	-2.565524	7.175061	-0.634280	-1.074471	-0.384189
1.080	2.728510	-4.906089	667.885671	-2.542208	7.101425	-0.635482	-1.063270	-0.380635
1.090	2.762555	-4.913653	667.913426	-2.506618	6.984729	-0.635558	-1.045754	-0.375291
1.100	2.836795	-4.916280	667.849933	-2.460135	6.826970	-0.634534	-1.022231	-0.368366
1.110	2.956217	-4.908355	667.672264	-2.405085	6.633228	-0.632561	-0.993486	-0.360219
1.120	3.122955	-4.886601	667.354293	-2.344356	6.410748	-0.629575	-0.960621	-0.351291
1.130	3.334536	-4.850872	666.880565	-2.280796	6.167421	-0.625004	-0.924816	-0.342010
1.140	3.585115	-4.803775	666.257079	-2.216809	5.910111	-0.617741	-0.887062	-0.332726
1.150	3.868437	-4.749661	665.513041	-2.154372	5.643423	-0.606457	-0.847981	-0.323716
1.160	4.179788	-4.693718	664.692212	-2.095285	5.369452	-0.590173	-0.807810	-0.315226
1.170	4.515009	-4.641557	663.838523	-2.041296	5.088789	-0.568774	-0.766570	-0.307499
1.180	4.867144	-4.599049	662.984074	-1.993974	4.802473	-0.543193	-0.724372	-0.300757
1.190	5.223329	-4.571828	662.146199	-1.954451	4.513943	-0.515148	-0.681714	-0.295169
1.200	5.564688	-4.564175	661.335091	-1.923201	4.229900	-0.486583	-0.639600	-0.290806
1.210	5.870032	-4.577601	660.567553	-1.899854	3.959504	-0.459141	-0.599409	-0.287609
1.220	6.121780	-4.609907	659.878566	-1.883078	3.712262	-0.433907	-0.562567	-0.285367
1.230	6.311238	-4.655373	659.322702	-1.870642	3.495552	-0.411480	-0.530173	-0.283722
1.240	6.440802	-4.706180	658.962832	-1.859763	3.312773	-0.392189	-0.502725	-0.282226
1.250	6.522228	-4.754455	658.851271	-1.847673	3.162726	-0.376224	-0.480036	-0.280439
1.260	6.571969	-4.793926	659.012958	-1.832226	3.040356	-0.363628	-0.461350	-0.278026
1.270	6.605652	-4.820627	659.437886	-1.812467	2.938525	-0.354233	-0.445611	-0.274850
1.280	6.633679	-4.832969	660.083579	-1.789032	2.850112	-0.347696	-0.431780	-0.271031
1.290	6.659073	-4.831812	660.883959	-1.764085	2.769686	-0.343619	-0.419088	-0.266928
1.300	6.677968	-4.820694	661.760777	-1.740581	2.694341	-0.341682	-0.407147	-0.263023
1.310	6.682637	-4.805604	662.635004	-1.721064	2.623695	-0.341705	-0.395949	-0.259730
1.320	6.666272	-4.793684	663.436054	-1.706658	2.559310	-0.343610	-0.385766	-0.257245
1.330	6.627654	-4.791040	664.107598	-1.696789	2.503756	-0.347315	-0.377011	-0.255499
1.340	6.573278	-4.800862	664.610727	-1.689713	2.459497	-0.352568	-0.370066	-0.254241
1.350	6.515335	-4.823108	664.926425	-1.683376	2.427860	-0.358786	-0.365132	-0.253167
1.360	6.466287	-4.855932	665.058206	-1.675979	2.408356	-0.364980	-0.362127	-0.252005
1.370	6.432980	-4.897608	665.033273	-1.665883	2.398420	-0.369884	-0.360647	-0.250496
1.380	6.413626	-4.947339	664.899284	-1.651076	2.393507	-0.372380	-0.359980	-0.248320
1.390	6.399230	-5.004173	664.715145	-1.628750	2.387421	-0.372076	-0.359165	-0.245030
1.400	6.378509	-5.064718	664.537560	-1.595474	2.372916	-0.369798	-0.357078	-0.240088
1.410	6.343796	-5.121248	664.407894	-1.548056	2.342691	-0.367649	-0.352598	-0.232998
1.420	6.295306	-5.161723	664.343584	-1.484795	2.290844	-0.368475	-0.344828	-0.223498
1.430	6.242168	-5.172215	664.335578	-1.406597	2.214584	-0.374854	-0.333353	-0.211730
1.440	6.199975	-5.141024	664.351447	-1.317452	2.115672	-0.387961	-0.318457	-0.198307
1.450	6.185787	-5.062950	664.343906	-1.224026	2.000824	-0.406835	-0.301173	-0.184246
1.460	6.212308	-4.942030	664.263651	-1.134371	1.880548	-0.428405	-0.283103	-0.170771
1.470	6.283094	-4.791457	664.072978	-1.056121	1.766485	-0.448396	-0.266008	-0.159037
1.480	6.390333	-4.630460	663.755596	-0.994745	1.668139	-0.462807	-0.251318	-0.149866
1.490	6.516105	-4.479229	663.320346	-0.952390	1.590323	-0.469339	-0.239752	-0.143579
1.500	6.637035	-4.353841	662.799645	-0.927614	1.532454	-0.468103	-0.231209	-0.139954
1.510	6.731177	-4.262964	662.244666	-0.915987	1.489915	-0.461279	-0.224979	-0.138316
1.520	6.784912	-4.207021	661.718580	-0.911303	1.456706	-0.452009	-0.220140	-0.137718
1.530	6.797303	-4.179422	661.287940	-0.907113	1.428025	-0.443115	-0.215946	-0.137174
1.540	6.779958	-4.169159	661.011704	-0.898298	1.401637	-0.436263	-0.212044	-0.135897
1.550	6.752202	-4.164188	660.928208	-0.882355	1.377777	-0.431763	-0.208461	-0.133502
1.560	6.733344	-4.154932	661.042940	-0.860042	1.358163	-0.428903	-0.205458	-0.130104
1.570	6.735185	-4.136846	661.322191	-0.835109	1.345053	-0.426534	-0.203388	-0.126279
1.580	6.757734	-4.111022	661.697349	-0.813281	1.340973	-0.423640	-0.202656	-0.122908
1.590	6.789625	-4.082565	662.080611	-0.800867	1.349129	-0.419689	-0.203771	-0.120962
1.600	6.812701	-4.057696	662.387358	-0.803365	1.373958	-0.414663	-0.207425	-0.121283
1.610	6.808540	-4.041263	662.557246	-0.824179	1.421079	-0.408819	-0.214484	-0.124394
1.620	6.764188	-4.035930	662.567413	-0.863592	1.496264	-0.402388	-0.225828	-0.130340
1.630	6.675150	-4.042884	662.435326	-0.918308	1.603655	-0.395442	-0.242085	-0.138626
1.640	6.545053	-4.062702	662.212306	-0.981971	1.744055	-0.387989	-0.263368	-0.148286
1.650	6.382610	-4.095049	661.970323	-1.046735	1.914187	-0.380211	-0.289165	-0.158124
1.660	6.197218	-4.137134	661.785060	-1.105444	2.107316	-0.372634	-0.318429	-0.167040
1.670	5.994929	-4.182332	661.718870	-1.153599	2.314982	-0.366083	-0.349844	-0.174334
1.680	5.776410	-4.220568	661.807561	-1.190404	2.528976	-0.361456	-0.382132	-0.179872
1.690	5.537694	-4.241006	662.054233	-1.218750	2.742670	-0.359454	-0.414267	-0.184086
1.700	5.273211	-4.236157	662.431563	-1.244327	2.951232	-0.360405	-0.445515	-0.187842
1.710	4.979555	-4.205696	662.892145	-1.274208	3.150985	-0.364197	-0.475339	-0.192220
1.720	4.658540	-4.158270	663.384788	-1.315056	3.338576	-0.370281	-0.503264	-0.198234
1.730	4.318896	-4.110126	663.872470	-1.371172	3.510455	-0.377715	-0.528785	-0.206542
1.740	3.976683	-4.080551	664.345114	-1.442898	3.662767	-0.385269	-0.551335	-0.217191
1.750	3.654281	-4.085583	664.820568	-1.526065	3.791511	-0.391664	-0.570306	-0.229545
1.760	3.377402	-4.132551	665.331926	-1.612946	3.892867	-0.395936	-0.585101	-0.242427
1.770	3.169934	-4.217741	665.906176	-1.694377	3.963627	-0.397827	-0.595223	-0.254447
1.780	3.047789	-4.327785	666.543599	-1.762197	4.001592	-0.398001	-0.600350	-0.264378
1.790	3.014152	-4.443554	667.207066	-1.811111	4.005696	-0.397908	-0.600368	-0.271447
1.800	3.058440	-4.544661	667.826343	-1.839515	3.975763	-0.399302	-0.595329	-0.275448
1.810	3.159704	-4.613359	668.316543	-1.849321	3.912102	-0.403644	-0.585367	-0.276713
1.820	3.293086	-4.637561	668.603908	-1.845064	3.815287	-0.411665	-0.570635	-0.275958
1.830	3.436518	-4.613007	668.648508	-1.832671	3.686289	-0.423175	-0.551304	-0.274086
1.840	3.575188	-4.544259	668.454218	-1.818235	3.526782	-0.437119	-0.527603	-0.272006
1.850	3.702775	-4.443981	668.062053	-1.807123	3.339324	-0.451818	-0.499852	-0.270502
1.860	3.819984	-4.330254	667.531142	-1.803500	3.127323	-0.465363	-0.468491	-0.270175
1.870	3.931646	-4.222390	666.917528	-1.810146	2.894871	-0.476039	-0.434067	-0.271420
1.880	4.043713	-4.136440	666.260593	-1.828347	2.646488	-0.482584	-0.397215	-0.274419
1.890	4.161207	-4.081890	665.580785	-1.857734	2.386657	-0.484196	-0.358583	-0.279115
1.900	4.287530	-4.060728	664.885758	-1.896142	2.119101	-0.480424	-0.318717	-0.285183
1.910	4.424746	-4.069133	664.179263	-1.939756	1.846083	-0.471145	-0.277950	-0.292053
1.920	4.574066	-4.100802	663.467952	-1.983897	1.568314	-0.456741	-0.236381	-0.299019
1.930	4.736094	-4.150198	662.764068	-2.024488	1.285823	-0.438311	-0.194009	-0.305461
1.940	4.910701	-4.214219	662.085221	-2.059601	0.999405	-0.417662	-0.150948	-0.311078
1.950	5.096614	-4.291861	661.454248	-2.090257	0.711794	-0.396965	-0.107610	-0.316009
1.960	5.290753	-4.382521	660.900771	-2.119974	0.427831	-0.378192	-0.064734	-0.320770
1.970	5.487618	-4.484152	660.462727	-2.153261	0.153482	-0.362626	-0.023239	-0.326023
1.980	5.679281	-4.592256	660.184493	-2.193807	-0.105864	-0.350637	0.016036	-0.332302
1.990	5.856624	-4.700202	660.110239	-2.243139	-0.347139	-0.341754	0.052588	-0.339813
2.000	6.011932	-4.800774	660.274955	-2.300121	-0.570670	-0.334962	0.086429	-0.348358
2.010	6.141917	-4.888389	660.697071	-2.361256	-0.780209	-0.329111	0.118089	-0.357389
2.020	6.249419	-4.960723	661.373781	-2.421550	-0.981937	-0.323288	0.148469	-0.366139
2.030	6.342435	-5.018503	662.276766	-2.475748	-1.182781	-0.317043	0.178593	-0.373824
2.040	6.430754	-5.063265	663.346992	-2.519720	-1.388527	-0.310442	0.209321	-0.379849
2.050	6.522028	-5.094662	664.492053	-2.551717	-1.602329	-0.304004	0.241136	-0.384010
2.060	6.619385	-5.109521	665.592343	-2.573030	-1.824108	-0.298547	0.274058	-0.386577
2.070	6.721525	-5.103619	666.519072	-2.587641	-2.051001	-0.294930	0.307718	-0.388232
2.080	6.824895	-5.075107	667.159917	-2.600801	-2.278542	-0.293699	0.341529	-0.389832
2.090	6.926626	-5.027293	667.442432	-2.617119	-2.501964	-0.294765	0.374858	-0.392112
2.100	7.026723	-4.969024	667.345743	-2.639094	-2.717055	-0.297307	0.407144	-0.395461
2.110	7.128387	-4.912541	666.896904	-2.666919	-2.920378	-0.299971	0.437905	-0.399900
2.120	7.236317	-4.870101	666.155402	-2.699627	-3.109000	-0.301238	0.466708	-0.405255
2.130	7.353913	-4.851084	665.193600	-2.736881	-3.280091	-0.299769	0.493103	-0.411441
2.140	7.480891	-4.860652	664.081544	-2.780214	-3.430656	-0.294587	0.516602	-0.418655
2.150	7.612472	-4.899977	662.881777	-2.832801	-3.557511	-0.285140	0.536674	-0.427346
2.160	7.740323	-4.967154	661.653915	-2.897803	-3.657439	-0.271328	0.552772	-0.437963
2.170	7.854367	-5.057778	660.462543	-2.976252	-3.727509	-0.253590	0.564379	-0.450631
2.180	7.944206	-5.164755	659.380283	-3.065751	-3.765565	-0.233007	0.571076	-0.464944
2.190	7.999466	-5.277980	658.482524	-3.160709	-3.770823	-0.211327	0.572654	-0.479999
2.200	8.009418	-5.384969	657.837111	-3.254033	-3.744353	-0.190763	0.569192	-0.494656
2.210	7.962945	-5.473080	657.495347	-3.339445	-3.689183	-0.173549	0.561097	-0.507904
2.220	7.849954	-5.532771	657.488451	-3.413377	-3.610016	-0.161339	0.549061	-0.519154
2.230	7.664534	-5.560416	657.829560	-3.475576	-3.512776	-0.154700	0.533995	-0.528340
2.240	7.408754	-5.559189	658.518475	-3.528204	-3.404284	-0.152990	0.516961	-0.535779
2.250	7.094869	-5.537420	659.545235	-3.573985	-3.292094	-0.154733	0.499146	-0.541886
2.260	6.744262	-5.505137	660.889026	-3.614403	-3.184317	-0.158319	0.481823	-0.546900
2.270	6.383380	-5.470317	662.511704	-3.648899	-3.089147	-0.162641	0.466278	-0.550767
2.280	6.038669	-5.436546	664.349221	-3.675472	-3.014072	-0.167355	0.453688	-0.553244
2.290	5.732681	-5.403122	666.306684	-3.692372	-2.965116	-0.172694	0.445008	-0.554155
2.300	5.482334	-5.367379	668.261530	-3.699982	-2.946568	-0.178963	0.440930	-0.553673
2.310	5.299025	-5.327725	670.075820	-3.701869	-2.961403	-0.186001	0.441950	-0.552455
2.320	5.189622	-5.285418	671.614969	-3.704311	-3.012180	-0.192823	0.448498	-0.551553
2.330	5.157527	-5.244024	672.767456	-3.714327	-3.101852	-0.197618	0.461059	-0.552097
2.340	5.203489	-5.207157	673.458864	-3.737019	-3.233939	-0.198170	0.480199	-0.554899
