Time[s]	Fx[N]	Fy[N]	Fz[N]	Mx[Nm]	My[Nm]	Mz[Nm]	COPx[cm]	COPy[cm]
0.010	0.368493	1.924383	608.609339	-4.682208	-5.125742	-0.069085	0.842206	-0.769329
0.020	0.427654	1.399018	607.012026	-5.113430	-5.064237	-0.075803	0.834289	-0.842394
0.030	0.481740	0.922720	605.525999	-5.531854	-4.998974	-0.081970	0.825559	-0.913562
0.040	0.527309	0.533705	604.238982	-5.928450	-4.927699	-0.086929	0.815522	-0.981143
0.050	0.563308	0.249437	603.214524	-6.300506	-4.850632	-0.089821	0.804131	-1.044488
0.060	0.590259	0.063968	602.493389	-6.651426	-4.770529	-0.089622	0.791798	-1.103983
0.070	0.608629	-0.048304	602.097570	-6.988007	-4.692048	-0.085395	0.779284	-1.160610
0.080	0.617202	-0.124123	602.031692	-7.316395	-4.620788	-0.076727	0.767532	-1.215284
0.090	0.612308	-0.200736	602.281778	-7.638668	-4.562405	-0.064129	0.757520	-1.268288
0.100	0.588642	-0.305916	602.814515	-7.951595	-4.522023	-0.049118	0.750152	-1.319078
0.110	0.541867	-0.451071	603.579279	-8.247860	-4.503907	-0.033832	0.746200	-1.366492
0.120	0.471991	-0.629016	604.512308	-8.518789	-4.511110	-0.020343	0.746240	-1.409200
0.130	0.385566	-0.816701	605.540564	-8.757090	-4.544915	-0.009988	0.750555	-1.446161
0.140	0.294998	-0.981852	606.583687	-8.958601	-4.604259	-0.003028	0.759048	-1.476894
0.150	0.214924	-1.091531	607.555402	-9.122880	-4.685640	0.001284	0.771228	-1.501572
0.160	0.157471	-1.120543	608.368245	-9.253045	-4.783878	0.004353	0.786346	-1.520961
0.170	0.128839	-1.058035	608.944962	-9.355362	-4.893574	0.007804	0.803615	-1.536323
0.180	0.128806	-0.911364	609.235619	-9.438727	-5.010772	0.013092	0.822469	-1.549274
0.190	0.153210	-0.706532	609.233443	-9.513893	-5.134187	0.021229	0.842729	-1.561617
0.200	0.198093	-0.484475	608.979624	-9.592240	-5.265498	0.032633	0.864643	-1.575133
0.210	0.263403	-0.293027	608.551369	-9.684059	-5.408495	0.047056	0.888749	-1.591330
0.220	0.354301	-0.175931	608.036405	-9.796586	-5.567265	0.063589	0.915614	-1.611184
0.230	0.479224	-0.161951	607.504600	-9.932305	-5.744050	0.080761	0.945515	-1.634935
0.240	0.645565	-0.257813	606.988726	-10.088182	-5.937635	0.096758	0.978212	-1.662005
0.250	0.855168	-0.447464	606.481515	-10.256352	-6.142937	0.109774	1.012881	-1.691124
0.260	1.101894	-0.697801	605.948413	-10.426314	-6.351923	0.118416	1.048261	-1.720660
0.270	1.372162	-0.968803	605.349292	-10.588069	-6.555365	0.122007	1.082906	-1.749084
0.280	1.647654	-1.224823	604.660558	-10.735257	-6.744725	0.120613	1.115456	-1.775419
0.290	1.908656	-1.443604	603.890895	-10.867337	-6.913601	0.114809	1.144843	-1.799553
0.300	2.137149	-1.620502	603.086947	-10.990089	-7.058545	0.105353	1.170402	-1.822306
0.310	2.319640	-1.767009	602.327939	-11.114179	-7.179230	0.093008	1.191914	-1.845204
0.320	2.449939	-1.904480	601.710517	-11.252078	-7.278102	0.078552	1.209569	-1.870015
0.330	2.531313	-2.055188	601.326753	-11.414137	-7.359542	0.062825	1.223884	-1.898159
0.340	2.576434	-2.233351	601.239708	-11.604972	-7.428584	0.046628	1.235545	-1.930174
0.350	2.603655	-2.438858	601.462708	-11.821519	-7.489273	0.030457	1.245177	-1.965462
0.360	2.629935	-2.656009	601.950166	-12.053793	-7.543094	0.014246	1.253109	-2.002457
0.370	2.663195	-2.858392	602.606500	-12.288436	-7.588090	-0.002637	1.259211	-2.039214
0.380	2.697999	-3.019010	603.313482	-12.513777	-7.619236	-0.021025	1.262898	-2.074175
0.390	2.717010	-3.122314	603.967397	-12.724208	-7.630255	-0.041351	1.263355	-2.106771
0.400	2.697615	-3.173103	604.510921	-12.921837	-7.616392	-0.063133	1.259926	-2.137569
0.410	2.620568	-3.197753	604.945540	-13.114581	-7.577087	-0.084828	1.252524	-2.167894
0.420	2.477058	-3.236226	605.319321	-13.311601	-7.517286	-0.104125	1.241871	-2.199104
0.430	2.272122	-3.327593	605.697011	-13.518220	-7.446719	-0.118545	1.229446	-2.231845
0.440	2.024235	-3.494986	606.127034	-13.732608	-7.377379	-0.126052	1.217134	-2.265632
0.450	1.761964	-3.736174	606.619105	-13.945523	-7.320295	-0.125452	1.206737	-2.298893
0.460	1.518587	-4.023461	607.139323	-14.142944	-7.282929	-0.116523	1.199548	-2.329440
0.470	1.325443	-4.312498	607.621894	-14.310225	-7.268085	-0.099988	1.196153	-2.355120
0.480	1.205082	-4.555912	607.991169	-14.435882	-7.274505	-0.077428	1.196482	-2.374357
0.490	1.165900	-4.715951	608.185484	-14.513408	-7.298620	-0.051121	1.200065	-2.386346
0.500	1.200002	-4.771739	608.175484	-14.540638	-7.336607	-0.023720	1.206331	-2.390862
0.510	1.285270	-4.720141	607.972726	-14.517357	-7.386024	0.002241	1.214861	-2.387830
0.520	1.391268	-4.572226	607.627254	-14.442573	-7.446697	0.024902	1.225537	-2.376880
0.530	1.487387	-4.348030	607.215027	-14.312631	-7.520891	0.043459	1.238588	-2.357094
0.540	1.551083	-4.071025	606.818562	-14.120664	-7.612857	0.058190	1.254552	-2.326999
0.550	1.574031	-3.762403	606.506707	-13.857263	-7.727804	0.070070	1.274150	-2.284767
0.560	1.564407	-3.435384	606.319963	-13.512133	-7.870406	0.080132	1.298062	-2.228548
0.570	1.544342	-3.090952	606.265100	-13.076599	-8.043221	0.088848	1.326684	-2.156911
0.580	1.543137	-2.717308	606.318400	-12.546818	-8.245532	0.095775	1.359934	-2.069345
0.590	1.588280	-2.294556	606.433575	-11.927031	-8.473023	0.099602	1.397189	-1.966750
0.600	1.697137	-1.803853	606.550483	-11.231644	-8.718377	0.098605	1.437370	-1.851725
0.610	1.871977	-1.237788	606.603558	-10.484858	-8.972521	0.091371	1.479141	-1.728453
0.620	2.100067	-0.607789	606.530664	-9.717420	-9.226019	0.077577	1.521113	-1.602132
0.630	2.358973	0.054622	606.281917	-8.961183	-9.470141	0.058529	1.562003	-1.478056
0.640	2.625050	0.703536	605.826432	-8.243008	-9.697393	0.037249	1.600688	-1.360622
0.650	2.881507	1.289745	605.156070	-7.579701	-9.901666	0.018015	1.636217	-1.252520
0.660	3.122548	1.773916	604.287947	-6.975384	-10.078322	0.005457	1.667801	-1.154315
0.670	3.352073	2.137900	603.267954	-6.422072	-10.224515	0.003475	1.694855	-1.064547
0.680	3.577984	2.390587	602.174196	-5.903553	-10.339677	0.014293	1.717057	-0.980373
0.690	3.804974	2.565945	601.115298	-5.401646	-10.425834	0.037903	1.734415	-0.898604
0.700	4.029007	2.713174	600.218668	-4.903006	-10.487439	0.071994	1.747270	-0.816870
0.710	4.235798	2.881639	599.608801	-4.404130	-10.530727	0.112366	1.756266	-0.734501
0.720	4.403919	3.105343	599.382057	-3.912755	-10.562819	0.153750	1.762285	-0.652798
0.730	4.511365	3.391982	599.587493	-3.445299	-10.590790	0.190910	1.766346	-0.574612
0.740	4.543111	3.719963	600.220977	-3.021737	-10.620754	0.219744	1.769474	-0.503438
0.750	4.496618	4.044161	601.233098	-2.660092	-10.656990	0.238084	1.772522	-0.442439
0.760	4.382888	4.308588	602.544942	-2.372371	-10.701318	0.245967	1.776020	-0.393725
0.770	4.222598	4.462259	604.063820	-2.162634	-10.753120	0.245365	1.780130	-0.358014
0.780	4.039531	4.473699	605.693960	-2.026970	-10.810230	0.239520	1.784768	-0.334653
0.790	3.854935	4.339958	607.341256	-1.954817	-10.870552	0.232000	1.789859	-0.321865
0.800	3.685255	4.087645	608.913650	-1.931049	-10.933768	0.225647	1.795619	-0.317130
0.810	3.542916	3.765843	610.319764	-1.938377	-11.002370	0.221617	1.802722	-0.317600
0.820	3.437921	3.433173	611.469370	-1.959637	-11.081489	0.218936	1.812272	-0.320480
0.830	3.378462	3.143038	612.278956	-1.979677	-11.177514	0.214882	1.825559	-0.323329
0.840	3.370318	2.931536	612.682808	-1.986734	-11.296069	0.206167	1.843706	-0.324268
0.850	3.416008	2.811599	612.645869	-1.973351	-11.440165	0.190404	1.867337	-0.322103
0.860	3.514775	2.774542	612.172353	-1.936847	-11.609312	0.167195	1.896412	-0.316389
0.870	3.663884	2.797479	611.305490	-1.879148	-11.799825	0.138385	1.930266	-0.307399
0.880	3.860675	2.853115	610.118055	-1.805668	-12.005993	0.107492	1.967815	-0.295954
0.890	4.103820	2.918277	608.697823	-1.723253	-12.221352	0.078581	2.007786	-0.283105
0.900	4.392185	2.978928	607.134025	-1.637662	-12.439459	0.055043	2.048882	-0.269736
0.910	4.721281	3.031168	605.509027	-1.551478	-12.654041	0.038655	2.089819	-0.256227
0.920	5.079340	3.079043	603.895576	-1.463194	-12.858833	0.029196	2.129314	-0.242293
0.930	5.445817	3.130672	602.357465	-1.367734	-13.047493	0.024732	2.166071	-0.227064
0.940	5.793816	3.194336	600.951553	-1.258102	-13.213937	0.022475	2.198836	-0.209352
0.950	6.095723	3.275798	599.730513	-1.127457	-13.353168	0.019879	2.226528	-0.187994
0.960	6.329870	3.377355	598.746326	-0.970925	-13.462412	0.015523	2.248433	-0.162160
0.970	6.485892	3.498436	598.053061	-0.786637	-13.542083	0.009409	2.264361	-0.131533
0.980	6.567158	3.637093	597.705136	-0.575921	-13.595959	0.002616	2.274693	-0.096355
0.990	6.589512	3.791579	597.747363	-0.342834	-13.630208	-0.003404	2.280262	-0.057354
1.000	6.576580	3.961371	598.197743	-0.093391	-13.651463	-0.007480	2.282099	-0.015612
1.010	6.552981	4.147298	599.030202	0.165251	-13.664561	-0.009065	2.281114	0.027586
1.020	6.537537	4.350839	600.166560	0.425534	-13.670762	-0.008235	2.277828	0.070903
1.030	6.538623	4.572886	601.483089	0.680095	-13.667056	-0.005487	2.272226	0.113070
1.040	6.552979	4.812326	602.830379	0.922193	-13.646797	-0.001447	2.263787	0.152977
1.050	6.568010	5.064763	604.060256	1.146016	-13.601507	0.003403	2.251681	0.189719
1.060	6.566297	5.321860	605.051858	1.347035	-13.523300	0.008914	2.235065	0.222631
1.070	6.530526	5.571914	605.730419	1.522455	-13.407173	0.015231	2.213389	0.251342
1.080	6.447356	5.801969	606.075421	1.671502	-13.252429	0.022524	2.186597	0.275791
1.090	6.309532	6.001022	606.118118	1.795054	-13.062848	0.030650	2.155165	0.296156
1.100	6.116260	6.163048	605.931101	1.894331	-12.845725	0.038987	2.119998	0.312631
1.110	5.872305	6.288167	605.613625	1.968969	-12.610360	0.046586	2.082245	0.325120
1.120	5.586552	6.380905	605.275689	2.015336	-12.366625	0.052559	2.043139	0.332962
1.130	5.270878	6.445897	605.021857	2.026038	-12.123966	0.056473	2.003889	0.334870
1.140	4.939842	6.483043	604.934822	1.991110	-11.890784	0.058573	1.965631	0.329145
1.150	4.610774	6.484656	605.060180	1.900591	-11.673874	0.059706	1.929374	0.314116
1.160	4.302948	6.436251	605.396539	1.747497	-11.477759	0.061004	1.895908	0.288653
1.170	4.034810	6.320821	605.895896	1.530054	-11.304096	0.063437	1.865683	0.252528
1.180	3.819920	6.124871	606.476781	1.252479	-11.151644	0.067436	1.838759	0.206517
1.190	3.664040	5.843757	607.047765	0.924291	-11.017166	0.072741	1.814876	0.152260
1.200	3.565662	5.484347	607.533950	0.558683	-10.897095	0.078536	1.793660	0.091959
1.210	3.519843	5.064200	607.896802	0.170662	-10.789260	0.083801	1.774851	0.028074
1.220	3.522449	4.608017	608.139684	-0.224578	-10.693904	0.087680	1.758462	-0.036929
1.230	3.571562	4.143066	608.296901	-0.612948	-10.613604	0.089674	1.744807	-0.100765
1.240	3.665342	3.695418	608.410885	-0.982529	-10.552216	0.089633	1.734390	-0.161491
1.250	3.798664	3.287888	608.507459	-1.324435	-10.513262	0.087648	1.727713	-0.217653
1.260	3.961670	2.939352	608.580219	-1.633376	-10.498322	0.083941	1.725052	-0.268391
1.270	4.141638	2.664306	608.590684	-1.907834	-10.506014	0.078780	1.726286	-0.313484
1.280	4.327107	2.471651	608.483059	-2.149822	-10.531936	0.072384	1.730851	-0.353308
1.290	4.511764	2.362763	608.206042	-2.364217	-10.569576	0.064827	1.737828	-0.388720
1.300	4.695955	2.329868	607.732287	-2.557642	-10.611732	0.056010	1.746120	-0.420850
1.310	4.885258	2.356042	607.068509	-2.737044	-10.651806	0.045708	1.754630	-0.450862
1.320	5.087189	2.417399	606.253394	-2.908411	-10.684483	0.033664	1.762379	-0.479735
1.330	5.307636	2.486884	605.344898	-3.076113	-10.705696	0.019662	1.768528	-0.508159
1.340	5.547997	2.538476	604.402304	-3.243166	-10.712088	0.003619	1.772344	-0.536591
1.350	5.803228	2.550809	603.469862	-3.412233	-10.700291	-0.014275	1.773128	-0.565436
1.360	6.060758	2.509748	602.567207	-3.586814	-10.666134	-0.033329	1.770115	-0.595255
1.370	6.300469	2.409782	601.688473	-3.772010	-10.603735	-0.052083	1.762330	-0.626904
1.380	6.496051	2.254203	600.809654	-3.974479	-10.504568	-0.068139	1.748402	-0.661520
1.390	6.617804	2.054095	599.902280	-4.201565	-10.357026	-0.078292	1.726452	-0.700375
1.400	6.636484	1.826196	598.949945	-4.459776	-10.147196	-0.079088	1.694164	-0.744599
1.410	6.527769	1.589814	597.962992	-4.752894	-9.861228	-0.067833	1.649137	-0.794848
1.420	6.277182	1.363168	596.986818	-5.080137	-9.488808	-0.043844	1.589450	-0.850963
1.430	5.884966	1.159710	596.100573	-5.434894	-9.026446	-0.009476	1.514249	-0.911741
1.440	5.369187	0.985114	595.405589	-5.804702	-8.479073	0.029573	1.424084	-0.974916
1.450	4.764636	0.835536	595.006823	-6.173004	-7.859188	0.065033	1.320857	-1.037468
1.460	4.116494	0.697679	594.994568	-6.522582	-7.183982	0.087794	1.207403	-1.096242
1.470	3.470609	0.551033	595.434119	-6.839637	-6.471844	0.090181	1.086912	-1.148681
1.480	2.864445	0.372313	596.366069	-7.116890	-5.739632	0.068121	0.962434	-1.193376
1.490	2.322324	0.141495	597.812303	-7.354431	-5.001460	0.022566	0.836627	-1.230224
1.500	1.855707	-0.151686	599.778535	-7.557993	-4.268819	-0.040292	0.711733	-1.260131
1.510	1.466360	-0.502239	602.247137	-7.735522	-3.551422	-0.110243	0.589695	-1.284443
1.520	1.149595	-0.887048	605.162187	-7.893695	-2.858165	-0.175465	0.472297	-1.304393
1.530	0.896448	-1.266496	608.415887	-8.035964	-2.197856	-0.225448	0.361242	-1.320801
1.540	0.695644	-1.592030	611.846579	-8.162897	-1.579568	-0.253486	0.258164	-1.334141
1.550	0.536321	-1.818927	615.252806	-8.274372	-1.012517	-0.257950	0.164569	-1.344874
1.560	0.410998	-1.920463	618.419076	-8.372317	-0.505385	-0.242067	0.081722	-1.353826
1.570	0.316837	-1.897695	621.142783	-8.462409	-0.065108	-0.212543	0.010482	-1.362393
1.580	0.253549	-1.780222	623.252106	-8.553578	0.304570	-0.177647	-0.048868	-1.372411
1.590	0.218360	-1.617070	624.611224	-8.655199	0.604223	-0.145381	-0.096736	-1.385694
1.600	0.201054	-1.461323	625.117213	-8.773133	0.838997	-0.122049	-0.134214	-1.403438
1.610	0.182840	-1.354581	624.697384	-8.906569	1.017801	-0.111375	-0.162927	-1.425741
1.620	0.140530	-1.316575	623.314074	-9.047370	1.151716	-0.114203	-0.184773	-1.451495
1.630	0.053821	-1.342360	620.977926	-9.182324	1.252227	-0.128803	-0.201654	-1.478688
1.640	-0.088608	-1.406574	617.764485	-9.297221	1.329830	-0.151699	-0.215265	-1.504978
1.650	-0.287034	-1.472531	613.825953	-9.380903	1.393322	-0.178754	-0.226990	-1.528268
1.660	-0.532241	-1.503219	609.391036	-9.427732	1.449703	-0.206139	-0.237894	-1.547074
1.670	-0.808215	-1.471057	604.750130	-9.437926	1.504407	-0.230929	-0.248765	-1.560632
1.680	-1.094245	-1.363749	600.227863	-9.416182	1.561542	-0.251293	-0.260158	-1.568768
1.690	-1.366746	-1.185125	596.147579	-9.369557	1.623947	-0.266427	-0.272407	-1.571684
1.700	-1.602172	-0.951803	592.792821	-9.305445	1.693156	-0.276379	-0.285624	-1.569763
1.710	-1.781638	-0.687602	590.371922	-9.230118	1.769554	-0.281827	-0.299736	-1.563441
1.720	-1.896184	-0.417470	588.993656	-9.147931	1.852979	-0.283809	-0.314601	-1.553146
1.730	-1.950590	-0.162088	588.660661	-9.061078	1.943696	-0.283458	-0.330190	-1.539270
1.740	-1.963789	0.065824	589.281523	-8.969741	2.043336	-0.281834	-0.346750	-1.522149
1.750	-1.965083	0.262617	590.696168	-8.872500	2.155211	-0.279850	-0.364860	-1.502041
1.760	-1.987043	0.432086	592.706860	-8.767032	2.283744	-0.278216	-0.385307	-1.479151
1.770	-2.057429	0.581980	595.108230	-8.651126	2.433121	-0.277223	-0.408854	-1.453706
1.780	-2.192953	0.720189	597.711324	-8.523849	2.605657	-0.276360	-0.435939	-1.426081
1.790	-2.396832	0.852104	600.358303	-8.386453	2.800381	-0.273958	-0.466452	-1.396908
1.800	-2.660124	0.979831	602.927106	-8.242603	3.012330	-0.267268	-0.499618	-1.367098
1.810	-2.965129	1.102887	605.328977	-8.097843	3.232859	-0.253141	-0.534066	-1.337759
1.820	-3.288910	1.219089	607.503589	-7.958620	3.450952	-0.229132	-0.568055	-1.310053
1.830	-3.606129	1.324425	609.414873	-7.831373	3.655075	-0.194527	-0.599768	-1.285064
1.840	-3.891514	1.411984	611.047019	-7.721894	3.834848	-0.150861	-0.627586	-1.263715
1.850	-4.122405	1.471594	612.398160	-7.634843	3.981959	-0.101799	-0.650224	-1.246712
1.860	-4.281067	1.491975	613.470846	-7.573168	4.090264	-0.052489	-0.666741	-1.234479
1.870	-4.355864	1.465354	614.261694	-7.537409	4.155430	-0.008530	-0.676492	-1.227068
1.880	-4.340718	1.392159	614.754173	-7.525226	4.174625	0.025292	-0.679072	-1.224103
1.890	-4.233291	1.282805	614.917274	-7.531586	4.146536	0.046209	-0.674324	-1.224813
1.900	-4.033228	1.155211	614.710564	-7.549755	4.071774	0.054166	-0.662389	-1.228180
1.910	-3.741925	1.029157	614.094794	-7.572786	3.953512	0.051678	-0.643795	-1.233162
1.920	-3.364430	0.920189	613.046644	-7.594921	3.798006	0.042870	-0.619530	-1.238881
1.930	-2.912665	0.835780	611.574767	-7.612471	3.614624	0.032116	-0.591036	-1.244733
1.940	-2.408084	0.775014	609.732079	-7.623929	3.415179	0.022856	-0.560111	-1.250374
1.950	-1.881838	0.731256	607.618698	-7.629378	3.212695	0.017018	-0.528735	-1.255619
1.960	-1.371463	0.696103	605.372884	-7.629435	3.019977	0.015120	-0.498862	-1.260287
1.970	-0.914538	0.662921	603.152308	-7.624268	2.848343	0.016762	-0.472243	-1.264070
1.980	-0.541230	0.628987	601.111591	-7.613139	2.706717	0.021150	-0.450285	-1.266510
1.990	-0.268486	0.595972	599.382813	-7.594613	2.601069	0.027442	-0.433958	-1.267072
2.000	-0.098220	0.568954	598.063646	-7.567114	2.534088	0.034909	-0.423716	-1.265269
2.010	-0.020078	0.554612	597.214075	-7.529389	2.504948	0.042995	-0.419439	-1.260752
2.020	-0.017189	0.559570	596.859103	-7.480622	2.509137	0.051326	-0.420390	-1.253331
2.030	-0.072184	0.589532	596.994086	-7.420151	2.538569	0.059637	-0.425225	-1.242919
2.040	-0.171010	0.649165	597.591315	-7.347019	2.582322	0.067666	-0.432122	-1.229439
2.050	-0.303528	0.741995	598.608048	-7.259688	2.628120	0.075113	-0.439039	-1.212762
2.060	-0.461690	0.869659	599.994925	-7.156225	2.664138	0.081728	-0.444027	-1.192714
2.070	-0.637397	1.030411	601.701287	-7.034921	2.680396	0.087470	-0.445469	-1.169172
2.080	-0.821863	1.217696	603.673646	-6.895049	2.669262	0.092544	-0.442170	-1.142182
2.090	-1.006695	1.419986	605.847000	-6.737282	2.625177	0.097246	-0.433307	-1.112044
2.100	-1.185070	1.622743	608.133714	-6.563491	2.544047	0.101660	-0.418337	-1.079284
2.110	-1.351072	1.812339	610.417132	-6.376039	2.422734	0.105386	-0.396898	-1.044538
2.120	-1.496778	1.980582	612.555047	-6.176993	2.258797	0.107473	-0.368750	-1.008398
2.130	-1.608810	2.127773	614.393393	-5.967773	2.050440	0.106634	-0.333734	-0.971328
2.140	-1.667023	2.262603	615.786112	-5.749581	1.796672	0.101659	-0.291769	-0.933698
2.150	-1.647157	2.398453	616.615006	-5.524536	1.497772	0.091810	-0.242902	-0.895946
2.160	-1.527237	2.547291	616.804139	-5.296871	1.156100	0.077046	-0.187434	-0.858761
2.170	-1.295527	2.713581	616.326785	-5.073355	0.776928	0.057970	-0.126058	-0.823160
2.180	-0.956519	2.890823	615.206532	-4.862533	0.368762	0.035607	-0.059941	-0.790390
2.190	-0.531714	3.062308	613.515036	-4.673107	-0.057170	0.011179	0.009318	-0.761694
2.200	-0.054265	3.205873	611.366526	-4.512232	-0.488160	-0.013943	0.079847	-0.738057
2.210	0.440118	3.300950	608.906425	-4.384447	-0.911490	-0.038169	0.149693	-0.720053
2.220	0.921474	3.335487	606.292217	-4.291570	-1.315579	-0.059678	0.216988	-0.707839
2.230	1.369311	3.310297	603.670003	-4.233394	-1.690429	-0.076710	0.280025	-0.701276
2.240	1.771041	3.239133	601.156256	-4.208534	-2.027379	-0.088135	0.337247	-0.700073
2.250	2.117662	3.144289	598.834687	-4.214769	-2.318555	-0.094088	0.387178	-0.703828
2.260	2.400284	3.049291	596.770142	-4.248755	-2.556718	-0.096265	0.428426	-0.711958
2.270	2.609525	2.971324	595.029943	-4.305716	-2.735927	-0.097589	0.459796	-0.723613
2.280	2.737347	2.916103	593.697533	-4.379788	-2.852851	-0.101286	0.480523	-0.737714
2.290	2.779453	2.877099	592.868474	-4.465189	-2.907971	-0.109739	0.490492	-0.753150
2.300	2.736430	2.839559	592.630608	-4.557599	-2.905905	-0.123618	0.490340	-0.769045
2.310	2.612751	2.787938	593.039557	-4.654960	-2.854660	-0.141661	0.481361	-0.784932
2.320	2.414138	2.713917	594.101693	-4.757219	-2.764272	-0.161174	0.465286	-0.800742
2.330	2.145047	2.621608	595.770747	-4.865185	-2.645528	-0.179013	0.444051	-0.816620
2.340	1.808464	2.527430	597.956480	-4.979090	-2.509279	-0.192592	0.419642	-0.832684
2.350	1.408989	2.454287	600.538501	-5.097584	-2.366375	-0.200488	0.394042	-0.848835
2.360	0.957969	2.422321	603.377611	-5.217647	-2.227849	-0.202460	0.369230	-0.864740
