Time[s]	Fx[N]	Fy[N]	Fz[N]	Mx[Nm]	My[Nm]	Mz[Nm]	COPx[cm]	COPy[cm]
0.010	7.109836	-1.894152	687.974478	-6.180027	22.996417	1.038274	-3.342626	-0.898293
0.020	7.117304	-1.825303	688.086380	-6.185146	23.111989	1.034120	-3.358879	-0.898891
0.030	7.112429	-1.760870	688.185267	-6.180109	23.231202	1.030538	-3.375719	-0.898030
0.040	7.084354	-1.703479	688.261494	-6.158656	23.356596	1.027859	-3.393564	-0.894813
0.050	7.024351	-1.652473	688.308926	-6.119903	23.489162	1.025984	-3.412590	-0.889122
0.060	6.927645	-1.604052	688.326539	-6.067728	23.628377	1.024511	-3.432728	-0.881519
0.070	6.795111	-1.552842	688.319971	-6.008239	23.772676	1.023054	-3.453725	-0.872885
0.080	6.634057	-1.494510	688.301578	-5.946721	23.920075	1.021540	-3.475232	-0.863970
0.090	6.457356	-1.428460	688.286792	-5.885522	24.068590	1.020260	-3.496884	-0.855097
0.100	6.280594	-1.359135	688.286379	-5.823700	24.216251	1.019662	-3.518339	-0.846116
0.110	6.117819	-1.294668	688.297964	-5.758280	24.360746	1.020062	-3.539273	-0.836597
0.120	5.977547	-1.242927	688.302520	-5.686229	24.499047	1.021498	-3.559343	-0.826124
0.130	5.861008	-1.206767	688.269886	-5.606027	24.627428	1.023776	-3.578164	-0.814510
0.140	5.763684	-1.181233	688.172308	-5.518213	24.742103	1.026634	-3.595335	-0.801865
0.150	5.679367	-1.154608	687.999849	-5.424975	24.840314	1.029891	-3.610512	-0.788514
0.160	5.604422	-1.113096	687.769983	-5.329272	24.921406	1.033504	-3.623509	-0.774863
0.170	5.539736	-1.046842	687.526573	-5.233938	24.987347	1.037490	-3.634383	-0.761271
0.180	5.489214	-0.954367	687.328078	-5.140980	25.042368	1.041768	-3.643437	-0.747966
0.190	5.455814	-0.843572	687.228823	-5.051215	25.091733	1.046027	-3.651147	-0.735012
0.200	5.437666	-0.729278	687.259709	-4.964405	25.140061	1.049748	-3.658015	-0.722348
0.210	5.426912	-0.628565	687.415952	-4.879931	25.189832	1.052385	-3.664424	-0.709895
0.220	5.412228	-0.555626	687.658052	-4.797725	25.240612	1.053628	-3.670518	-0.697691
0.230	5.383816	-0.517651	687.926787	-4.718964	25.289199	1.053610	-3.676147	-0.685969
0.240	5.338217	-0.512954	688.165619	-4.646144	25.330591	1.052960	-3.680886	-0.675149
0.250	5.280491	-0.531906	688.339678	-4.582498	25.359464	1.052626	-3.684150	-0.665732
0.260	5.222718	-0.560229	688.442870	-4.531040	25.371711	1.053490	-3.685376	-0.658158
0.270	5.179594	-0.583270	688.491722	-4.493626	25.365504	1.055843	-3.684213	-0.652677
0.280	5.163136	-0.589759	688.511488	-4.470370	25.341500	1.059012	-3.680621	-0.649280
0.290	5.178766	-0.574228	688.522563	-4.459626	25.302199	1.061427	-3.674854	-0.647710
0.300	5.224208	-0.537978	688.532968	-4.458597	25.250923	1.061203	-3.667351	-0.647550
0.310	5.291139	-0.488631	688.538126	-4.464419	25.190952	1.056966	-3.658614	-0.648391
0.320	5.368204	-0.438129	688.525831	-4.475393	25.125101	1.048460	-3.649115	-0.649996
0.330	5.443779	-0.399334	688.483547	-4.491787	25.055649	1.036633	-3.639252	-0.652418
0.340	5.507699	-0.382218	688.405588	-4.515756	24.984423	1.023295	-3.629317	-0.655973
0.350	5.552361	-0.391288	688.297845	-4.550307	24.912861	1.010593	-3.619488	-0.661096
0.360	5.573943	-0.425343	688.177837	-4.597706	24.842045	1.000564	-3.609829	-0.668098
0.370	5.573742	-0.479259	688.069345	-4.658016	24.772703	0.994784	-3.600321	-0.676969
0.380	5.558609	-0.546416	687.993883	-4.728372	24.705174	0.994102	-3.590900	-0.687269
0.390	5.539446	-0.620523	687.963415	-4.803316	24.639328	0.998417	-3.581488	-0.698194
0.400	5.528010	-0.696448	687.977800	-4.876158	24.574506	1.006539	-3.571991	-0.708767
0.410	5.533573	-0.770349	688.027259	-4.940940	24.509554	1.016273	-3.562294	-0.718131
0.420	5.561034	-0.839429	688.097800	-4.994273	24.442953	1.024831	-3.552250	-0.725809
0.430	5.611019	-0.901470	688.177189	-5.036298	24.372877	1.029578	-3.541657	-0.731832
0.440	5.681372	-0.954404	688.259755	-5.070419	24.297078	1.028905	-3.530219	-0.736701
0.450	5.769021	-0.996337	688.348612	-5.102015	24.212668	1.022858	-3.517501	-0.741196
0.460	5.871254	-1.026168	688.453826	-5.136804	24.116125	1.013187	-3.502940	-0.746136
0.470	5.985961	-1.044576	688.585932	-5.179606	24.003803	1.002706	-3.485956	-0.752209
0.480	6.111122	-1.054844	688.746709	-5.233865	23.872874	0.994214	-3.466133	-0.759911
0.490	6.244269	-1.063064	688.922175	-5.301775	23.722267	0.989516	-3.443389	-0.769575
0.500	6.382550	-1.077415	689.082962	-5.384449	23.553035	0.989015	-3.418026	-0.781393
0.510	6.523513	-1.106550	689.192822	-5.481762	23.367941	0.992021	-3.390625	-0.795389
0.520	6.666175	-1.157357	689.220491	-5.591961	23.170402	0.997467	-3.361827	-0.811346
0.530	6.811769	-1.232733	689.148808	-5.711483	22.963209	1.004570	-3.332112	-0.828774
0.540	6.963610	-1.330064	688.978208	-5.835373	22.747536	1.013102	-3.301634	-0.846960
0.550	7.126007	-1.441122	688.725470	-5.958219	22.522781	1.023264	-3.270212	-0.865108
0.560	7.302592	-1.553786	688.419641	-6.075091	22.287618	1.035340	-3.237505	-0.882469
0.570	7.494708	-1.655315	688.096374	-6.181964	22.042107	1.049409	-3.203346	-0.898415
0.580	7.700291	-1.736073	687.791793	-6.275663	21.790005	1.065203	-3.168111	-0.912437
0.590	7.913272	-1.792336	687.537594	-6.353899	21.539976	1.082091	-3.132916	-0.924153
0.600	8.123387	-1.827292	687.358697	-6.415867	21.304816	1.099085	-3.099519	-0.933409
0.610	8.316542	-1.850071	687.272889	-6.463154	21.098828	1.114924	-3.069935	-0.940406
0.620	8.476112	-1.873071	687.290774	-6.500068	20.934415	1.128310	-3.045933	-0.945752
0.630	8.585432	-1.908183	687.415241	-6.532791	20.819194	1.138292	-3.028620	-0.950341
0.640	8.631237	-1.962877	687.640686	-6.567557	20.754495	1.144559	-3.018218	-0.955086
0.650	8.607325	-2.037507	687.951923	-6.608743	20.735447	1.147408	-3.014084	-0.960640
0.660	8.517213	-2.125087	688.322408	-6.657702	20.752340	1.147369	-3.014916	-0.967236
0.670	8.374409	-2.213952	688.712637	-6.712547	20.792669	1.144744	-3.019063	-0.974651
0.680	8.199614	-2.292367	689.071367	-6.768669	20.843324	1.139418	-3.024843	-0.982289
0.690	8.015585	-2.353104	689.342318	-6.819695	20.892524	1.131087	-3.030791	-0.989305
0.700	7.841732	-2.395847	689.476780	-6.858847	20.931322	1.119723	-3.035827	-0.994790
0.710	7.690659	-2.426199	689.448710	-6.880571	20.954500	1.105941	-3.039312	-0.997982
0.720	7.567730	-2.451854	689.265776	-6.882127	20.960679	1.090981	-3.041016	-0.998472
0.730	7.473174	-2.478142	688.970222	-6.864570	20.951616	1.076361	-3.041005	-0.996352
0.740	7.405127	-2.505359	688.628305	-6.832717	20.930954	1.063398	-3.039514	-0.992221
0.750	7.361733	-2.528965	688.312847	-6.793984	20.902955	1.052867	-3.036839	-0.987049
0.760	7.341209	-2.542113	688.085738	-6.756340	20.871612	1.044846	-3.033286	-0.981904
0.770	7.340414	-2.539109	687.985306	-6.725983	20.840266	1.038780	-3.029173	-0.977635
0.780	7.353691	-2.518234	688.020048	-6.705578	20.811490	1.033720	-3.024838	-0.974620
0.790	7.373505	-2.482680	688.168415	-6.693780	20.786933	1.028696	-3.020617	-0.972695
0.800	7.392793	-2.439113	688.384596	-6.686145	20.767068	1.023075	-3.016783	-0.971280
0.810	7.407514	-2.394648	688.609939	-6.676943	20.751021	1.016744	-3.013465	-0.969626
0.820	7.417791	-2.353867	688.787408	-6.661021	20.736760	1.010028	-3.010618	-0.967065
0.830	7.427107	-2.317459	688.874392	-6.634991	20.721723	1.003411	-3.008055	-0.963164
0.840	7.440173	-2.283072	688.849888	-6.597487	20.703761	0.997228	-3.005555	-0.957754
0.850	7.460580	-2.247562	688.715246	-6.548756	20.681980	0.991503	-3.002980	-0.950866
0.860	7.489211	-2.209117	688.490350	-6.490106	20.657131	0.986019	-3.000352	-0.942657
0.870	7.523868	-2.168016	688.207713	-6.423557	20.631353	0.980563	-2.997838	-0.933375
0.880	7.560039	-2.125846	687.905874	-6.351666	20.607458	0.975150	-2.995680	-0.923334
0.890	7.592410	-2.083895	687.622949	-6.277266	20.588094	0.970042	-2.994096	-0.912894
0.900	7.616692	-2.041752	687.391738	-6.202963	20.575156	0.965564	-2.993221	-0.902391
0.910	7.631239	-1.996888	687.237926	-6.130597	20.569565	0.961889	-2.993078	-0.892063
0.920	7.637913	-1.945442	687.181072	-6.060923	20.571378	0.958992	-2.993589	-0.881998
0.930	7.641817	-1.883883	687.235783	-5.993642	20.580099	0.956789	-2.994620	-0.872138
0.940	7.649883	-1.810785	687.410068	-5.927618	20.595068	0.955361	-2.996038	-0.862312
0.950	7.668635	-1.727983	687.699691	-5.861146	20.615819	0.955110	-2.997794	-0.852283
0.960	7.701578	-1.640588	688.080573	-5.792349	20.642241	0.956719	-2.999974	-0.841813
0.970	7.746942	-1.555659	688.504549	-5.719797	20.674389	0.960876	-3.002796	-0.830757
0.980	7.796826	-1.479793	688.904596	-5.643117	20.711921	0.967833	-3.006501	-0.819144
0.990	7.838541	-1.416396	689.211254	-5.563149	20.753351	0.977038	-3.011174	-0.807176
1.000	7.858170	-1.363793	689.374434	-5.481403	20.795488	0.987046	-3.016574	-0.795127
1.010	7.845353	-1.315178	689.380204	-5.399077	20.833354	0.995741	-3.022041	-0.783178
1.020	7.797779	-1.260699	689.254527	-5.316320	20.860787	1.000805	-3.026572	-0.771315
1.030	7.723936	-1.191104	689.053079	-5.232316	20.871632	1.000320	-3.029031	-0.759349
1.040	7.643175	-1.101610	688.842453	-5.146134	20.861152	0.993352	-3.028436	-0.747070
1.050	7.582684	-0.994406	688.680007	-5.057664	20.827026	0.980322	-3.024195	-0.734400
1.060	7.571510	-0.878687	688.598486	-4.967842	20.769456	0.962985	-3.016192	-0.721442
1.070	7.632752	-0.768045	688.599097	-4.877986	20.690403	0.943958	-3.004710	-0.708393
1.080	7.776159	-0.676140	688.654099	-4.788782	20.592546	0.925943	-2.990260	-0.695383
1.090	7.993910	-0.612341	688.717510	-4.699838	20.478704	0.910931	-2.973455	-0.682404
1.100	8.261313	-0.579118	688.741151	-4.610278	20.352113	0.899721	-2.954973	-0.669377
1.110	8.542204	-0.572062	688.692100	-4.520073	20.217307	0.891951	-2.935609	-0.656327
1.120	8.797144	-0.582190	688.566268	-4.431239	20.080898	0.886592	-2.916335	-0.643546
1.130	8.991942	-0.599250	688.392355	-4.348122	19.951530	0.882625	-2.898279	-0.631634
1.140	9.104477	-0.614621	688.223466	-4.276471	19.838646	0.879580	-2.882588	-0.621378
1.150	9.128352	-0.623056	688.119401	-4.221608	19.750359	0.877691	-2.870194	-0.613499
1.160	9.072631	-0.623297	688.127139	-4.186365	19.691262	0.877641	-2.861573	-0.608371
1.170	8.958030	-0.617837	688.266479	-4.169734	19.661187	0.880077	-2.856624	-0.605831
1.180	8.811008	-0.611895	688.523821	-4.166965	19.655548	0.885211	-2.854737	-0.605203
1.190	8.657615	-0.611600	688.854045	-4.171329	19.667099	0.892756	-2.855046	-0.605546
1.200	8.518552	-0.621822	689.190010	-4.176820	19.688274	0.902210	-2.856727	-0.606048
1.210	8.406073	-0.644520	689.458548	-4.180464	19.713126	0.913259	-2.859218	-0.606340
1.220	8.322873	-0.678314	689.599150	-4.183045	19.738335	0.926013	-2.862291	-0.606591
1.230	8.263064	-0.719250	689.579190	-4.188013	19.763291	0.940932	-2.865993	-0.607329
1.240	8.215219	-0.762173	689.400728	-4.199359	19.789616	0.958467	-2.870553	-0.609132
1.250	8.166844	-0.802123	689.097678	-4.219624	19.820407	0.978620	-2.876284	-0.612340
1.260	8.108749	-0.835506	688.725200	-4.248923	19.859329	1.000684	-2.883491	-0.616926
1.270	8.037576	-0.860918	688.344638	-4.285155	19.909598	1.023347	-2.892388	-0.622531
1.280	7.955598	-0.879368	688.008300	-4.324889	19.973020	1.045168	-2.903020	-0.628610
1.290	7.868301	-0.893727	687.748991	-4.364250	20.049397	1.065180	-2.915220	-0.634570
1.300	7.781283	-0.907618	687.577978	-4.399514	20.136616	1.083240	-2.928630	-0.639857
1.310	7.697918	-0.924229	687.491618	-4.427572	20.231447	1.099841	-2.942792	-0.644018
1.320	7.618416	-0.945456	687.482600	-4.446580	20.330742	1.115489	-2.957274	-0.646792
1.330	7.540177	-0.971448	687.549117	-4.456759	20.432480	1.130082	-2.971785	-0.648210
1.340	7.459047	-1.000425	687.696016	-4.460982	20.536226	1.142753	-2.986236	-0.648685
1.350	7.371064	-1.028690	687.926642	-4.464692	20.642801	1.152278	-3.000727	-0.649007
1.360	7.274254	-1.051116	688.230205	-4.474918	20.753270	1.157772	-3.015455	-0.650207
1.370	7.170016	-1.062526	688.572777	-4.498451	20.867594	1.159224	-3.030558	-0.653301
1.380	7.063678	-1.059950	688.898140	-4.539618	20.983514	1.157581	-3.045953	-0.658968
1.390	6.963950	-1.044858	689.139234	-4.598449	21.096319	1.154377	-3.061256	-0.667274
1.400	6.881293	-1.023892	689.235883	-4.670061	21.199888	1.151144	-3.075854	-0.677571
1.410	6.825672	-1.007221	689.152280	-4.745673	21.288809	1.148896	-3.089130	-0.688625
1.420	6.804351	-1.005106	688.888582	-4.814906	21.360730	1.147879	-3.100753	-0.698938
1.430	6.820168	-1.024371	688.483502	-4.868505	21.417893	1.147627	-3.110880	-0.707135
1.440	6.870321	-1.066389	688.007458	-4.900480	21.467144	1.147291	-3.120191	-0.712271
1.450	6.945606	-1.127045	687.548061	-4.909046	21.518451	1.146034	-3.129738	-0.713993
1.460	7.030405	-1.198159	687.191557	-4.896289	21.582535	1.143307	-3.140687	-0.712507
1.470	7.104189	-1.269472	687.004702	-4.866951	21.668342	1.138910	-3.154031	-0.708431
1.480	7.145103	-1.330581	687.020835	-4.826962	21.781005	1.132896	-3.170356	-0.702593
1.490	7.135318	-1.372595	687.232533	-4.782258	21.920749	1.125486	-3.189713	-0.695872
1.500	7.066634	-1.389639	687.592735	-4.738102	22.082946	1.117026	-3.211632	-0.689086
1.510	6.944147	-1.380382	688.025579	-4.698742	22.259212	1.107971	-3.235230	-0.682931
1.520	6.786205	-1.349247	688.445840	-4.667114	22.439096	1.098831	-3.259384	-0.677920
1.530	6.620282	-1.306444	688.782227	-4.644513	22.611830	1.090048	-3.282871	-0.674308
1.540	6.475964	-1.266084	688.996940	-4.630520	22.767840	1.081753	-3.304491	-0.672067
1.550	6.377233	-1.242614	689.093629	-4.623522	22.899935	1.073411	-3.323196	-0.670957
1.560	6.336459	-1.246832	689.109265	-4.621865	23.004154	1.063506	-3.338245	-0.670701
1.570	6.351907	-1.282974	689.092521	-4.625166	23.080096	1.049559	-3.349346	-0.671197
1.580	6.409349	-1.347837	689.078515	-4.635003	23.130554	1.028684	-3.356737	-0.672638
1.590	6.486861	-1.432025	689.072109	-4.654444	23.160496	0.998665	-3.361114	-0.675465
1.600	6.560906	-1.522775	689.047408	-4.686558	23.175723	0.959152	-3.363444	-0.680150
1.610	6.611803	-1.607460	688.963087	-4.732633	23.181660	0.912427	-3.364717	-0.686921
1.620	6.627466	-1.676726	688.786061	-4.790930	23.182637	0.863328	-3.365724	-0.695561
1.630	6.605007	-1.726319	688.512322	-4.856556	23.181779	0.818245	-3.366937	-0.705369
1.640	6.550151	-1.757072	688.175137	-4.922520	23.181339	0.783525	-3.368523	-0.715300
1.650	6.474699	-1.773203	687.837387	-4.981633	23.183118	0.763830	-3.370436	-0.724246
1.660	6.392773	-1.779673	687.572690	-5.028551	23.188590	0.761003	-3.372529	-0.731348
1.670	6.317179	-1.779706	687.443468	-5.061271	23.198606	0.773817	-3.374620	-0.736245
1.680	6.257199	-1.773541	687.482754	-5.081533	23.212877	0.798670	-3.376503	-0.739151
1.690	6.218304	-1.759163	687.683825	-5.093975	23.229589	0.830914	-3.377946	-0.740744
1.700	6.203160	-1.734792	688.000113	-5.104376	23.245389	0.866272	-3.378690	-0.741915
1.710	6.212696	-1.701782	688.355943	-5.117703	23.255798	0.901801	-3.378455	-0.743468
1.720	6.246440	-1.666181	688.665597	-5.136748	23.256014	0.936140	-3.376968	-0.745899
1.730	6.302224	-1.637923	688.855379	-5.161709	23.242080	0.969145	-3.374014	-0.749317
1.740	6.375827	-1.627981	688.882364	-5.190561	23.212258	1.001181	-3.369553	-0.753476
1.750	6.461016	-1.644712	688.744578	-5.219717	23.168242	1.032478	-3.363836	-0.757860
1.760	6.550062	-1.690711	688.480109	-5.244605	23.115602	1.062763	-3.357483	-0.761766
1.770	6.634648	-1.761018	688.155986	-5.260117	23.062976	1.091272	-3.351417	-0.764379
1.780	6.707106	-1.842940	687.850254	-5.261158	23.019989	1.117017	-3.346657	-0.764870
1.790	6.761888	-1.917501	687.631847	-5.243492	22.994582	1.139133	-3.344025	-0.762543
1.800	6.796847	-1.962473	687.543100	-5.204752	22.990828	1.157132	-3.343911	-0.757007
1.810	6.813447	-1.956919	687.589312	-5.145247	23.008115	1.170987	-3.346200	-0.748302
1.820	6.815213	-1.886594	687.738863	-5.068240	23.041990	1.181047	-3.350398	-0.736943
1.830	6.804943	-1.748886	687.935457	-4.979633	23.086264	1.187879	-3.355876	-0.723852
1.840	6.782413	-1.555703	688.120172	-4.887194	23.135490	1.192143	-3.362129	-0.710224
1.850	6.744191	-1.332999	688.255738	-4.799403	23.186858	1.194598	-3.368931	-0.697328
1.860	6.685555	-1.116323	688.342320	-4.723920	23.240835	1.196219	-3.376348	-0.686275
1.870	6.603001	-0.942933	688.416769	-4.665851	23.300369	1.198277	-3.384631	-0.677765
1.880	6.495859	-0.842536	688.534708	-4.626313	23.369016	1.202236	-3.394022	-0.671907
1.890	6.366717	-0.829717	688.742314	-4.602013	23.448646	1.209411	-3.404560	-0.668176
1.900	6.221392	-0.900639	689.048693	-4.586226	23.537610	1.220492	-3.415957	-0.665588
1.910	6.068960	-1.034910	689.410047	-4.570812	23.630150	1.235137	-3.427590	-0.663003
1.920	5.921481	-1.201631	689.733561	-4.548413	23.717444	1.251840	-3.438639	-0.659445
1.930	5.792530	-1.367467	689.902172	-4.514031	23.789960	1.268142	-3.448309	-0.654300
1.940	5.694249	-1.504223	689.812894	-4.465723	23.840227	1.281099	-3.456043	-0.647382
1.950	5.633786	-1.593927	689.415422	-4.404553	23.864975	1.287875	-3.461625	-0.638882
1.960	5.610760	-1.630566	688.737394	-4.333963	23.865917	1.286318	-3.465169	-0.629262
1.970	5.617084	-1.618804	687.886927	-4.258727	23.849068	1.275399	-3.467004	-0.619103
1.980	5.639397	-1.570715	687.029670	-4.183899	23.822993	1.255408	-3.467535	-0.608984
1.990	5.663252	-1.501651	686.345842	-4.114192	23.796632	1.227851	-3.467149	-0.599434
2.000	5.677506	-1.426167	685.980695	-4.053807	23.777246	1.195128	-3.466168	-0.590951
2.010	5.677370	-1.354751	686.004907	-4.006283	23.768888	1.160089	-3.464828	-0.584002
2.020	5.665111	-1.291985	686.397355	-3.973957	23.771712	1.125560	-3.463258	-0.578959
2.030	5.648345	-1.236637	687.054295	-3.957148	23.782277	1.093941	-3.461484	-0.575959
2.040	5.636731	-1.183743	687.820582	-3.953564	23.794754	1.066939	-3.459442	-0.574796
2.050	5.638364	-1.127968	688.532470	-3.958512	23.802562	1.045505	-3.456999	-0.574920
2.060	5.657193	-1.066887	689.059330	-3.965976	23.799863	1.029926	-3.453964	-0.575564
2.070	5.692315	-1.002716	689.333278	-3.970135	23.782483	1.020022	-3.450070	-0.575938
2.080	5.739307	-0.941675	689.359429	-3.966733	23.748178	1.015342	-3.444963	-0.575423
2.090	5.792928	-0.891339	689.204110	-3.953939	23.696452	1.015269	-3.438234	-0.573696
2.100	5.849862	-0.857330	688.965049	-3.932503	23.628254	1.019002	-3.429529	-0.570784
2.110	5.910153	-0.840948	688.734877	-3.905212	23.545845	1.025461	-3.418710	-0.567012
2.120	5.976786	-0.838573	688.572346	-3.875791	23.452731	1.033239	-3.405994	-0.562873
2.130	6.053859	-0.842704	688.491599	-3.847700	23.353359	1.040681	-3.391960	-0.558859
2.140	6.144371	-0.844048	688.470696	-3.823251	23.252397	1.046070	-3.377398	-0.555325
2.150	6.248635	-0.834074	688.471790	-3.803245	23.153828	1.047878	-3.363076	-0.552418
2.160	6.363855	-0.807367	688.461346	-3.787088	23.060273	1.044984	-3.349538	-0.550080
2.170	6.484718	-0.763027	688.421433	-3.773310	22.972789	1.036880	-3.337024	-0.548111
2.180	6.604411	-0.704578	688.350312	-3.760353	22.891111	1.023853	-3.325503	-0.546285
2.190	6.715505	-0.638631	688.256629	-3.747377	22.814206	1.007131	-3.314782	-0.544474
2.200	6.810620	-0.573055	688.152946	-3.734796	22.740965	0.988788	-3.304638	-0.542728
2.210	6.883146	-0.515420	688.051890	-3.724381	22.670777	0.971263	-3.294923	-0.541294
2.220	6.928450	-0.472018	687.965213	-3.719016	22.603670	0.956548	-3.285583	-0.540582
2.230	6.945644	-0.447418	687.904230	-3.722261	22.539930	0.945434	-3.276609	-0.541102
2.240	6.939220	-0.444483	687.879561	-3.737838	22.479419	0.937273	-3.267930	-0.543385
2.250	6.919246	-0.464814	687.898902	-3.769005	22.421066	0.930466	-3.259355	-0.547901
2.260	6.899105	-0.509388	687.963505	-3.817861	22.362877	0.923429	-3.250591	-0.554951
2.270	6.891200	-0.578991	688.065841	-3.884708	22.302565	0.915519	-3.241342	-0.564584
2.280	6.902652	-0.673968	688.190639	-3.967637	22.238457	0.907447	-3.231439	-0.576532
2.290	6.933382	-0.793142	688.319244	-4.062482	22.170122	0.901011	-3.220907	-0.590203
2.300	6.977480	-0.932341	688.434923	-4.163239	22.098333	0.898327	-3.209938	-0.604740
2.310	7.026787	-1.083457	688.526178	-4.263092	22.024403	0.900953	-3.198775	-0.619162
2.320	7.074553	-1.234995	688.586736	-4.355887	21.949301	0.909282	-3.187587	-0.632584
2.330	7.117435	-1.374366	688.613419	-4.437541	21.872972	0.922433	-3.176379	-0.644417
2.340	7.155286	-1.491174	688.604513	-4.506704	21.794086	0.938637	-3.164964	-0.654469
