Time[s]	Fx[N]	Fy[N]	Fz[N]	Mx[Nm]	My[Nm]	Mz[Nm]	COPx[cm]	COPy[cm]
0.010	2.900679	-0.615183	706.009141	0.705892	-2.344173	-0.051326	0.332032	0.099983
0.020	2.908133	-0.679491	705.400166	0.767665	-2.238760	-0.060866	0.317374	0.108827
0.030	2.911892	-0.726461	704.784782	0.820909	-2.143569	-0.070240	0.304145	0.116477
0.040	2.907386	-0.744608	704.177846	0.859883	-2.065355	-0.078954	0.293300	0.122112
0.050	2.889034	-0.732314	703.624590	0.883021	-2.005014	-0.086134	0.284955	0.125496
0.060	2.851095	-0.698767	703.198687	0.893052	-1.957623	-0.090964	0.278388	0.126998
0.070	2.789550	-0.660996	702.984015	0.895859	-1.914719	-0.093299	0.272370	0.127437
0.080	2.704260	-0.637601	703.044981	0.898524	-1.867879	-0.094002	0.265684	0.127805
0.090	2.600509	-0.641414	703.397458	0.907098	-1.812228	-0.094745	0.257639	0.128960
0.100	2.489332	-0.674191	703.993578	0.924705	-1.748508	-0.097295	0.248370	0.131351
0.110	2.386344	-0.725797	704.727711	0.950508	-1.682964	-0.102652	0.238810	0.134876
0.120	2.309167	-0.778387	705.461703	0.979992	-1.625207	-0.110446	0.230375	0.138915
0.130	2.273921	-0.813895	706.060029	1.006628	-1.585016	-0.118953	0.224487	0.142570
0.140	2.291636	-0.821567	706.423014	1.024485	-1.569357	-0.125737	0.222155	0.145024
0.150	2.365521	-0.802090	706.508356	1.030734	-1.580613	-0.128642	0.223722	0.145891
0.160	2.489847	-0.766404	706.335959	1.026970	-1.616312	-0.126658	0.228830	0.145394
0.170	2.650644	-0.730073	705.976258	1.018727	-1.669978	-0.120246	0.236549	0.144301
0.180	2.827813	-0.706355	705.527014	1.013404	-1.732452	-0.111003	0.245554	0.143638
0.190	2.998088	-0.701338	705.086785	1.017440	-1.793258	-0.100924	0.254332	0.144300
0.200	3.138430	-0.712769	704.733428	1.033928	-1.841997	-0.091721	0.261375	0.146712
0.210	3.229650	-0.732048	704.512695	1.061633	-1.869780	-0.084516	0.265401	0.150690
0.220	3.259834	-0.747713	704.437318	1.095833	-1.870545	-0.079877	0.265537	0.155561
0.230	3.226896	-0.748987	704.493148	1.130559	-1.841864	-0.078012	0.261445	0.160478
0.240	3.139386	-0.728565	704.647659	1.161128	-1.785029	-0.078891	0.253322	0.164781
0.250	3.014995	-0.684239	704.857512	1.185740	-1.704424	-0.082200	0.241811	0.168224
0.260	2.876595	-0.619130	705.074684	1.205486	-1.606471	-0.087222	0.227844	0.170973
0.270	2.746535	-0.540653	705.252675	1.222929	-1.498395	-0.092839	0.212462	0.173403
0.280	2.640776	-0.458667	705.354230	1.240138	-1.386948	-0.097814	0.196631	0.175818
0.290	2.564781	-0.383428	705.359830	1.257246	-1.277119	-0.101259	0.181059	0.178242
0.300	2.512493	-0.323977	705.273675	1.272298	-1.170988	-0.102992	0.166033	0.180398
0.310	2.468588	-0.287253	705.123437	1.282477	-1.067050	-0.103552	0.151328	0.181880
0.320	2.413185	-0.277729	704.952566	1.285918	-0.960443	-0.103843	0.136242	0.182412
0.330	2.327729	-0.297044	704.807575	1.282928	-0.844299	-0.104659	0.119791	0.182025
0.340	2.200764	-0.343467	704.725169	1.275831	-0.712013	-0.106332	0.101034	0.181040
0.350	2.032259	-0.411651	704.724189	1.267616	-0.559786	-0.108667	0.079433	0.179874
0.360	1.835149	-0.493361	704.804449	1.260410	-0.388530	-0.111123	0.055126	0.178831
0.370	1.633127	-0.579254	704.950349	1.254822	-0.204438	-0.113116	0.029000	0.178002
0.380	1.454758	-0.661123	705.135372	1.250435	-0.018012	-0.114307	0.002554	0.177333
0.390	1.325365	-0.733713	705.325521	1.246829	0.158112	-0.114764	-0.022417	0.176774
0.400	1.259388	-0.795364	705.482792	1.244302	0.311833	-0.114933	-0.044201	0.176376
0.410	1.256138	-0.847083	705.570796	1.243856	0.433958	-0.115432	-0.061505	0.176291
0.420	1.300675	-0.890469	705.562898	1.246657	0.519683	-0.116804	-0.073655	0.176690
0.430	1.369395	-0.925732	705.450606	1.253412	0.568955	-0.119393	-0.080651	0.177675
0.440	1.438001	-0.951150	705.248865	1.264015	0.585867	-0.123390	-0.083072	0.179230
0.450	1.488670	-0.964406	704.995866	1.277622	0.577413	-0.128896	-0.081903	0.181224
0.460	1.513751	-0.964882	704.746331	1.293079	0.551948	-0.135852	-0.078319	0.183482
0.470	1.514946	-0.955170	704.558814	1.309491	0.517632	-0.143854	-0.073469	0.185860
0.480	1.499119	-0.940516	704.479940	1.326615	0.481154	-0.152021	-0.068299	0.188311
0.490	1.473380	-0.926453	704.530662	1.344991	0.447016	-0.159080	-0.063449	0.190906
0.500	1.442133	-0.916234	704.699391	1.365931	0.417478	-0.163655	-0.059242	0.193832
0.510	1.407282	-0.909727	704.944659	1.391446	0.392916	-0.164640	-0.055737	0.197384
0.520	1.370786	-0.904268	705.207014	1.423961	0.372232	-0.161531	-0.052783	0.201921
0.530	1.337402	-0.896635	705.426319	1.465548	0.353118	-0.154598	-0.050057	0.207754
0.540	1.315479	-0.884693	705.557756	1.516737	0.332327	-0.144863	-0.047101	0.214970
0.550	1.314920	-0.867817	705.580582	1.575538	0.306257	-0.133840	-0.043405	0.223297
0.560	1.343173	-0.846220	705.498212	1.637470	0.271908	-0.123134	-0.038541	0.232101
0.570	1.401340	-0.820163	705.332758	1.696897	0.227910	-0.114035	-0.032312	0.240581
0.580	1.482554	-0.789817	705.118302	1.749181	0.175148	-0.107280	-0.024840	0.248069
0.590	1.573605	-0.755688	704.895435	1.792646	0.116604	-0.103047	-0.016542	0.254314
0.600	1.659286	-0.718899	704.706934	1.829403	0.056357	-0.101108	-0.007997	0.259598
0.610	1.727795	-0.680769	704.592607	1.864743	-0.002030	-0.100956	0.000288	0.264655
0.620	1.775141	-0.641827	704.581813	1.905448	-0.057224	-0.101870	0.008122	0.270437
0.630	1.806881	-0.600983	704.684700	1.957755	-0.111317	-0.102981	0.015797	0.277820
0.640	1.836358	-0.555519	704.885768	2.025541	-0.169836	-0.103451	0.024094	0.287357
0.650	1.879761	-0.502098	705.143847	2.109164	-0.240309	-0.102711	0.034079	0.299111
0.660	1.949689	-0.438338	705.400545	2.205290	-0.329731	-0.100588	0.046744	0.312629
0.670	2.049903	-0.364209	705.595524	2.307888	-0.441841	-0.097204	0.062620	0.327084
0.680	2.173858	-0.282533	705.683654	2.410196	-0.575287	-0.092728	0.081522	0.341541
0.690	2.307744	-0.198247	705.648530	2.506964	-0.723377	-0.087206	0.102512	0.355271
0.700	2.436307	-0.116634	705.508768	2.596163	-0.875539	-0.080593	0.124100	0.367984
0.710	2.548271	-0.041272	705.315342	2.679515	-1.020064	-0.072889	0.144625	0.379903
0.720	2.638970	0.027443	705.138970	2.761728	-1.147319	-0.064253	0.162708	0.391657
0.730	2.709730	0.092710	705.048179	2.848799	-1.252470	-0.055004	0.177643	0.404057
0.740	2.765201	0.160581	705.083038	2.945995	-1.336814	-0.045548	0.189597	0.417822
0.750	2.810438	0.238260	705.234690	3.056076	-1.407266	-0.036273	0.199546	0.433342
0.760	2.849291	0.331712	705.441949	3.178174	-1.474171	-0.027438	0.208971	0.450522
0.770	2.884776	0.443147	705.610609	3.307622	-1.548327	-0.019094	0.219431	0.468760
0.780	2.920866	0.569271	705.650382	3.436810	-1.638392	-0.011078	0.232182	0.487041
0.790	2.964149	0.701132	705.514411	3.556837	-1.749585	-0.003127	0.247987	0.504148
0.800	3.023969	0.825878	705.223288	3.659520	-1.883812	0.004932	0.267123	0.518917
0.810	3.110776	0.929892	704.861879	3.739177	-2.040630	0.012920	0.289508	0.530484
0.820	3.233341	1.002127	704.549460	3.793647	-2.218213	0.020129	0.314841	0.538450
0.830	3.395811	1.036370	704.395289	3.824292	-2.413767	0.025341	0.342672	0.542918
0.840	3.595437	1.031819	704.457814	3.835083	-2.623358	0.027124	0.372394	0.544402
0.850	3.821699	0.992328	704.723542	3.831255	-2.841565	0.024302	0.403217	0.543654
0.860	4.057266	0.925103	705.112360	3.817920	-3.061406	0.016374	0.434173	0.541463
0.870	4.280870	0.839418	705.505157	3.798989	-3.274803	0.003724	0.464178	0.538478
0.880	4.471636	0.745482	705.782313	3.776537	-3.473492	-0.012430	0.492148	0.535085
0.890	4.613827	0.653269	705.859504	3.750717	-3.650085	-0.030304	0.517112	0.531369
0.900	4.700552	0.571082	705.709661	3.720141	-3.799035	-0.047925	0.538328	0.527149
0.910	4.735120	0.503933	705.366071	3.682598	-3.917320	-0.063538	0.555360	0.522083
0.920	4.729529	0.452428	704.908863	3.635912	-4.004689	-0.075938	0.568114	0.515799
0.930	4.700649	0.412998	704.441699	3.578785	-4.063360	-0.084709	0.576820	0.508031
0.940	4.665382	0.379579	704.065827	3.511448	-4.097216	-0.090349	0.581937	0.498739
0.950	4.636129	0.345965	703.856567	3.435943	-4.110845	-0.094195	0.584046	0.488160
0.960	4.617655	0.307814	703.845611	3.355909	-4.108731	-0.098074	0.583755	0.476796
0.970	4.606193	0.263668	704.012907	3.275854	-4.094750	-0.103728	0.581630	0.465312
0.980	4.591233	0.214747	704.292586	3.200126	-4.071849	-0.112209	0.578147	0.454375
0.990	4.559710	0.163667	704.594463	3.131815	-4.041871	-0.123529	0.573645	0.444485
1.000	4.501178	0.112575	704.835212	3.071895	-4.005539	-0.136734	0.568294	0.435832
1.010	4.411978	0.061463	704.966406	3.018844	-3.962654	-0.150331	0.562105	0.428225
1.020	4.296672	0.007506	704.986704	2.968938	-3.912424	-0.162811	0.554964	0.421134
1.030	4.166147	-0.054179	704.933709	2.917162	-3.853885	-0.173058	0.546702	0.413821
1.040	4.033159	-0.128755	704.861472	2.858414	-3.786397	-0.180569	0.537183	0.405529
1.050	3.907242	-0.219878	704.815016	2.788583	-3.710157	-0.185538	0.526401	0.395648
1.060	3.791350	-0.328680	704.812093	2.705238	-3.626556	-0.188791	0.514542	0.383824
1.070	3.682019	-0.453601	704.838462	2.607908	-3.538188	-0.191554	0.501986	0.370001
1.080	3.573064	-0.590636	704.858337	2.498079	-3.448423	-0.195039	0.489236	0.354409
1.090	3.460706	-0.733742	704.835752	2.378953	-3.360587	-0.199981	0.476790	0.337519
1.100	3.346893	-0.875439	704.756534	2.254954	-3.276962	-0.206285	0.464978	0.319962
1.110	3.238709	-1.007701	704.639253	2.130979	-3.198005	-0.212924	0.453850	0.302421
1.120	3.144390	-1.123145	704.529661	2.011556	-3.122164	-0.218166	0.443156	0.285518
1.130	3.068718	-1.216440	704.482463	1.900188	-3.046385	-0.220094	0.432429	0.269728
1.140	3.010723	-1.285666	704.539975	1.798963	-2.967002	-0.217258	0.421126	0.255339
1.150	2.964843	-1.333067	704.716639	1.708438	-2.880522	-0.209233	0.408749	0.242429
1.160	2.924464	-1.364640	704.994287	1.627816	-2.784009	-0.196855	0.394898	0.230898
1.170	2.885575	-1.388525	705.328511	1.555464	-2.675205	-0.182019	0.379285	0.220530
1.180	2.848495	-1.412675	705.662909	1.489688	-2.552833	-0.167092	0.361764	0.211105
1.190	2.816850	-1.442665	705.945756	1.429391	-2.417358	-0.154137	0.342428	0.202479
1.200	2.794498	-1.480345	706.142783	1.374338	-2.271957	-0.144279	0.321742	0.194626
1.210	2.782202	-1.523607	706.240939	1.325023	-2.122983	-0.137505	0.300603	0.187616
1.220	2.775985	-1.567158	706.242010	1.282388	-1.979299	-0.132922	0.280258	0.181579
1.230	2.768089	-1.604033	706.150804	1.247628	-1.850426	-0.129281	0.262044	0.176680
1.240	2.749974	-1.627556	705.966508	1.222015	-1.744160	-0.125486	0.247060	0.173098
1.250	2.715530	-1.633373	705.684057	1.206506	-1.664575	-0.120878	0.235881	0.170970
1.260	2.662806	-1.621106	705.305587	1.201048	-1.611090	-0.115316	0.228424	0.170288
1.270	2.593760	-1.595025	704.854808	1.203883	-1.578817	-0.109092	0.223992	0.170799
1.280	2.512721	-1.563249	704.384316	1.211370	-1.560001	-0.102765	0.221470	0.171976
1.290	2.424447	-1.535364	703.969485	1.218688	-1.546131	-0.096962	0.219630	0.173117
1.300	2.332512	-1.519148	703.690152	1.221273	-1.530128	-0.092169	0.217443	0.173553
1.310	2.238689	-1.517592	703.607942	1.216457	-1.507955	-0.088535	0.214318	0.172888
1.320	2.143658	-1.527497	703.748428	1.204615	-1.479232	-0.085772	0.210193	0.171171
1.330	2.048542	-1.540475	704.093581	1.189392	-1.446834	-0.083213	0.205489	0.168925
1.340	1.956229	-1.546247	704.585202	1.176958	-1.415768	-0.080009	0.200936	0.167043
1.350	1.871816	-1.536814	705.137351	1.174580	-1.391739	-0.075360	0.197371	0.166575
1.360	1.802271	-1.509312	705.654411	1.188826	-1.379758	-0.068695	0.195529	0.168471
1.370	1.755557	-1.466150	706.050646	1.223833	-1.383100	-0.059776	0.195892	0.173335
1.380	1.739216	-1.412775	706.267147	1.280176	-1.402927	-0.048753	0.198640	0.181259
1.390	1.758500	-1.354731	706.282873	1.354782	-1.438671	-0.036188	0.203696	0.191819
1.400	1.814520	-1.295585	706.117476	1.441950	-1.488939	-0.023026	0.210863	0.204208
1.410	1.903166	-1.236394	705.825409	1.535035	-1.552416	-0.010478	0.219943	0.217481
1.420	2.015394	-1.176515	705.483168	1.628108	-1.628310	0.000220	0.230808	0.230779
1.430	2.139101	-1.114999	705.172659	1.717008	-1.716206	0.008097	0.243374	0.243488
1.440	2.262189	-1.051714	704.963450	1.799594	-1.815496	0.012669	0.257531	0.255275
1.450	2.375799	-0.987649	704.896964	1.875438	-1.924762	0.013972	0.273056	0.266058
1.460	2.476425	-0.924498	704.977095	1.945333	-2.041486	0.012375	0.289582	0.275943
1.470	2.565898	-0.863997	705.171626	2.010894	-2.162331	0.008316	0.306639	0.285164
1.480	2.649202	-0.807467	705.424786	2.074263	-2.283890	0.002087	0.323761	0.294044
1.490	2.731028	-0.755739	705.675361	2.137776	-2.403560	-0.006219	0.340604	0.302940
1.500	2.812497	-0.709303	705.871929	2.203599	-2.520124	-0.016620	0.357023	0.312181
1.510	2.889467	-0.668251	705.979401	2.273447	-2.633879	-0.029095	0.373082	0.322027
1.520	2.953440	-0.631491	705.977021	2.348411	-2.746378	-0.043433	0.389018	0.332647
1.530	2.995199	-0.595299	705.853308	2.428740	-2.859966	-0.059131	0.405179	0.344086
1.540	3.010026	-0.552302	705.604685	2.513561	-2.977263	-0.075429	0.421945	0.356228
1.550	3.002168	-0.492425	705.240820	2.600754	-3.100730	-0.091551	0.439670	0.368775
1.560	2.986088	-0.406259	704.793571	2.687343	-3.232382	-0.107037	0.458628	0.381295
1.570	2.983366	-0.289610	704.322223	2.770471	-3.373635	-0.121942	0.478990	0.393353
1.580	3.016174	-0.146875	703.908487	2.848558	-3.525200	-0.136679	0.500804	0.404677
1.590	3.099888	0.008639	703.639399	2.921985	-3.686942	-0.151525	0.523982	0.415267
1.600	3.237774	0.157755	703.581918	2.992889	-3.857657	-0.166028	0.548288	0.425379
1.610	3.419836	0.280624	703.757926	3.064074	-4.034780	-0.178708	0.573319	0.435388
1.620	3.626093	0.362300	704.131001	3.137592	-4.214161	-0.187336	0.598491	0.445598
1.630	3.832661	0.396939	704.613569	3.213654	-4.390152	-0.189748	0.623058	0.456087
1.640	4.017984	0.389295	705.093516	3.290268	-4.556198	-0.184784	0.646183	0.466643
1.650	4.167065	0.352878	705.468528	3.363653	-4.705942	-0.172884	0.667066	0.476797
1.660	4.272988	0.305373	705.673025	3.429266	-4.834597	-0.156049	0.685104	0.485957
1.670	4.336328	0.263101	705.688782	3.483175	-4.940081	-0.137246	0.700037	0.493585
1.680	4.363535	0.236576	705.539862	3.523310	-5.023389	-0.119541	0.711992	0.499378
1.690	4.365058	0.228585	705.278530	3.550064	-5.087988	-0.105268	0.721415	0.503356
1.700	4.353516	0.235082	704.969459	3.566014	-5.138513	-0.095506	0.728899	0.505839
1.710	4.341870	0.248136	704.677051	3.574966	-5.179367	-0.090011	0.734999	0.507320
1.720	4.341512	0.259554	704.457232	3.580835	-5.213786	-0.087558	0.740114	0.508311
1.730	4.360493	0.263865	704.352285	3.586783	-5.243693	-0.086532	0.744470	0.509231
1.740	4.402486	0.259891	704.386448	3.594845	-5.270202	-0.085564	0.748197	0.510351
1.750	4.467036	0.250714	704.561657	3.605910	-5.294363	-0.083996	0.751441	0.511795
1.760	4.551024	0.242295	704.855352	3.619783	-5.317718	-0.082045	0.754441	0.513550
1.770	4.650499	0.241248	705.222803	3.635196	-5.342509	-0.080600	0.757563	0.515468
1.780	4.761787	0.252644	705.604595	3.649908	-5.371620	-0.080733	0.761279	0.517274
1.790	4.881222	0.278620	705.937851	3.661056	-5.408251	-0.083113	0.766109	0.518609
1.800	5.003913	0.318034	706.168574	3.665754	-5.455257	-0.087543	0.772515	0.519105
1.810	5.122682	0.366709	706.262115	3.661660	-5.514122	-0.092858	0.780747	0.518456
1.820	5.228300	0.417671	706.209350	3.647292	-5.583915	-0.097277	0.790688	0.516460
1.830	5.311241	0.461327	706.027675	3.622067	-5.660716	-0.099075	0.801770	0.513020
1.840	5.364029	0.486231	705.757006	3.586199	-5.737877	-0.097242	0.813010	0.508135
1.850	5.382795	0.481284	705.451168	3.540575	-5.807131	-0.091802	0.823180	0.501888
1.860	5.367390	0.439249	705.165409	3.486628	-5.860339	-0.083689	0.831059	0.494441
1.870	5.320587	0.360131	704.942433	3.426129	-5.891428	-0.074334	0.835732	0.486015
1.880	5.247454	0.252414	704.801406	3.360734	-5.897933	-0.065233	0.836822	0.476834
1.890	5.155433	0.131024	704.734904	3.291260	-5.881600	-0.057701	0.834583	0.467021
1.900	5.054655	0.012573	704.716029	3.217004	-5.847740	-0.052847	0.829801	0.456496
1.910	4.957412	-0.090068	704.712872	3.135669	-5.803546	-0.051662	0.823533	0.444957
1.920	4.876038	-0.171454	704.703445	3.044197	-5.756002	-0.054995	0.816798	0.431983
1.930	4.819468	-0.233966	704.684035	2.940327	-5.710108	-0.063306	0.810308	0.417255
1.940	4.789841	-0.285125	704.668000	2.824297	-5.667875	-0.076270	0.804333	0.400798
1.950	4.780976	-0.333441	704.677243	2.699933	-5.628199	-0.092500	0.798692	0.383145
1.960	4.779932	-0.384892	704.731583	2.574536	-5.587525	-0.109702	0.792859	0.365321
1.970	4.771249	-0.441370	704.840213	2.457355	-5.541047	-0.125272	0.786142	0.348640
1.980	4.741928	-0.501148	704.996666	2.357119	-5.484037	-0.137078	0.777881	0.334345
1.990	4.684817	-0.560423	705.177369	2.279554	-5.412863	-0.143993	0.767589	0.323260
2.000	4.599086	-0.614905	705.344522	2.225884	-5.325509	-0.145990	0.755022	0.315574
2.010	4.488297	-0.660880	705.454354	2.192754	-5.221714	-0.143894	0.740192	0.310829
2.020	4.357926	-0.695763	705.470194	2.173422	-5.102972	-0.138973	0.723343	0.308081
2.030	4.214233	-0.718417	705.376720	2.159750	-4.972479	-0.132554	0.704939	0.306184
2.040	4.065010	-0.729474	705.189602	2.144325	-4.834924	-0.125733	0.685621	0.304078
2.050	3.921025	-0.731663	704.955297	2.122025	-4.695988	-0.119218	0.666140	0.301015
2.060	3.796176	-0.729927	704.739219	2.090470	-4.561567	-0.113359	0.647270	0.296630
2.070	3.705218	-0.731000	704.605307	2.049377	-4.436942	-0.108324	0.629706	0.290855
2.080	3.659669	-0.742345	704.593864	1.999339	-4.326095	-0.104347	0.613984	0.283758
2.090	3.663760	-0.770597	704.706251	1.940818	-4.231292	-0.101890	0.600433	0.275408
2.100	3.712358	-0.819918	704.903512	1.873848	-4.152968	-0.101629	0.589154	0.265830
2.110	3.791749	-0.890674	705.120943	1.798386	-4.089867	-0.104245	0.580024	0.255046
2.120	3.882809	-0.978870	705.293304	1.714843	-4.039328	-0.110149	0.572716	0.243139
2.130	3.965094	-1.076802	705.380005	1.624325	-3.997513	-0.119291	0.566718	0.230277
2.140	4.020461	-1.175102	705.379666	1.528497	-3.959456	-0.131140	0.561323	0.216691
2.150	4.035673	-1.265528	705.328498	1.429286	-3.919017	-0.144784	0.555630	0.202641
2.160	4.004268	-1.343078	705.284138	1.328681	-3.869118	-0.159095	0.548590	0.188389
2.170	3.927933	-1.406392	705.302252	1.228661	-3.802650	-0.172861	0.539152	0.174203
2.180	3.817050	-1.456669	705.414934	1.131254	-3.714071	-0.184868	0.526509	0.160367
2.190	3.689488	-1.496243	705.617590	1.038674	-3.601172	-0.193944	0.510358	0.147201
2.200	3.566882	-1.527669	705.867323	0.953409	-3.466141	-0.199024	0.491047	0.135069
2.210	3.468761	-1.553417	706.093323	0.878015	-3.315312	-0.199301	0.469529	0.124348
2.220	3.406407	-1.575872	706.217696	0.814419	-3.157585	-0.194409	0.447112	0.115321
2.230	3.379092	-1.597451	706.181938	0.763025	-3.002103	-0.184568	0.425117	0.108049
2.240	3.374482	-1.620726	705.970486	0.722207	-2.855984	-0.170576	0.404547	0.102300
2.250	3.373126	-1.648343	705.621586	0.688778	-2.722760	-0.153649	0.385867	0.097613
2.260	3.355095	-1.682554	705.219162	0.659386	-2.601861	-0.135198	0.368944	0.093501
2.270	3.306071	-1.724406	704.866768	0.632219	-2.489245	-0.116623	0.353151	0.089693
2.280	3.220799	-1.772922	704.652885	0.608097	-2.378983	-0.099172	0.337611	0.086297
2.290	3.103235	-1.824739	704.621388	0.590362	-2.265333	-0.083819	0.321496	0.083784
2.300	2.964059	-1.874413	704.758950	0.583543	-2.144692	-0.071167	0.304316	0.082800
2.310	2.816848	-1.915202	705.003334	0.591417	-2.016819	-0.061405	0.286072	0.083888
2.320	2.674368	-1.939909	705.267334	0.615359	-1.884974	-0.054364	0.267271	0.087252
2.330	2.546188	-1.941669	705.467492	0.653765	-1.754946	-0.049644	0.248764	0.092671
2.340	2.438066	-1.915066	705.546844	0.702737	-1.633396	-0.046763	0.231508	0.099602
2.350	2.352509	-1.857880	705.485605	0.757599	-1.526100	-0.045224	0.216319	0.107387
2.360	2.289495	-1.772813	705.299736	0.814460	-1.436638	-0.044450	0.203692	0.115477
2.370	2.246975	-1.667891	705.031576	0.871211	-1.365765	-0.043629	0.193717	0.123571
2.380	2.221601	-1.554675	704.737572	0.927676	-1.311425	-0.041687	0.186087	0.131634
2.390	2.210016	-1.444840	704.476265	0.984953	-1.269217	-0.037501	0.180165	0.139813
2.400	2.210047	-1.346880	704.297400	1.044245	-1.233229	-0.030335	0.175101	0.148268
2.410	2.220628	-1.264670	704.232422	1.105690	-1.197184	-0.020203	0.169998	0.157006
