Time[s]	Fx[N]	Fy[N]	Fz[N]	Mx[Nm]	My[Nm]	Mz[Nm]	COPx[cm]	COPy[cm]
0.010	-0.287926	-4.631782	453.546564	2.044732	9.269438	-0.395260	-2.043768	0.450832
0.020	-0.171456	-4.659919	453.913500	2.037306	9.209676	-0.391485	-2.028950	0.448831
0.030	-0.074942	-4.683308	454.283662	2.034118	9.161413	-0.387942	-2.016672	0.447764
0.040	-0.010693	-4.698917	454.651981	2.036763	9.132791	-0.384887	-2.008743	0.447983
0.050	0.020482	-4.705680	455.001301	2.043061	9.126329	-0.382704	-2.005781	0.449023
0.060	0.027401	-4.705418	455.305141	2.048061	9.138534	-0.381709	-2.007123	0.449822
0.070	0.023223	-4.702749	455.533809	2.046420	9.161113	-0.381817	-2.011072	0.449236
0.080	0.020083	-4.703583	455.661454	2.034753	9.183162	-0.382337	-2.015348	0.446549
0.090	0.026007	-4.712874	455.673737	2.012916	9.193655	-0.382137	-2.017596	0.441745
0.100	0.044589	-4.732929	455.575721	1.983896	9.183735	-0.380182	-2.015853	0.435470
0.110	0.076415	-4.763115	455.396782	1.952626	9.148396	-0.376112	-2.008885	0.428775
0.120	0.120827	-4.800617	455.187569	1.924373	9.087250	-0.370507	-1.996375	0.422765
0.130	0.177025	-4.841258	455.006930	1.903356	9.004271	-0.364684	-1.978930	0.418314
0.140	0.244224	-4.879808	454.903187	1.891997	8.906608	-0.360176	-1.957913	0.415912
0.150	0.321111	-4.910247	454.898594	1.890889	8.802762	-0.358142	-1.935104	0.415673
0.160	0.405113	-4.926760	454.984173	1.899150	8.700594	-0.358952	-1.912285	0.417410
0.170	0.492049	-4.925503	455.125868	1.914841	8.605775	-0.362090	-1.890856	0.420728
0.180	0.576512	-4.906218	455.277267	1.935277	8.521146	-0.366383	-1.871639	0.425077
0.190	0.652829	-4.872754	455.392920	1.957397	8.447160	-0.370410	-1.854917	0.429826
0.200	0.716024	-4.832286	455.438913	1.978376	8.383071	-0.372899	-1.840658	0.434389
0.210	0.762281	-4.793628	455.400136	1.996396	8.328297	-0.372956	-1.828787	0.438383
0.220	0.788978	-4.765077	455.284196	2.011306	8.283322	-0.370153	-1.819374	0.441769
0.230	0.794680	-4.752209	455.120515	2.024886	8.249853	-0.364510	-1.812674	0.444912
0.240	0.779297	-4.756171	454.952490	2.040716	8.230187	-0.356421	-1.809021	0.448556
0.250	0.744342	-4.773088	454.823274	2.063709	8.226098	-0.346552	-1.808636	0.453739
0.260	0.693144	-4.794861	454.760761	2.099419	8.237692	-0.335780	-1.811434	0.461653
0.270	0.630956	-4.811142	454.769825	2.153149	8.262724	-0.325186	-1.816902	0.473459
0.280	0.564760	-4.811921	454.835703	2.228945	8.296642	-0.316004	-1.824096	0.490055
0.290	0.502526	-4.789929	454.934764	2.328697	8.333360	-0.309405	-1.831770	0.511875
0.300	0.451823	-4.742058	455.044661	2.451583	8.366533	-0.306126	-1.838618	0.538756
0.310	0.418076	-4.669402	455.148287	2.594104	8.391025	-0.306178	-1.843581	0.569947
0.320	0.403035	-4.576134	455.231998	2.750775	8.404192	-0.308803	-1.846134	0.604258
0.330	0.404022	-4.467942	455.283110	2.915342	8.406583	-0.312752	-1.846452	0.640336
0.340	0.414353	-4.350771	455.291060	3.082115	8.401747	-0.316722	-1.845357	0.676955
0.350	0.424949	-4.230195	455.251896	3.246825	8.395201	-0.319769	-1.844078	0.713193
0.360	0.426688	-4.111272	455.171936	3.406655	8.392955	-0.321612	-1.843909	0.748433
0.370	0.412694	-3.998448	455.067313	3.559503	8.400142	-0.322808	-1.845912	0.782193
0.380	0.379759	-3.895306	454.960008	3.702969	8.420144	-0.324783	-1.850744	0.813911
0.390	0.328514	-3.804287	454.873467	3.833663	8.454369	-0.329554	-1.858620	0.842798
0.400	0.262572	-3.726602	454.829752	3.947252	8.502599	-0.339064	-1.869403	0.867853
0.410	0.187315	-3.662293	454.847023	4.039261	8.563602	-0.354268	-1.882743	0.888048
0.420	0.108900	-3.610283	454.935119	4.106305	8.635602	-0.374390	-1.898205	0.902613
0.430	0.033666	-3.568419	455.089321	4.147252	8.716305	-0.396845	-1.915295	0.911305
0.440	-0.032252	-3.533746	455.285777	4.163920	8.802533	-0.417969	-1.933408	0.914573
0.450	-0.083556	-3.503208	455.483000	4.161047	8.889902	-0.434287	-1.951753	0.913546
0.460	-0.117036	-3.474532	455.631569	4.145511	8.972999	-0.443746	-1.969354	0.909838
0.470	-0.133102	-3.446711	455.689858	4.125040	9.046286	-0.446386	-1.985185	0.905230
0.480	-0.136402	-3.419643	455.639690	4.106833	9.105469	-0.444192	-1.998392	0.901333
0.490	-0.134442	-3.393152	455.494676	4.096518	9.148637	-0.440258	-2.008506	0.899356
0.500	-0.134458	-3.366137	455.297003	4.097676	9.176534	-0.437648	-2.015505	0.900001
0.510	-0.140211	-3.336493	455.103978	4.111865	9.191770	-0.438428	-2.019708	0.903500
0.520	-0.150449	-3.301880	454.969962	4.138882	9.197382	-0.443187	-2.021536	0.909705
0.530	-0.159643	-3.260849	454.930239	4.177068	9.195481	-0.451075	-2.021295	0.918178
0.540	-0.160452	-3.213777	454.991538	4.223594	9.186641	-0.460210	-2.019079	0.928280
0.550	-0.146779	-3.163321	455.131236	4.274787	9.170226	-0.468262	-2.014853	0.939243
0.560	-0.116272	-3.114261	455.304793	4.326477	9.145342	-0.473025	-2.008620	0.950238
0.570	-0.071461	-3.072706	455.459101	4.374404	9.111692	-0.472877	-2.000551	0.960438
0.580	-0.019249	-3.044914	455.548022	4.414767	9.069824	-0.467001	-1.990970	0.969111
0.590	0.031066	-3.036075	455.545556	4.444886	9.020774	-0.455384	-1.980213	0.975728
0.600	0.070681	-3.049181	455.452731	4.463702	8.965544	-0.438664	-1.968491	0.980058
0.610	0.094316	-3.083825	455.296635	4.471849	8.904849	-0.417981	-1.955835	0.982184
0.620	0.102454	-3.135039	455.122281	4.471184	8.839204	-0.394879	-1.942160	0.982414
0.630	0.101879	-3.192960	454.979188	4.463909	8.769093	-0.371182	-1.927361	0.981124
0.640	0.103886	-3.244324	454.905765	4.451699	8.694915	-0.348768	-1.911366	0.978598
0.650	0.120394	-3.276018	454.916561	4.435356	8.616604	-0.329253	-1.894106	0.974982
0.660	0.159358	-3.279603	454.997702	4.415261	8.533060	-0.313714	-1.875407	0.970392
0.670	0.221655	-3.254917	455.112578	4.392231	8.441730	-0.302533	-1.854866	0.965087
0.680	0.301269	-3.210927	455.215058	4.367974	8.338697	-0.295425	-1.831815	0.959541
0.690	0.388976	-3.163064	455.264977	4.344636	8.219453	-0.291625	-1.805422	0.954309
0.700	0.477627	-3.127833	455.240951	4.323649	8.080118	-0.290145	-1.774910	0.949750
0.710	0.566232	-3.116955	455.146966	4.304610	7.918616	-0.290005	-1.739793	0.945763
0.720	0.660771	-3.133731	455.010497	4.284955	7.735411	-0.290335	-1.700051	0.941727
0.730	0.771318	-3.173237	454.872069	4.260697	7.533720	-0.290402	-1.656228	0.936680
0.740	0.906765	-3.226023	454.769477	4.227878	7.319335	-0.289594	-1.609460	0.929675
0.750	1.069492	-3.283308	454.723057	4.183952	7.100130	-0.287434	-1.561419	0.920110
0.760	1.252450	-3.340908	454.729144	4.128429	6.885237	-0.283708	-1.514140	0.907887
0.770	1.440118	-3.399965	454.765451	4.062633	6.683801	-0.278705	-1.469725	0.893347
0.780	1.612879	-3.464489	454.805331	3.988903	6.503521	-0.273400	-1.429957	0.877057
0.790	1.752807	-3.537684	454.832300	3.909777	6.349425	-0.269301	-1.395993	0.859609
0.800	1.848441	-3.619430	454.846314	3.827566	6.223378	-0.267899	-1.368238	0.841508
0.810	1.897063	-3.706109	454.859226	3.744408	6.124471	-0.269977	-1.346454	0.823202
0.820	1.904387	-3.792258	454.883694	3.662540	6.050020	-0.275181	-1.330015	0.805160
0.830	1.882405	-3.872609	454.922942	3.584422	5.996739	-0.282156	-1.318188	0.787919
0.840	1.846319	-3.943483	454.967058	3.512549	5.961686	-0.289208	-1.310355	0.772045
0.850	1.811198	-4.003434	454.997142	3.449028	5.942757	-0.295135	-1.306109	0.758033
0.860	1.788855	-4.053441	454.994681	3.395126	5.938705	-0.299756	-1.305225	0.746190
0.870	1.785348	-4.096678	454.951370	3.350894	5.948855	-0.303837	-1.307581	0.736539
0.880	1.799607	-4.137657	454.874435	3.315004	5.972712	-0.308473	-1.313046	0.728773
0.890	1.823791	-4.180826	454.784436	3.284993	6.009579	-0.314343	-1.321413	0.722319
0.900	1.845735	-4.229074	454.706490	3.257952	6.058275	-0.321255	-1.332348	0.716496
0.910	1.853131	-4.282670	454.659779	3.231368	6.116947	-0.328217	-1.345390	0.710722
0.920	1.838124	-4.338975	454.651182	3.203665	6.183050	-0.333923	-1.359955	0.704643
0.930	1.800512	-4.392958	454.675670	3.174286	6.253530	-0.337405	-1.375383	0.698143
0.940	1.748171	-4.438264	454.721566	3.143533	6.325192	-0.338525	-1.391003	0.691309
0.950	1.694373	-4.468530	454.776924	3.112503	6.395103	-0.338104	-1.406207	0.684402
0.960	1.653042	-4.478724	454.834230	3.083174	6.460842	-0.337627	-1.420483	0.677868
0.970	1.634026	-4.466294	454.892167	3.058471	6.520605	-0.338649	-1.433440	0.672351
0.980	1.640355	-4.431866	454.954229	3.042125	6.573347	-0.342191	-1.444837	0.668666
0.990	1.668207	-4.379221	455.025340	3.038225	6.619101	-0.348399	-1.454666	0.667705
1.000	1.708702	-4.314383	455.108659	3.050473	6.659348	-0.356554	-1.463243	0.670274
1.010	1.750191	-4.243895	455.204066	3.081201	6.697062	-0.365351	-1.471222	0.676883
1.020	1.780339	-4.172719	455.307884	3.130358	6.736116	-0.373277	-1.479464	0.687526
1.030	1.788196	-4.102738	455.412942	3.194820	6.780169	-0.378946	-1.488796	0.701521
1.040	1.766374	-4.032993	455.509197	3.268456	6.831626	-0.381396	-1.499778	0.717539
1.050	1.712660	-3.961999	455.585663	3.343235	6.891246	-0.380318	-1.512613	0.733832
1.060	1.630075	-3.890854	455.633391	3.411176	6.958527	-0.376194	-1.527221	0.748667
1.070	1.525019	-3.824831	455.648100	3.466413	7.032538	-0.370225	-1.543414	0.760765
1.080	1.404342	-3.771984	455.630820	3.506459	7.112723	-0.363975	-1.561072	0.769583
1.090	1.272683	-3.739393	455.585948	3.532140	7.199348	-0.358871	-1.580239	0.775296
1.100	1.131100	-3.729477	455.518385	3.546401	7.293462	-0.355775	-1.601135	0.778542
1.110	0.977348	-3.738613	455.432352	3.552609	7.396510	-0.354838	-1.624063	0.780052
1.120	0.807770	-3.758698	455.332645	3.553016	7.509797	-0.355677	-1.649299	0.780312
1.130	0.620460	-3.780459	455.226879	3.547868	7.633969	-0.357754	-1.676959	0.779363
1.140	0.418677	-3.796741	455.126795	3.535414	7.768487	-0.360723	-1.706884	0.776798
1.150	0.212785	-3.804471	455.047024	3.512674	7.911031	-0.364568	-1.738508	0.771937
1.160	0.019171	-3.804852	455.000363	3.476562	8.057004	-0.369529	-1.770769	0.764079
1.170	-0.143866	-3.802011	454.990810	3.424937	8.199562	-0.375903	-1.802138	0.752749
1.180	-0.261535	-3.800909	455.008692	3.357379	8.330541	-0.383834	-1.830853	0.737871
1.190	-0.326858	-3.805493	455.032631	3.275592	8.442141	-0.393135	-1.855283	0.719859
1.200	-0.342208	-3.817872	455.039020	3.183359	8.528703	-0.403219	-1.874280	0.699579
1.210	-0.317799	-3.838617	455.014032	3.085923	8.587786	-0.413246	-1.887367	0.678204
1.220	-0.268127	-3.867639	454.960696	2.988801	8.620168	-0.422435	-1.894706	0.656936
1.230	-0.207737	-3.904758	454.896395	2.896378	8.628962	-0.430350	-1.896907	0.636712
1.240	-0.147399	-3.949569	454.842548	2.810916	8.618425	-0.436941	-1.894815	0.617998
1.250	-0.091540	-4.000970	454.813468	2.732481	8.593054	-0.442302	-1.889358	0.600792
1.260	-0.037867	-4.057071	454.811219	2.659741	8.557300	-0.446360	-1.881506	0.584801
1.270	0.020130	-4.115619	454.828318	2.591065	8.515826	-0.448759	-1.872317	0.569680
1.280	0.088412	-4.174538	454.854979	2.525328	8.473901	-0.449049	-1.862990	0.555194
1.290	0.167474	-4.232159	454.885825	2.462198	8.437427	-0.446998	-1.854845	0.541278
1.300	0.249867	-4.287120	454.922318	2.402048	8.412267	-0.442752	-1.849166	0.528013
1.310	0.321634	-4.338200	454.969910	2.345659	8.402987	-0.436755	-1.846932	0.515563
1.320	0.367174	-4.384389	455.032177	2.293799	8.411504	-0.429548	-1.848551	0.504096
1.330	0.375286	-4.425314	455.106367	2.246722	8.436306	-0.421585	-1.853700	0.493670
1.340	0.343646	-4.461892	455.183822	2.203764	8.472678	-0.413103	-1.861375	0.484148
1.350	0.279854	-4.496770	455.254854	2.163333	8.513937	-0.404027	-1.870147	0.475192
1.360	0.198928	-4.533956	455.314046	2.123399	8.553279	-0.393969	-1.878545	0.466359
1.370	0.118612	-4.577363	455.361751	2.082314	8.585516	-0.382359	-1.885428	0.457288
1.380	0.054373	-4.628787	455.400601	2.039570	8.608029	-0.368663	-1.890210	0.447863
1.390	0.015602	-4.686482	455.429693	1.996243	8.620711	-0.352628	-1.892874	0.438321
1.400	0.003736	-4.745242	455.440647	1.954956	8.625226	-0.334468	-1.893820	0.429245
1.410	0.012556	-4.797997	455.418589	1.919267	8.624164	-0.314959	-1.893678	0.421429
1.420	0.030537	-4.837987	455.348480	1.892482	8.620358	-0.295380	-1.893134	0.415612
1.430	0.044747	-4.860455	455.224133	1.876268	8.616262	-0.277273	-1.892752	0.412163
1.440	0.045251	-4.863291	455.054970	1.869789	8.613264	-0.262065	-1.892796	0.410893
1.450	0.028530	-4.846849	454.866160	1.869971	8.611115	-0.250732	-1.893110	0.411104
1.460	-0.001446	-4.813650	454.691702	1.872840	8.607802	-0.243595	-1.893107	0.411892
1.470	-0.035008	-4.768555	454.564266	1.875247	8.600046	-0.240275	-1.891932	0.412537
1.480	-0.060544	-4.719189	454.506681	1.876159	8.584330	-0.239783	-1.888714	0.412790
1.490	-0.068445	-4.675566	454.527653	1.877024	8.558089	-0.240749	-1.882853	0.412961
1.500	-0.053569	-4.647991	454.621354	1.881124	8.520574	-0.241761	-1.874213	0.413778
1.510	-0.015602	-4.643606	454.769458	1.892088	8.473045	-0.241743	-1.863152	0.416054
1.520	0.042236	-4.663456	454.944833	1.912140	8.418223	-0.240284	-1.850383	0.420301
1.530	0.115173	-4.701953	455.116794	1.940928	8.359291	-0.237792	-1.836735	0.426468
1.540	0.198660	-4.749121	455.257310	1.975703	8.298900	-0.235350	-1.822903	0.433975
1.550	0.289404	-4.794181	455.346512	2.012772	8.238560	-0.234261	-1.809295	0.442031
1.560	0.385532	-4.828527	455.375616	2.049304	8.178545	-0.235414	-1.796000	0.450025
1.570	0.486018	-4.846995	455.346718	2.084316	8.118217	-0.238796	-1.782865	0.457743
1.580	0.589728	-4.847681	455.270722	2.118297	8.056635	-0.243421	-1.769636	0.465283
1.590	0.694442	-4.831304	455.165150	2.151917	7.993274	-0.247777	-1.756126	0.472777
1.600	0.796224	-4.800803	455.052030	2.184812	7.928684	-0.250616	-1.742369	0.480123
1.610	0.889370	-4.761026	454.954257	2.215149	7.864889	-0.251720	-1.728721	0.486895
1.620	0.967084	-4.717990	454.889672	2.240112	7.805374	-0.252232	-1.715883	0.492452
1.630	1.022861	-4.677646	454.865174	2.256908	7.754627	-0.254314	-1.704819	0.496171
1.640	1.052185	-4.644585	454.874918	2.263808	7.717370	-0.260212	-1.696592	0.497677
1.650	1.053925	-4.621236	454.904521	2.260762	7.697651	-0.271149	-1.692147	0.496975
1.660	1.030872	-4.607712	454.939068	2.249377	7.698023	-0.286603	-1.692100	0.494435
1.670	0.989255	-4.602155	454.970148	2.232337	7.718974	-0.304390	-1.696589	0.490656
1.680	0.937344	-4.601358	454.997967	2.212632	7.758841	-0.321574	-1.705247	0.486295
1.690	0.883361	-4.601579	455.027655	2.192943	7.814353	-0.335784	-1.717336	0.481936
1.700	0.833037	-4.599468	455.062253	2.175381	7.881774	-0.346231	-1.732021	0.478040
1.710	0.787413	-4.592820	455.096835	2.161530	7.958277	-0.353921	-1.748700	0.474961
1.720	0.741849	-4.580723	455.117853	2.152685	8.042977	-0.361074	-1.767229	0.472995
1.730	0.687043	-4.562966	455.109000	2.150103	8.137168	-0.370170	-1.787960	0.472437
1.740	0.612151	-4.539113	455.060895	2.155152	8.243657	-0.383101	-1.811550	0.473596
1.750	0.509072	-4.507839	454.979445	2.169285	8.365320	-0.400689	-1.838615	0.476787
1.760	0.376310	-4.466945	454.888304	2.193839	8.503202	-0.422582	-1.869295	0.482281
1.770	0.220863	-4.414208	454.823235	2.229766	8.654694	-0.447388	-1.902870	0.490249
1.780	0.057260	-4.348964	454.819149	2.277373	8.812527	-0.472886	-1.937589	0.500721
1.790	-0.096083	-4.273867	454.894291	2.336166	8.965268	-0.496282	-1.970846	0.513562
1.800	-0.222026	-4.195735	455.039166	2.404789	9.099453	-0.514596	-1.999708	0.528480
1.810	-0.309580	-4.124360	455.216975	2.481027	9.202797	-0.525204	-2.021629	0.545021
1.820	-0.356580	-4.069129	455.376494	2.561877	9.267380	-0.526472	-2.035103	0.562584
1.830	-0.369040	-4.034855	455.471579	2.643788	9.291592	-0.518239	-2.039994	0.580451
1.840	-0.357525	-4.019148	455.478357	2.723128	9.280119	-0.501947	-2.037445	0.597861
1.850	-0.332346	-4.013146	455.402912	2.796836	9.242076	-0.480286	-2.029428	0.614145
1.860	-0.299830	-4.005675	455.276838	2.863033	9.188082	-0.456470	-2.018131	0.628855
1.870	-0.261181	-3.988854	455.143218	2.921335	9.127356	-0.433400	-2.005381	0.641850
1.880	-0.213923	-3.962110	455.039544	2.972630	9.065815	-0.413029	-1.992314	0.653269
1.890	-0.154756	-3.932196	454.985344	3.018405	9.005708	-0.396111	-1.979340	0.663407
1.900	-0.082325	-3.909052	454.979665	3.059892	8.946741	-0.382387	-1.966405	0.672534
1.910	0.001111	-3.899971	455.007826	3.097499	8.887948	-0.371103	-1.953362	0.680757
1.920	0.089350	-3.905591	455.051689	3.130782	8.829344	-0.361624	-1.940295	0.688006
1.930	0.173066	-3.919864	455.097093	3.158987	8.772561	-0.353874	-1.927624	0.694135
1.940	0.241635	-3.933333	455.135923	3.181904	8.720290	-0.348384	-1.915975	0.699111
1.950	0.285867	-3.937242	455.164394	3.200680	8.674884	-0.345982	-1.905879	0.703192
1.960	0.300992	-3.926304	455.180262	3.218248	8.636877	-0.347313	-1.897463	0.707027
1.970	0.288746	-3.899465	455.180503	3.239205	8.604185	-0.352458	-1.890280	0.711631
1.980	0.257487	-3.859118	455.160034	3.269097	8.572511	-0.360827	-1.883406	0.718230
1.990	0.220184	-3.809412	455.112295	3.313116	8.536837	-0.371339	-1.875765	0.727978
2.000	0.190966	-3.754150	455.032273	3.374487	8.493302	-0.382764	-1.866527	0.741593
2.010	0.181333	-3.694927	454.921002	3.453076	8.440567	-0.394050	-1.855392	0.759050
2.020	0.197099	-3.630513	454.789106	3.544876	8.380056	-0.404504	-1.842625	0.779455
2.030	0.236860	-3.558120	454.656860	3.642739	8.315154	-0.413782	-1.828886	0.801206
2.040	0.292425	-3.476142	454.549692	3.738128	8.249895	-0.421751	-1.814960	0.822381
2.050	0.351224	-3.386871	454.490240	3.823183	8.187847	-0.428299	-1.801545	0.841202
2.060	0.400166	-3.297518	454.490118	3.892258	8.131509	-0.433200	-1.789150	0.856401
2.070	0.429825	-3.218847	454.544710	3.942432	8.082193	-0.436133	-1.778085	0.867336
2.080	0.437338	-3.161968	454.633012	3.973035	8.040136	-0.436849	-1.768489	0.873899
2.090	0.426890	-3.134733	454.723415	3.984730	8.004623	-0.435389	-1.760328	0.876298
2.100	0.407856	-3.139253	454.784981	3.978674	7.974149	-0.432217	-1.753389	0.874847
2.110	0.391704	-3.171478	454.800700	3.956048	7.946762	-0.428182	-1.747307	0.869842
2.120	0.388793	-3.222927	454.776067	3.917938	7.920698	-0.424301	-1.741670	0.861509
2.130	0.405701	-3.283835	454.737315	3.865427	7.895132	-0.421449	-1.736196	0.850035
2.140	0.443383	-3.346500	454.719218	3.799762	7.870660	-0.420060	-1.730883	0.835628
2.150	0.496587	-3.407734	454.748147	3.722491	7.849187	-0.419946	-1.726051	0.818583
2.160	0.554900	-3.469656	454.828288	3.635553	7.833278	-0.420299	-1.722249	0.799324
2.170	0.605323	-3.538471	454.937219	3.541384	7.825342	-0.419891	-1.720093	0.778434
2.180	0.635633	-3.621385	455.033256	3.442980	7.827067	-0.417451	-1.720109	0.756644
2.190	0.637486	-3.722673	455.072452	3.343703	7.839322	-0.412076	-1.722654	0.734763
2.200	0.608386	-3.840625	455.028654	3.246706	7.862474	-0.403491	-1.727907	0.713517
2.210	0.552147	-3.966978	454.907494	3.154168	7.896780	-0.392076	-1.735909	0.693365
2.220	0.477963	-4.089289	454.746955	3.066906	7.942383	-0.378722	-1.746550	0.674420
2.230	0.398457	-4.195172	454.603482	2.984789	7.998709	-0.364652	-1.759491	0.656570
2.240	0.327088	-4.276492	454.529848	2.907848	8.063515	-0.351236	-1.774034	0.639749
2.250	0.275499	-4.331769	454.554965	2.837472	8.132090	-0.339805	-1.789022	0.624231
2.260	0.251432	-4.365815	454.674528	2.776859	8.197129	-0.331427	-1.802856	0.610736
2.270	0.257590	-4.386832	454.855785	2.730282	8.249614	-0.326685	-1.813677	0.600252
2.280	0.291382	-4.402525	455.052668	2.701390	8.280697	-0.325478	-1.819723	0.593643
2.290	0.345323	-4.417470	455.222699	2.691422	8.283981	-0.326905	-1.819764	0.591232
2.300	0.408258	-4.432982	455.337753	2.698332	8.257240	-0.329367	-1.813432	0.592600
2.310	0.467804	-4.448950	455.385990	2.717368	8.202830	-0.330984	-1.801292	0.596717
2.320	0.513925	-4.465920	455.367979	2.742778	8.126758	-0.330259	-1.784657	0.602321
2.330	0.542369	-4.485897	455.292079	2.769716	8.037113	-0.326700	-1.765265	0.608338
2.340	0.556030	-4.511334	455.172073	2.795316	7.942627	-0.321011	-1.744972	0.614123
2.350	0.562949	-4.543006	455.026484	2.818557	7.851729	-0.314751	-1.725554	0.619427
2.360	0.571509	-4.578259	454.877409	2.839346	7.772004	-0.309615	-1.708593	0.624200
2.370	0.585098	-4.611036	454.747872	2.857679	7.709736	-0.306751	-1.695387	0.628410
2.380	0.599158	-4.633955	454.658448	2.873420	7.669352	-0.306423	-1.686838	0.631995
2.390	0.602404	-4.641314	454.624186	2.886536	7.652819	-0.308166	-1.683329	0.634928
