Time[s]	Fx[N]	Fy[N]	Fz[N]	Mx[Nm]	My[Nm]	Mz[Nm]	COPx[cm]	COPy[cm]
0.010	3.330759	-1.320740	657.377888	8.277807	8.443137	-0.265535	-1.284366	1.259216
0.020	3.178713	-1.322693	658.165555	8.282172	8.602505	-0.280754	-1.307043	1.258372
0.030	3.040359	-1.318521	658.826700	8.297955	8.754007	-0.294381	-1.328727	1.259505
0.040	2.927289	-1.303048	659.273754	8.332550	8.890102	-0.305416	-1.348469	1.263898
0.050	2.848020	-1.273080	659.479305	8.387215	9.004374	-0.313702	-1.365376	1.271794
0.060	2.806490	-1.228383	659.474312	8.457105	9.092054	-0.319783	-1.378682	1.282401
0.070	2.800977	-1.171708	659.326272	8.533374	9.150640	-0.324419	-1.387877	1.294257
0.080	2.824060	-1.107422	659.109548	8.606363	9.180542	-0.328076	-1.392870	1.305756
0.090	2.864027	-1.039435	658.881152	8.668630	9.185399	-0.330705	-1.394090	1.315659
0.100	2.907463	-0.969946	658.669905	8.716774	9.171586	-0.331875	-1.392440	1.323390
0.110	2.942248	-0.899809	658.479573	8.751603	9.146817	-0.331135	-1.389081	1.329062
0.120	2.960034	-0.829935	658.300908	8.776854	9.118328	-0.328348	-1.385131	1.333259
0.130	2.957522	-0.762424	658.125202	8.797158	9.091391	-0.323843	-1.381408	1.336700
0.140	2.936271	-0.700555	657.953064	8.816157	9.068658	-0.318344	-1.378314	1.339937
0.150	2.901225	-0.647664	657.795979	8.835424	9.050398	-0.312749	-1.375867	1.343186
0.160	2.858626	-0.605591	657.672360	8.854376	9.035363	-0.307869	-1.373840	1.346320
0.170	2.814158	-0.573603	657.601601	8.870979	9.021923	-0.304239	-1.371944	1.348990
0.180	2.772004	-0.548525	657.598530	8.882822	9.009091	-0.302038	-1.369999	1.350797
0.190	2.734959	-0.526203	657.669198	8.888187	8.997096	-0.301140	-1.368028	1.351468
0.200	2.705128	-0.503837	657.808752	8.886826	8.987286	-0.301225	-1.366246	1.350974
0.210	2.684492	-0.482207	658.002006	8.880299	8.981439	-0.301921	-1.364956	1.349585
0.220	2.675024	-0.466498	658.225765	8.871785	8.980860	-0.302928	-1.364404	1.347833
0.230	2.678532	-0.464717	658.451297	8.865224	8.985737	-0.304116	-1.364678	1.346375
0.240	2.696556	-0.483934	658.646825	8.863815	8.995039	-0.305545	-1.365685	1.345761
0.250	2.730221	-0.526015	658.781319	8.868420	9.006961	-0.307390	-1.367216	1.346186
0.260	2.779563	-0.585055	658.830002	8.876774	9.019722	-0.309809	-1.369051	1.347354
0.270	2.842082	-0.647929	658.780071	8.884233	9.032483	-0.312841	-1.371092	1.348589
0.280	2.911084	-0.698010	658.634610	8.885914	9.046135	-0.316385	-1.373468	1.349142
0.290	2.974975	-0.720822	658.413636	8.879134	9.063555	-0.320273	-1.376575	1.348565
0.300	3.018523	-0.709578	658.152411	8.864713	9.089086	-0.324357	-1.381000	1.346909
0.310	3.026171	-0.668359	657.897585	8.846323	9.127248	-0.328503	-1.387336	1.344635
0.320	2.986452	-0.611419	657.701054	8.828306	9.181052	-0.332452	-1.395931	1.342298
0.330	2.895894	-0.558787	657.610621	8.813408	9.250517	-0.335601	-1.406686	1.340217
0.340	2.760885	-0.529871	657.657681	8.801762	9.331938	-0.336876	-1.418966	1.338350
0.350	2.596756	-0.537495	657.845589	8.791523	9.418209	-0.334935	-1.431675	1.336411
0.360	2.424349	-0.584380	658.144766	8.780477	9.500131	-0.328698	-1.443471	1.334125
0.370	2.265228	-0.662977	658.498616	8.767519	9.568263	-0.317981	-1.453042	1.331441
0.380	2.137126	-0.758263	658.838643	8.753083	9.614675	-0.303831	-1.459337	1.328563
0.390	2.051059	-0.852289	659.102409	8.738333	9.634044	-0.288353	-1.461691	1.325793
0.400	2.010889	-0.929028	659.247544	8.723736	9.623921	-0.274132	-1.459834	1.323287
0.410	2.015007	-0.978336	659.258473	8.708039	9.584434	-0.263566	-1.453820	1.320884
0.420	2.058839	-0.998118	659.146453	8.688421	9.517889	-0.258396	-1.443972	1.318132
0.430	2.136589	-0.994198	658.945114	8.661777	9.428662	-0.259462	-1.430872	1.314491
0.440	2.241449	-0.977979	658.702812	8.626337	9.323349	-0.266575	-1.415411	1.309595
0.450	2.364710	-0.962557	658.471573	8.582637	9.210759	-0.278488	-1.398809	1.303418
0.460	2.494969	-0.958543	658.293216	8.533324	9.101163	-0.293067	-1.382539	1.296280
0.470	2.618450	-0.971064	658.186659	8.481996	9.004634	-0.307767	-1.368097	1.288692
0.480	2.720734	-0.999084	658.142804	8.431694	8.928926	-0.320259	-1.356685	1.281134
0.490	2.789529	-1.037074	658.130776	8.383791	8.877783	-0.328956	-1.348939	1.273879
0.500	2.817569	-1.077869	658.113190	8.337796	8.850385	-0.333236	-1.344812	1.266924
0.510	2.804598	-1.115286	658.063303	8.292086	8.842055	-0.333364	-1.343648	1.260074
0.520	2.757646	-1.145727	657.976810	8.245127	8.845815	-0.330245	-1.344396	1.253103
0.530	2.689464	-1.168849	657.874287	8.196496	8.854092	-0.325121	-1.345864	1.245906
0.540	2.615667	-1.187567	657.793896	8.147256	8.859976	-0.319303	-1.346923	1.238573
0.550	2.551514	-1.207437	657.776635	8.099630	8.857802	-0.313933	-1.346628	1.231365
0.560	2.509158	-1.235312	657.849030	8.056242	8.843212	-0.309768	-1.344262	1.224634
0.570	2.496050	-1.277378	658.010120	8.019316	8.812983	-0.307016	-1.339339	1.218722
0.580	2.514861	-1.336900	658.228914	7.990148	8.764879	-0.305319	-1.331585	1.213886
0.590	2.564720	-1.412133	658.454201	7.969016	8.697689	-0.303875	-1.320925	1.210261
0.600	2.642820	-1.495220	658.632714	7.955409	8.611547	-0.301695	-1.307489	1.207867
0.610	2.745271	-1.573187	658.727474	7.948340	8.508414	-0.297956	-1.291644	1.206620
0.620	2.866803	-1.631515	658.728078	7.946493	8.392439	-0.292390	-1.274037	1.206339
0.630	2.999923	-1.659197	658.649185	7.948200	8.269838	-0.285559	-1.255576	1.206743
0.640	3.134589	-1.652882	658.520061	7.951458	8.148068	-0.278834	-1.237330	1.207474
0.650	3.259145	-1.617983	658.372382	7.954271	8.034388	-0.273993	-1.220341	1.208172
0.660	3.362576	-1.566348	658.232399	7.955291	7.934196	-0.272587	-1.205379	1.208584
0.670	3.437369	-1.511790	658.118963	7.954398	7.849698	-0.275342	-1.192748	1.208657
0.680	3.481784	-1.465520	658.045045	7.952749	7.779410	-0.281927	-1.182200	1.208542
0.690	3.500366	-1.433128	658.019598	7.952083	7.718743	-0.291180	-1.173026	1.208487
0.700	3.502297	-1.413902	658.047537	7.953628	7.661522	-0.301619	-1.164281	1.208671
0.710	3.498313	-1.402250	658.127518	7.957290	7.601832	-0.311899	-1.155070	1.209080
0.720	3.497700	-1.390359	658.249318	7.961731	7.535367	-0.321009	-1.144759	1.209531
0.730	3.506741	-1.371072	658.393498	7.965359	7.459795	-0.328260	-1.133030	1.209817
0.740	3.529031	-1.340212	658.534607	7.967650	7.374349	-0.333193	-1.119812	1.209906
0.750	3.566917	-1.297846	658.646808	7.969926	7.279284	-0.335529	-1.105188	1.210046
0.760	3.622517	-1.248315	658.709815	7.974988	7.175710	-0.335210	-1.089358	1.210698
0.770	3.697200	-1.199114	658.713299	7.985703	7.065758	-0.332509	-1.072661	1.212318
0.780	3.789844	-1.158923	658.658184	8.003378	6.952756	-0.328138	-1.055594	1.215103
0.790	3.895462	-1.135057	658.554177	8.026940	6.841136	-0.323259	-1.038811	1.218873
0.800	4.005601	-1.130892	658.415075	8.053414	6.735904	-0.319301	-1.023048	1.223151
0.810	4.110418	-1.144259	658.254967	8.079311	6.641764	-0.317619	-1.008996	1.227383
0.820	4.201101	-1.167825	658.087346	8.102031	6.562178	-0.319093	-0.997159	1.231148
0.830	4.271425	-1.191639	657.926220	8.120509	6.498820	-0.323882	-0.987773	1.234258
0.840	4.318084	-1.206848	657.786755	8.134945	6.451692	-0.331442	-0.980818	1.236715
0.850	4.340269	-1.208960	657.683781	8.146148	6.419792	-0.340778	-0.976121	1.238612
0.860	4.339163	-1.199305	657.628356	8.155129	6.402057	-0.350759	-0.973507	1.240082
0.870	4.317634	-1.184315	657.623909	8.163146	6.398220	-0.360323	-0.972930	1.241309
0.880	4.279806	-1.173042	657.664094	8.171782	6.409283	-0.368527	-0.974553	1.242546
0.890	4.229989	-1.173853	657.734405	8.182637	6.437279	-0.374492	-0.978705	1.244064
0.900	4.171080	-1.191512	657.817891	8.196622	6.484265	-0.377374	-0.985723	1.246032
0.910	4.103291	-1.225588	657.902381	8.213253	6.550790	-0.376444	-0.995709	1.248400
0.920	4.024308	-1.270527	657.984934	8.230503	6.634460	-0.371320	-1.008300	1.250865
0.930	3.931287	-1.317023	658.070941	8.245510	6.729273	-0.362286	-1.022576	1.252982
0.940	3.823923	-1.354117	658.168861	8.255865	6.826187	-0.350530	-1.037148	1.254369
0.950	3.706941	-1.371698	658.283665	8.260750	6.914859	-0.338066	-1.050438	1.254892
0.960	3.590579	-1.363235	658.411844	8.261230	6.985987	-0.327202	-1.061036	1.254721
0.970	3.488685	-1.328314	658.539827	8.259585	7.033362	-0.319700	-1.068024	1.254227
0.980	3.415346	-1.273842	658.646919	8.258206	7.054868	-0.316076	-1.071115	1.253814
0.990	3.381296	-1.212733	658.712464	8.258725	7.052248	-0.315435	-1.070611	1.253768
1.000	3.391038	-1.160006	658.724470	8.261767	7.029984	-0.315929	-1.067212	1.254207
1.010	3.441303	-1.127850	658.685174	8.267269	6.993967	-0.315578	-1.061807	1.255117
1.020	3.521459	-1.121802	658.610402	8.275048	6.950433	-0.313111	-1.055318	1.256441
1.030	3.616067	-1.139394	658.523227	8.285330	6.905282	-0.308507	-1.048601	1.258168
1.040	3.708826	-1.171499	658.445454	8.298950	6.863631	-0.303009	-1.042399	1.260385
1.050	3.786426	-1.205679	658.391084	8.317145	6.829368	-0.298548	-1.037281	1.263253
1.060	3.840928	-1.230343	658.364256	8.341069	6.804697	-0.296813	-1.033576	1.266938
1.070	3.870068	-1.238186	658.361271	8.371312	6.789905	-0.298418	-1.031334	1.271538
1.080	3.875762	-1.227644	658.374132	8.407644	6.783609	-0.302584	-1.030358	1.277031
1.090	3.861812	-1.202022	658.393577	8.449008	6.783521	-0.307483	-1.030314	1.283276
1.100	3.832084	-1.167156	658.411565	8.493689	6.787411	-0.311054	-1.030877	1.290027
1.110	3.789893	-1.128986	658.423693	8.539600	6.793810	-0.311854	-1.031829	1.296976
1.120	3.738451	-1.092008	658.430754	8.584611	6.802088	-0.309554	-1.033076	1.303799
1.130	3.681624	-1.058709	658.438122	8.626824	6.811947	-0.304942	-1.034561	1.310195
1.140	3.624257	-1.029653	658.452637	8.664759	6.822726	-0.299529	-1.036176	1.315928
1.150	3.571713	-1.003939	658.478095	8.697538	6.833006	-0.294966	-1.037697	1.320855
1.160	3.528728	-0.979875	658.511233	8.725123	6.840815	-0.292507	-1.038830	1.324977
1.170	3.498043	-0.955745	658.540073	8.748488	6.844378	-0.292661	-1.039326	1.328467
1.180	3.479374	-0.930452	658.545948	8.769458	6.843042	-0.295136	-1.039114	1.331639
1.190	3.469226	-0.903780	658.509551	8.790123	6.837851	-0.299085	-1.038383	1.334851
1.200	3.461793	-0.876162	658.419751	8.812109	6.831403	-0.303538	-1.037545	1.338373
1.210	3.450683	-0.848052	658.281974	8.836146	6.826970	-0.307854	-1.037089	1.342304
1.220	3.430758	-0.819274	658.121698	8.862199	6.827221	-0.311966	-1.037380	1.346590
1.230	3.399408	-0.788777	657.979621	8.890010	6.833001	-0.316258	-1.038482	1.351107
1.240	3.357091	-0.755004	657.898885	8.919621	6.842618	-0.321174	-1.040071	1.355774
1.250	3.307431	-0.716821	657.909275	8.951518	6.851979	-0.326822	-1.041478	1.360601
1.260	3.257038	-0.674691	658.015386	8.986364	6.855609	-0.332847	-1.041862	1.365677
1.270	3.214912	-0.631531	658.193917	9.024501	6.848118	-0.338604	-1.040441	1.371101
1.280	3.191268	-0.592572	658.401205	9.065550	6.825462	-0.343481	-1.036672	1.376904
1.290	3.195896	-0.563782	658.587979	9.108292	6.785525	-0.347110	-1.030314	1.383003
1.300	3.236133	-0.549228	658.715413	9.150917	6.728027	-0.349399	-1.021386	1.389206
1.310	3.314699	-0.548705	658.766145	9.191526	6.654118	-0.350424	-1.010088	1.395264
1.320	3.428080	-0.557174	658.746639	9.228652	6.566036	-0.350331	-0.996747	1.400941
1.330	3.566588	-0.566648	658.681623	9.261575	6.467006	-0.349328	-0.981811	1.406078
1.340	3.716565	-0.569661	658.604156	9.290284	6.361278	-0.347756	-0.965873	1.410602
1.350	3.863974	-0.562579	658.544920	9.315074	6.253956	-0.346099	-0.949663	1.414493
1.360	3.997813	-0.547163	658.522985	9.336035	6.150327	-0.344879	-0.933958	1.417723
1.370	4.112187	-0.529537	658.539770	9.352833	6.054728	-0.344464	-0.919417	1.420238
1.380	4.206679	-0.516917	658.578282	9.364999	5.969403	-0.344913	-0.906407	1.422002
1.390	4.285324	-0.513812	658.608999	9.372524	5.893929	-0.346000	-0.894906	1.423079
1.400	4.354672	-0.519927	658.601153	9.376321	5.825649	-0.347383	-0.884549	1.423672
1.410	4.421401	-0.530916	658.535404	9.378224	5.761071	-0.348837	-0.874831	1.424103
1.420	4.489978	-0.541119	658.412810	9.380489	5.697702	-0.350355	-0.865369	1.424712
1.430	4.560913	-0.546345	658.255873	9.385054	5.635547	-0.352074	-0.856133	1.425746
1.440	4.630127	-0.545248	658.100299	9.392892	5.577627	-0.354069	-0.847535	1.427274
1.450	4.689727	-0.539138	657.981038	9.403738	5.529269	-0.356174	-0.840339	1.429181
1.460	4.730211	-0.530849	657.919947	9.416195	5.496403	-0.357954	-0.835421	1.431207
1.470	4.743702	-0.523338	657.921140	9.428071	5.483568	-0.358873	-0.833469	1.433009
1.480	4.727294	-0.518500	657.974220	9.436769	5.492457	-0.358535	-0.834753	1.434216
1.490	4.685143	-0.516711	658.060584	9.439763	5.521587	-0.356868	-0.839070	1.434482
1.500	4.628157	-0.517502	658.158192	9.435187	5.567111	-0.354139	-0.845862	1.433574
1.510	4.571044	-0.521105	658.244203	9.422367	5.624217	-0.350755	-0.854427	1.431439
1.520	4.527696	-0.529734	658.297619	9.401940	5.688409	-0.346937	-0.864109	1.428220
1.530	4.506707	-0.547402	658.303371	9.375424	5.756182	-0.342454	-0.874397	1.424180
1.540	4.508870	-0.578096	658.256769	9.344477	5.825187	-0.336659	-0.884941	1.419579
1.550	4.527595	-0.623344	658.165966	9.310293	5.894213	-0.328929	-0.895551	1.414581
1.560	4.551711	-0.680600	658.050910	9.273406	5.963251	-0.319239	-0.906199	1.409223
1.570	4.569102	-0.743449	657.938792	9.233876	6.033597	-0.308463	-0.917045	1.403455
1.580	4.569580	-0.803599	657.857207	9.191597	6.107783	-0.298099	-0.928436	1.397202
1.590	4.546312	-0.853746	657.826620	9.146530	6.189211	-0.289619	-0.940858	1.390417
1.600	4.495941	-0.889958	657.854328	9.098927	6.281438	-0.283839	-0.954837	1.383122
1.610	4.418060	-0.912673	657.932870	9.049610	6.387210	-0.280714	-0.970800	1.375461
1.620	4.314632	-0.926091	658.045194	9.000224	6.507459	-0.279595	-0.988908	1.367721
1.630	4.189566	-0.936444	658.175007	8.953290	6.640626	-0.279710	-1.008945	1.360321
1.640	4.048382	-0.949938	658.315958	8.911944	6.782658	-0.280544	-1.030304	1.353749
1.650	3.897964	-0.971085	658.472446	8.879319	6.927726	-0.281913	-1.052091	1.348472
1.660	3.746513	-1.001656	658.650300	8.857612	7.069342	-0.283807	-1.073307	1.344813
1.670	3.603471	-1.040150	658.843561	8.847046	7.201397	-0.286208	-1.093036	1.342814
1.680	3.478819	-1.081870	659.027122	8.845218	7.318846	-0.289065	-1.110553	1.342163
1.690	3.381393	-1.120020	659.161068	8.847298	7.418125	-0.292416	-1.125389	1.342206
1.700	3.316749	-1.148016	659.204741	8.847255	7.497452	-0.296491	-1.137348	1.342110
1.710	3.285597	-1.162199	659.133319	8.839774	7.557073	-0.301632	-1.146517	1.341121
1.720	3.283508	-1.163435	658.949398	8.822122	7.599278	-0.308013	-1.153242	1.338816
1.730	3.301930	-1.156515	658.684797	8.795095	7.627985	-0.315315	-1.158063	1.335251
1.740	3.330169	-1.147725	658.391936	8.762626	7.647936	-0.322587	-1.161608	1.330913
1.750	3.357892	-1.142099	658.128833	8.730294	7.663730	-0.328451	-1.164473	1.326533
1.760	3.377505	-1.141810	657.944467	8.703507	7.679047	-0.331642	-1.167127	1.322833
1.770	3.385644	-1.146054	657.869530	8.686070	7.696331	-0.331614	-1.169887	1.320333
1.780	3.383312	-1.151948	657.913034	8.679510	7.717066	-0.328935	-1.172961	1.319249
1.790	3.374713	-1.155855	658.062620	8.683134	7.742506	-0.325216	-1.176561	1.319500
1.800	3.365288	-1.154818	658.287527	8.694631	7.774359	-0.322555	-1.180997	1.320795
1.810	3.359557	-1.147861	658.544768	8.710906	7.814895	-0.322700	-1.186691	1.322751
1.820	3.359317	-1.136737	658.788339	8.728882	7.866308	-0.326329	-1.194057	1.324990
1.830	3.362615	-1.125676	658.979134	8.746075	7.929695	-0.332790	-1.203330	1.327216
1.840	3.363848	-1.120075	659.092251	8.760830	8.004265	-0.340396	-1.214438	1.329227
1.850	3.355018	-1.124589	659.119428	8.772175	8.087248	-0.347093	-1.226978	1.330893
1.860	3.327853	-1.141435	659.066902	8.779452	8.174572	-0.351167	-1.240325	1.332103
1.870	3.276275	-1.169573	658.951408	8.782109	8.261984	-0.351740	-1.253808	1.332740
1.880	3.198574	-1.205018	658.796969	8.779899	8.346148	-0.348923	-1.266877	1.332717
1.890	3.098612	-1.242135	658.632569	8.773349	8.425204	-0.343674	-1.279196	1.332055
1.900	2.985450	-1.275315	658.488534	8.764106	8.498605	-0.337448	-1.290623	1.330943
1.910	2.871243	-1.300269	658.390155	8.754839	8.566424	-0.331732	-1.301117	1.329734
1.920	2.768110	-1.314397	658.350038	8.748706	8.628622	-0.327573	-1.310644	1.328884
1.930	2.685156	-1.316418	658.363251	8.748557	8.684748	-0.325219	-1.319142	1.328834
1.940	2.626745	-1.305904	658.408891	8.756127	8.734151	-0.324029	-1.326554	1.329892
1.950	2.592470	-1.283191	658.458579	8.771476	8.776462	-0.322727	-1.332880	1.332123
1.960	2.578551	-1.249611	658.488441	8.792914	8.811958	-0.319937	-1.338210	1.335318
1.970	2.579850	-1.207691	658.488922	8.817500	8.841623	-0.314770	-1.342714	1.339051
1.980	2.591644	-1.161012	658.467809	8.842019	8.866934	-0.307224	-1.346601	1.342817
1.990	2.610716	-1.113601	658.445679	8.864027	8.889561	-0.298232	-1.350083	1.346205
2.000	2.635836	-1.068971	658.446748	8.882476	8.911089	-0.289345	-1.353350	1.349004
2.010	2.667636	-1.029178	658.489067	8.897665	8.932693	-0.282151	-1.356544	1.351224
2.020	2.707612	-0.994497	658.576707	8.910687	8.954701	-0.277676	-1.359705	1.353022
2.030	2.756268	-0.964068	658.695749	8.922799	8.976149	-0.276036	-1.362715	1.354616
2.040	2.811334	-0.937198	658.815938	8.934984	8.994684	-0.276563	-1.365280	1.356219
2.050	2.867482	-0.914489	658.899158	8.947753	9.007146	-0.278287	-1.366999	1.357985
2.060	2.918071	-0.897994	658.913254	8.961124	9.010790	-0.280483	-1.367523	1.359985
2.070	2.957949	-0.890274	658.846169	8.974788	9.004678	-0.282888	-1.366735	1.362198
2.080	2.985673	-0.892947	658.713530	8.988436	8.990591	-0.285546	-1.364871	1.364544
2.090	3.004026	-0.905558	658.554785	9.002107	8.972914	-0.288497	-1.362516	1.366949
2.100	3.018712	-0.925317	658.418893	9.016345	8.957333	-0.291627	-1.360431	1.369393
2.110	3.035836	-0.947762	658.346419	9.032058	8.948716	-0.294770	-1.359272	1.371931
2.120	3.059391	-0.967925	658.356161	9.050205	8.948992	-0.297915	-1.359293	1.374667
2.130	3.089971	-0.981428	658.440954	9.071390	8.955959	-0.301280	-1.360177	1.377707
2.140	3.125186	-0.985211	658.572326	9.095390	8.963606	-0.305167	-1.361066	1.381077
2.150	3.161220	-0.977987	658.710371	9.120752	8.963849	-0.309710	-1.360818	1.384638
2.160	3.194666	-0.960541	658.814218	9.144768	8.949103	-0.314710	-1.358365	1.388065
2.170	3.224116	-0.935670	658.849967	9.164111	8.914833	-0.319702	-1.353090	1.390925
2.180	3.251175	-0.907455	658.795614	9.176025	8.861353	-0.324206	-1.345084	1.392849
2.190	3.280461	-0.880023	658.644422	9.179598	8.794354	-0.328020	-1.335220	1.393711
2.200	3.318232	-0.856382	658.407741	9.176557	8.723928	-0.331354	-1.325004	1.393750
2.210	3.369927	-0.837886	658.116139	9.171192	8.662274	-0.334710	-1.316223	1.393552
2.220	3.437464	-0.824379	657.816308	9.169399	8.620786	-0.338564	-1.310516	1.393915
2.230	3.517249	-0.814807	657.562475	9.177145	8.607567	-0.343033	-1.309011	1.395631
2.240	3.599649	-0.808127	657.404008	9.198817	8.626265	-0.347689	-1.312171	1.399264
2.250	3.670354	-0.804373	657.373018	9.235875	8.676480	-0.351645	-1.319872	1.404967
2.260	3.713430	-0.805413	657.475911	9.286103	8.755150	-0.353866	-1.331631	1.412387
2.270	3.715105	-0.814649	657.691543	9.343688	8.857938	-0.353588	-1.346823	1.420679
2.280	3.667072	-0.835204	657.976384	9.400207	8.979944	-0.350653	-1.364782	1.428654
2.290	3.568440	-0.867094	658.274945	9.446435	9.115692	-0.345596	-1.384785	1.435029
2.300	3.425900	-0.905002	658.532772	9.474582	9.258843	-0.339435	-1.405981	1.438741
2.310	3.252154	-0.938530	658.708979	9.480394	9.402184	-0.333224	-1.427365	1.439239
2.320	3.063240	-0.955539	658.785151	9.464481	9.538244	-0.327612	-1.447854	1.436657
2.330	2.875694	-0.947324	658.767916	9.432352	9.660525	-0.322581	-1.466453	1.431817
2.340	2.704157	-0.912960	658.683839	9.392922	9.764980	-0.317485	-1.482499	1.426014
2.350	2.559457	-0.860457	658.567692	9.355812	9.851120	-0.311349	-1.495840	1.420630
2.360	2.447209	-0.804003	658.448451	9.328414	9.922133	-0.303329	-1.506896	1.416727
2.370	2.367294	-0.758691	658.339880	9.313998	9.983784	-0.293173	-1.516509	1.414770
2.380	2.314586	-0.735259	658.241184	9.311651	10.042508	-0.281475	-1.525658	1.414626
2.390	2.280774	-0.737185	658.147240	9.317894	10.103469	-0.269620	-1.535138	1.415777
2.400	2.256732	-0.761004	658.061253	9.328900	10.169266	-0.259389	-1.545337	1.417634
