Time[s]	Fx[N]	Fy[N]	Fz[N]	Mx[Nm]	My[Nm]	Mz[Nm]	COPx[cm]	COPy[cm]
0.010	8.014807	-3.529114	610.185981	-21.996100	-30.026528	-0.057214	4.920881	-3.604819
0.020	8.226929	-3.583710	610.180100	-21.917794	-30.258832	-0.064079	4.959000	-3.592020
0.030	8.381198	-3.617602	610.284468	-21.837466	-30.467661	-0.075100	4.992370	-3.578244
0.040	8.432069	-3.614176	610.599936	-21.753381	-30.635706	-0.093467	5.017312	-3.562624
0.050	8.355510	-3.563853	611.211091	-21.665249	-30.755305	-0.120709	5.031863	-3.544643
0.060	8.152368	-3.464921	612.180917	-21.574950	-30.829066	-0.156485	5.035940	-3.524277
0.070	7.845884	-3.322739	613.545766	-21.486913	-30.867395	-0.198765	5.030985	-3.502088
0.080	7.474899	-3.148038	615.308793	-21.407817	-30.884132	-0.244300	5.019290	-3.479199
0.090	7.084883	-2.954898	617.432646	-21.345442	-30.892012	-0.289340	5.003301	-3.457129
0.100	6.718784	-2.758604	619.835256	-21.306857	-30.899445	-0.330494	4.985106	-3.437503
0.110	6.409294	-2.573488	622.393087	-21.296477	-30.909375	-0.365489	4.966214	-3.421708
0.120	6.173818	-2.410971	624.953358	-21.314690	-30.920221	-0.393499	4.947605	-3.410605
0.130	6.013099	-2.278077	627.353601	-21.357540	-30.928246	-0.414895	4.929954	-3.404386
0.140	5.913745	-2.176646	629.445336	-21.417470	-30.930396	-0.430595	4.913913	-3.402594
0.150	5.854041	-2.103450	631.117882	-21.484710	-30.926636	-0.441445	4.900295	-3.404231
0.160	5.811689	-2.051413	632.316765	-21.548873	-30.921083	-0.447896	4.890125	-3.407924
0.170	5.771610	-2.011773	633.049749	-21.600522	-30.921644	-0.450030	4.884552	-3.412137
0.180	5.731621	-1.976575	633.375275	-21.632598	-30.938254	-0.447711	4.884664	-3.415447
0.190	5.703831	-1.940573	633.374579	-21.641489	-30.980162	-0.440696	4.891286	-3.416855
0.200	5.710648	-1.901814	633.116889	-21.627372	-31.053089	-0.428707	4.904796	-3.416016
0.210	5.776214	-1.860781	632.632149	-21.593582	-31.157231	-0.411570	4.925015	-3.413292
0.220	5.916396	-1.818654	631.904009	-21.545230	-31.286912	-0.389451	4.951213	-3.409573
0.230	6.131455	-1.775562	630.887501	-21.487605	-31.432117	-0.363084	4.982206	-3.405933
0.240	6.404569	-1.729482	629.544573	-21.424944	-31.581380	-0.333818	5.016544	-3.403245
0.250	6.706707	-1.676231	627.882103	-21.360024	-31.724947	-0.303404	5.052692	-3.401916
0.260	7.005565	-1.610777	625.974850	-21.294694	-31.856930	-0.273557	5.089171	-3.401845
0.270	7.274850	-1.529783	623.960474	-21.231090	-31.975483	-0.245442	5.124601	-3.402634
0.280	7.500476	-1.434478	622.003939	-21.172855	-32.080795	-0.219350	5.157651	-3.403974
0.290	7.681515	-1.332590	620.241360	-21.125659	-32.171527	-0.194767	5.186937	-3.406038
0.300	7.825434	-1.238301	618.724311	-21.096656	-32.241070	-0.170913	5.210894	-3.409702
0.310	7.939159	-1.169915	617.390090	-21.093036	-32.275308	-0.147515	5.227701	-3.416484
0.320	8.019668	-1.145568	616.077705	-21.120158	-32.253314	-0.125411	5.235267	-3.428165
0.330	8.048935	-1.177956	614.592751	-21.179875	-32.151508	-0.106609	5.231352	-3.446164
0.340	7.996821	-1.269504	612.801820	-21.269721	-31.950516	-0.093699	5.213842	-3.470897
0.350	7.831902	-1.409719	610.719555	-21.383551	-31.642627	-0.088941	5.181204	-3.501370
0.360	7.535746	-1.576128	608.549741	-21.513761	-31.236911	-0.093492	5.133009	-3.535251
0.370	7.113392	-1.739082	606.658889	-21.654388	-30.759443	-0.107086	5.070303	-3.569450
0.380	6.593825	-1.869115	605.488761	-21.803698	-30.247874	-0.128172	4.995613	-3.601008
0.390	6.019403	-1.944467	605.438872	-21.964920	-29.742089	-0.154307	4.912484	-3.627934
0.400	5.429453	-1.956559	606.759834	-22.144737	-29.274387	-0.182700	4.824707	-3.649671
0.410	4.846678	-1.912328	609.491006	-22.350344	-28.862780	-0.210797	4.735555	-3.667051
0.420	4.273204	-1.833185	613.457280	-22.586528	-28.509525	-0.236762	4.647353	-3.681842
0.430	3.697587	-1.750844	618.318462	-22.853929	-28.204876	-0.259744	4.561545	-3.696142
0.440	3.108516	-1.700607	623.648521	-23.148761	-27.934161	-0.279846	4.479151	-3.711828
0.450	2.508192	-1.713212	629.016590	-23.463566	-27.685293	-0.297755	4.401361	-3.730198
0.460	1.919399	-1.807016	634.047955	-23.788281	-27.453979	-0.314114	4.329953	-3.751811
0.470	1.383636	-1.982738	638.455917	-24.111180	-27.244973	-0.328868	4.267323	-3.776483
0.480	0.951481	-2.222734	642.046643	-24.419731	-27.069491	-0.340968	4.216125	-3.803420
0.490	0.668906	-2.495667	644.705466	-24.701683	-26.940332	-0.348700	4.178704	-3.831468
0.500	0.564336	-2.765623	646.375886	-24.946509	-26.866969	-0.350515	4.156555	-3.859443
0.510	0.640783	-3.002704	647.042442	-25.146956	-26.852531	-0.345922	4.150042	-3.886446
0.520	0.875878	-3.190998	646.723900	-25.300140	-26.893594	-0.335925	4.158435	-3.912047
0.530	1.229979	-3.330558	645.474547	-25.407749	-26.982383	-0.322746	4.180240	-3.936290
0.540	1.659364	-3.432976	643.385625	-25.475159	-27.109986	-0.308987	4.213645	-3.959547
0.550	2.128912	-3.513402	640.581486	-25.509764	-27.268871	-0.296592	4.256893	-3.982282
0.560	2.618699	-3.583416	637.212266	-25.519102	-27.453699	-0.286082	4.308407	-4.004804
0.570	3.122020	-3.647804	633.448522	-25.509570	-27.660500	-0.276432	4.366653	-4.027094
0.580	3.637056	-3.705504	629.480087	-25.486142	-27.885194	-0.265694	4.429877	-4.048761
0.590	4.157576	-3.752708	625.515236	-25.452893	-28.122591	-0.252041	4.495908	-4.069108
0.600	4.667851	-3.785772	621.772948	-25.413559	-28.366413	-0.234734	4.562182	-4.087273
0.610	5.143982	-3.802770	618.463355	-25.371565	-28.610048	-0.214528	4.625989	-4.102355
0.620	5.560286	-3.803937	615.758268	-25.329521	-28.847184	-0.193427	4.684823	-4.113549
0.630	5.897191	-3.791606	613.760803	-25.288721	-29.071727	-0.173975	4.736654	-4.120289
0.640	6.146732	-3.769855	612.485780	-25.249147	-29.277035	-0.158458	4.780035	-4.122405
0.650	6.313179	-3.743722	611.859031	-25.209969	-29.455110	-0.148373	4.814035	-4.120225
0.660	6.408827	-3.718074	611.737184	-25.170197	-29.596507	-0.144293	4.838108	-4.114544
0.670	6.447205	-3.696440	611.943541	-25.129113	-29.691350	-0.146092	4.851975	-4.106443
0.680	6.436873	-3.679973	612.311653	-25.086389	-29.731239	-0.153320	4.855573	-4.096997
0.690	6.378358	-3.666514	612.725450	-25.042026	-29.711419	-0.165496	4.849059	-4.086990
0.700	6.265297	-3.649958	613.144578	-24.996246	-29.632444	-0.182160	4.832864	-4.076730
0.710	6.089182	-3.620489	613.607609	-24.949416	-29.500712	-0.202706	4.807749	-4.066021
0.720	5.845681	-3.566184	614.212861	-24.901982	-29.327513	-0.226210	4.774813	-4.054292
0.730	5.539715	-3.475954	615.083177	-24.854317	-29.126804	-0.251452	4.735425	-4.040806
0.740	5.186698	-3.343066	616.325251	-24.806444	-28.912384	-0.277206	4.691092	-4.024895
0.750	4.808946	-3.167984	617.995203	-24.757740	-28.695466	-0.302616	4.643315	-4.006138
0.760	4.428749	-2.959291	620.079433	-24.706836	-28.483497	-0.327394	4.593524	-3.984463
0.770	4.061666	-2.731896	622.494002	-24.651837	-28.280481	-0.351681	4.543093	-3.960173
0.780	3.713615	-2.502830	625.099865	-24.590820	-28.088356	-0.375594	4.493419	-3.933903
0.790	3.383263	-2.286151	627.727736	-24.522454	-27.908546	-0.398671	4.445963	-3.906543
0.800	3.068263	-2.089171	630.205378	-24.446465	-27.743012	-0.419517	4.402218	-3.879127
0.810	2.771957	-1.911727	632.380891	-24.363669	-27.594609	-0.435922	4.363606	-3.852689
0.820	2.507136	-1.748704	634.137479	-24.275518	-27.466901	-0.445503	4.331380	-3.828116
0.830	2.295157	-1.594508	635.397913	-24.183395	-27.363606	-0.446591	4.306531	-3.806024
0.840	2.160962	-1.447447	636.120241	-24.088046	-27.287774	-0.438901	4.289719	-3.786713
0.850	2.126295	-1.312025	636.289347	-23.989451	-27.240881	-0.423635	4.281210	-3.770211
0.860	2.203784	-1.197999	635.909968	-23.887156	-27.222099	-0.403027	4.280810	-3.756374
0.870	2.393543	-1.116560	635.004493	-23.780795	-27.227973	-0.379573	4.287839	-3.744981
0.880	2.682390	-1.075387	633.614888	-23.670533	-27.252563	-0.355335	4.301124	-3.735792
0.890	3.044881	-1.074862	631.805456	-23.557327	-27.287944	-0.331581	4.319042	-3.728573
0.900	3.445582	-1.107005	629.663409	-23.443134	-27.324899	-0.308885	4.339604	-3.723122
0.910	3.842666	-1.157327	627.296130	-23.331123	-27.353738	-0.287570	4.360578	-3.719316
0.920	4.192929	-1.208533	624.826044	-23.225830	-27.365367	-0.268162	4.379678	-3.717167
0.930	4.457666	-1.244503	622.385219	-23.133135	-27.352789	-0.251559	4.394833	-3.716852
0.940	4.608214	-1.253396	620.111850	-23.060001	-27.312908	-0.238838	4.404513	-3.718684
0.950	4.629880	-1.229487	618.148842	-23.013948	-27.248133	-0.230890	4.408021	-3.723043
0.960	4.523462	-1.173823	616.641269	-23.002251	-27.166986	-0.228093	4.405639	-3.730248
0.970	4.304423	-1.093924	615.727150	-23.030951	-27.083183	-0.230164	4.398569	-3.740448
0.980	4.000398	-1.002780	615.518002	-23.103820	-27.013195	-0.236187	4.388693	-3.753557
0.990	3.647835	-0.917324	616.072271	-23.221455	-26.972910	-0.244786	4.378206	-3.769275
1.000	3.288147	-0.856356	617.371313	-23.380708	-26.974360	-0.254307	4.369228	-3.787139
1.010	2.963481	-0.837788	619.308560	-23.574735	-27.023443	-0.262979	4.363486	-3.806622
1.020	2.712175	-0.875358	621.697070	-23.793899	-27.119106	-0.269017	4.362109	-3.827250
1.030	2.564301	-0.975540	624.293471	-24.027331	-27.253913	-0.270738	4.365561	-3.848724
1.040	2.537957	-1.135620	626.831941	-24.264556	-27.415624	-0.266734	4.373680	-3.870983
1.050	2.637004	-1.343797	629.060560	-24.496519	-27.589429	-0.256118	4.385814	-3.894143
1.060	2.850623	-1.581582	630.772955	-24.715754	-27.760417	-0.238817	4.401016	-3.918328
1.070	3.154763	-1.827983	631.829967	-24.915984	-27.915748	-0.215782	4.418237	-3.943464
1.080	3.515306	-2.064239	632.168957	-25.091803	-28.046017	-0.188998	4.436475	-3.969161
1.090	3.892509	-2.277476	631.801496	-25.238909	-28.145655	-0.161210	4.454826	-3.994753
1.100	4.246190	-2.461996	630.802823	-25.354972	-28.212607	-0.135457	4.472492	-4.019477
1.110	4.541115	-2.617875	629.297524	-25.440758	-28.247722	-0.114586	4.488771	-4.042723
1.120	4.751877	-2.747880	627.444655	-25.500933	-28.254160	-0.100872	4.503052	-4.064252
1.130	4.866343	-2.854567	625.422759	-25.543958	-28.236892	-0.095757	4.514849	-4.084271
1.140	4.886515	-2.939155	623.413454	-25.580802	-28.202118	-0.099673	4.523822	-4.103345
1.150	4.826274	-3.002431	621.583224	-25.622749	-28.156446	-0.111978	4.529795	-4.122175
1.160	4.706620	-3.046531	620.065743	-25.679108	-28.105986	-0.131108	4.532743	-4.141352
1.170	4.550172	-3.076021	618.949189	-25.755649	-28.055726	-0.154944	4.532799	-4.161189
1.180	4.376836	-3.097502	618.272614	-25.854086	-28.009497	-0.181286	4.530283	-4.181665
1.190	4.201860	-3.118121	618.032497	-25.972526	-27.970438	-0.208231	4.525723	-4.202453
1.200	4.036155	-3.143858	618.196530	-26.106504	-27.941480	-0.234347	4.519838	-4.223010
1.210	3.887654	-3.178180	618.719002	-26.250153	-27.925416	-0.258668	4.513425	-4.242662
1.220	3.762301	-3.221200	619.551874	-26.397058	-27.924478	-0.280635	4.507206	-4.260670
1.230	3.664321	-3.269466	620.647457	-26.540638	-27.939714	-0.300055	4.501704	-4.276282
1.240	3.596481	-3.316630	621.951921	-26.674304	-27.970437	-0.317067	4.497202	-4.288805
1.250	3.560897	-3.355256	623.393489	-26.791661	-28.013799	-0.332017	4.493759	-4.297713
1.260	3.559746	-3.379537	624.873040	-26.886879	-28.064526	-0.345253	4.491236	-4.302775
1.270	3.594639	-3.387965	626.264789	-26.955036	-28.115009	-0.356916	4.489317	-4.304096
1.280	3.664323	-3.384478	627.429957	-26.992299	-28.156032	-0.366884	4.487518	-4.302042
1.290	3.761984	-3.376894	628.239665	-26.996024	-28.178222	-0.374920	4.485266	-4.297090
1.300	3.874091	-3.372784	628.599192	-26.964933	-28.173874	-0.380948	4.482009	-4.289686
1.310	3.981886	-3.374764	628.466424	-26.899390	-28.138442	-0.385369	4.477318	-4.280163
1.320	4.065042	-3.378098	627.860751	-26.801652	-28.071049	-0.389245	4.470904	-4.268726
1.330	4.105858	-3.372279	626.861618	-26.676161	-27.974016	-0.394201	4.462550	-4.255510
1.340	4.092288	-3.345738	625.598037	-26.529942	-27.852043	-0.401960	4.452067	-4.240733
1.350	4.018869	-3.290993	624.232113	-26.372930	-27.711790	-0.413664	4.439341	-4.224860
1.360	3.885893	-3.207618	622.940197	-26.217720	-27.562063	-0.429299	4.424512	-4.208706
1.370	3.698039	-3.101860	621.893520	-26.078365	-27.414090	-0.447568	4.408165	-4.193381
1.380	3.463664	-2.983437	621.238293	-25.968255	-27.281104	-0.466255	4.391407	-4.180080
1.390	3.195005	-2.861448	621.075869	-25.897650	-27.176890	-0.482909	4.375776	-4.169805
1.400	2.908589	-2.741610	621.446541	-25.871654	-27.113637	-0.495452	4.362988	-4.163134
1.410	2.624943	-2.626188	622.322479	-25.889315	-27.099894	-0.502527	4.354639	-4.160113
1.420	2.367173	-2.516334	623.613490	-25.944004	-27.139355	-0.503519	4.351951	-4.160270
1.430	2.158576	-2.415013	625.184332	-26.024834	-27.230837	-0.498374	4.355649	-4.162746
1.440	2.019715	-2.328102	626.877815	-26.118685	-27.369317	-0.487333	4.365973	-4.166471
1.450	1.965508	-2.262355	628.536966	-26.212386	-27.547593	-0.470707	4.382812	-4.170381
1.460	2.003025	-2.221269	630.021820	-26.294739	-27.758034	-0.448803	4.405884	-4.173624
1.470	2.130729	-2.201869	631.219628	-26.358076	-27.993896	-0.422024	4.434890	-4.175738
1.480	2.339680	-2.195236	632.049610	-26.399076	-28.249944	-0.391048	4.469577	-4.176741
1.490	2.616499	-2.191146	632.464484	-26.418642	-28.522421	-0.356983	4.509727	-4.177095
1.500	2.947052	-2.184115	632.451151	-26.420861	-28.808738	-0.321344	4.555093	-4.177534
1.510	3.319285	-2.177006	632.031420	-26.411371	-29.107262	-0.285818	4.605350	-4.178807
1.520	3.724142	-2.179810	631.260952	-26.395713	-29.417310	-0.251817	4.660087	-4.181426
1.530	4.154634	-2.204323	630.223202	-26.378234	-29.739091	-0.220000	4.718819	-4.185538
1.540	4.603965	-2.257730	629.017348	-26.361938	-30.073376	-0.189972	4.781009	-4.190972
1.550	5.063804	-2.338377	627.743494	-26.349018	-30.420865	-0.160306	4.846066	-4.197418
1.560	5.523589	-2.435436	626.490667	-26.341408	-30.781500	-0.128962	4.913321	-4.204597
1.570	5.971521	-2.532183	625.331474	-26.340794	-31.153978	-0.094012	4.981994	-4.212293
1.580	6.397132	-2.611277	624.323254	-26.348084	-31.535684	-0.054415	5.051179	-4.220263
1.590	6.794266	-2.660000	623.511605	-26.362768	-31.923141	-0.010532	5.119895	-4.228112
1.600	7.162942	-2.673801	622.930821	-26.382655	-32.312864	0.035860	5.187232	-4.235246
1.610	7.509205	-2.657256	622.598208	-26.404253	-32.702162	0.082036	5.252531	-4.240978
1.620	7.843269	-2.622395	622.504357	-26.423614	-33.089394	0.125106	5.315528	-4.244728
1.630	8.176845	-2.585141	622.605752	-26.437196	-33.473451	0.162831	5.376348	-4.246218
1.640	8.520488	-2.561167	622.826570	-26.442390	-33.852727	0.194195	5.435338	-4.245546
1.650	8.881311	-2.562643	623.072494	-26.437779	-34.224148	0.219548	5.492804	-4.243130
1.660	9.261276	-2.596570	623.252967	-26.423327	-34.582785	0.240254	5.548756	-4.239583
1.670	9.656333	-2.664351	623.303644	-26.400496	-34.922174	0.258003	5.602755	-4.235575
1.680	10.056656	-2.761915	623.200513	-26.372074	-35.235222	0.274060	5.653914	-4.231716
1.690	10.448055	-2.880332	622.960800	-26.341716	-35.515396	0.288809	5.701064	-4.228471
1.700	10.814403	-3.007251	622.630929	-26.313379	-35.757895	0.301839	5.743032	-4.226160
1.710	11.140761	-3.129117	622.266803	-26.290909	-35.960479	0.312473	5.778949	-4.225022
1.720	11.416601	-3.233660	621.914865	-26.277727	-36.123734	0.320357	5.808469	-4.225293
1.730	11.638257	-3.312131	621.601146	-26.276493	-36.250679	0.325694	5.831823	-4.227227
1.740	11.809569	-3.360974	621.330178	-26.288626	-36.345868	0.329005	5.849687	-4.231024
1.750	11.940132	-3.382569	621.090605	-26.313787	-36.414203	0.330661	5.862945	-4.236707
1.760	12.041546	-3.384715	620.863097	-26.349682	-36.459756	0.330547	5.872431	-4.244041
1.770	12.123271	-3.378850	620.628087	-26.392494	-36.484915	0.328086	5.878708	-4.252546
1.780	12.190196	-3.377397	620.372679	-26.437821	-36.490139	0.322594	5.881971	-4.261603
1.790	12.243049	-3.390729	620.095898	-26.481621	-36.474385	0.313772	5.882055	-4.270569
1.800	12.281007	-3.424430	619.809931	-26.520760	-36.435900	0.302061	5.878560	-4.278854
1.810	12.304365	-3.477734	619.534682	-26.553096	-36.372726	0.288651	5.870975	-4.285974
1.820	12.315199	-3.543970	619.285320	-26.577223	-36.282390	0.275057	5.858752	-4.291596
1.830	12.315399	-3.613027	619.056785	-26.592022	-36.160877	0.262449	5.841286	-4.295571
1.840	12.303324	-3.674797	618.812940	-26.596171	-36.001666	0.251004	5.817859	-4.297934
1.850	12.271196	-3.721968	618.488677	-26.587871	-35.795854	0.239593	5.787633	-4.298845
1.860	12.205002	-3.750953	618.009119	-26.565076	-35.533818	0.225935	5.749724	-4.298493
1.870	12.087496	-3.760879	617.322551	-26.526387	-35.208014	0.207228	5.703342	-4.297006
1.880	11.903730	-3.751667	616.436396	-26.472379	-34.815933	0.181121	5.647936	-4.294422
1.890	11.647497	-3.722608	615.441923	-26.406771	-34.362106	0.146660	5.583322	-4.290701
1.900	11.326222	-3.672329	614.514406	-26.336725	-33.858323	0.104862	5.509769	-4.285778
1.910	10.961936	-3.600266	613.881703	-26.271851	-33.321543	0.058659	5.428007	-4.279628
1.920	10.587250	-3.508992	613.765780	-26.222033	-32.769692	0.012252	5.339120	-4.272319
1.930	10.237160	-3.406198	614.314539	-26.194731	-32.216340	-0.029917	5.244274	-4.264058
1.940	9.938968	-3.304894	615.547332	-26.192680	-31.666003	-0.064320	5.144365	-4.255185
1.950	9.703214	-3.220959	617.332577	-26.212690	-31.111719	-0.089314	5.039701	-4.246121
1.960	9.518344	-3.168516	619.404364	-26.245775	-30.535775	-0.105680	4.929861	-4.237260
1.970	9.350860	-3.155010	621.413812	-26.278417	-29.913369	-0.116545	4.813760	-4.228811
1.980	9.151041	-3.178105	623.003089	-26.294758	-29.218186	-0.126645	4.689894	-4.220646
1.990	8.862777	-3.225590	623.885424	-26.279528	-28.428478	-0.141131	4.556682	-4.212236
2.000	8.435279	-3.278138	623.913408	-26.221283	-27.532309	-0.164333	4.412841	-4.202712
2.010	7.834322	-3.313958	623.120026	-26.115168	-26.530879	-0.198911	4.257748	-4.191033
2.020	7.050679	-3.314085	621.721783	-25.964409	-25.439345	-0.245603	4.091757	-4.176210
2.030	6.103573	-3.267091	620.081352	-25.780071	-24.285072	-0.303428	3.916433	-4.157530
2.040	5.037665	-3.172005	618.637565	-25.579012	-23.103692	-0.370101	3.734609	-4.134733
2.050	3.913742	-3.038374	617.818859	-25.380354	-21.933710	-0.442481	3.550185	-4.108057
2.060	2.795441	-2.883069	617.958911	-25.201167	-20.810641	-0.516997	3.367642	-4.078130
2.070	1.736124	-2.724619	619.230642	-25.052436	-19.761787	-0.590082	3.191345	-4.045736
2.080	0.770333	-2.577097	621.610033	-24.936402	-18.802680	-0.658572	3.024835	-4.011583
2.090	-0.087443	-2.446002	624.876114	-24.846047	-17.935826	-0.720076	2.870301	-3.976156
2.100	-0.837020	-2.327682	628.647475	-24.766794	-17.151899	-0.773324	2.728381	-3.939695
2.110	-1.483328	-2.212156	632.447889	-24.679755	-16.432860	-0.818413	2.598295	-3.902259
2.120	-2.028906	-2.087615	635.786571	-24.565557	-15.756109	-0.856789	2.478207	-3.863806
2.130	-2.472119	-1.944398	638.236477	-24.407897	-15.098682	-0.890829	2.365688	-3.824272
2.140	-2.811729	-1.776990	639.498094	-24.196481	-14.440809	-0.923102	2.258147	-3.783667
2.150	-3.054485	-1.583967	639.441774	-23.929247	-13.768561	-0.955605	2.153216	-3.742209
2.160	-3.220560	-1.367051	638.124526	-23.613776	-13.075510	-0.989195	2.049053	-3.700497
2.170	-3.343066	-1.130727	635.778449	-23.267595	-12.363360	-1.023266	1.944602	-3.659702
2.180	-3.461370	-0.882937	632.771094	-22.916851	-11.641487	-1.055671	1.839763	-3.621665
2.190	-3.611267	-0.636090	629.543625	-22.592942	-10.925373	-1.082998	1.735443	-3.588781
2.200	-3.816372	-0.406995	626.538263	-22.327223	-10.234137	-1.101330	1.633442	-3.563585
2.210	-4.084008	-0.214863	624.129854	-22.144737	-9.587537	-1.107384	1.536145	-3.548098
2.220	-4.406460	-0.077654	622.575754	-22.058641	-9.002950	-1.099658	1.446081	-3.543126
2.230	-4.766030	-0.007976	621.993041	-22.067138	-8.492983	-1.079111	1.365447	-3.547811
2.240	-5.141048	-0.009952	622.363889	-22.154192	-8.064291	-1.049039	1.295752	-3.559685
2.250	-5.510376	-0.077966	623.562104	-22.294048	-7.717821	-1.014225	1.237699	-3.575273
2.260	-5.855557	-0.197490	625.389290	-22.458095	-7.450162	-0.979685	1.191284	-3.591059
2.270	-6.161052	-0.347574	627.609076	-22.621600	-7.255354	-0.949481	1.156031	-3.604409
2.280	-6.413113	-0.504291	629.972136	-22.767838	-7.126520	-0.925914	1.131244	-3.614102
2.290	-6.597475	-0.644458	632.231506	-22.888527	-7.056898	-0.909207	1.116189	-3.620276
