Time[s]	Fx[N]	Fy[N]	Fz[N]	Mx[Nm]	My[Nm]	Mz[Nm]	COPx[cm]	COPy[cm]
0.010	3.975002	2.855920	467.778602	4.657303	-0.587026	0.215118	0.125492	0.995621
0.020	4.061198	2.856072	467.704241	4.722227	-0.570988	0.221619	0.122083	1.009661
0.030	4.134499	2.852532	467.623488	4.780792	-0.554283	0.226750	0.118532	1.022359
0.040	4.186119	2.842681	467.532337	4.828428	-0.536207	0.229434	0.114689	1.032747
0.050	4.212215	2.825134	467.430344	4.863142	-0.515261	0.229276	0.110233	1.040399
0.060	4.213823	2.800636	467.317381	4.885518	-0.489106	0.226731	0.104662	1.045439
0.070	4.195366	2.772383	467.189912	4.897894	-0.454963	0.222943	0.097383	1.048373
0.080	4.162624	2.745476	467.040847	4.903158	-0.410433	0.219314	0.087879	1.049835
0.090	4.120955	2.725615	466.864268	4.903694	-0.354416	0.216987	0.075914	1.050347
0.100	4.074085	2.717252	466.662215	4.900819	-0.287608	0.216524	0.061631	1.050186
0.110	4.023429	2.721622	466.449183	4.894809	-0.212210	0.217858	0.045495	1.049377
0.120	3.967908	2.735515	466.251453	4.885463	-0.130944	0.220487	0.028084	1.047817
0.130	3.904545	2.751743	466.100986	4.873021	-0.045965	0.223732	0.009862	1.045486
0.140	3.830173	2.761450	466.025723	4.858977	0.041622	0.226882	-0.008931	1.042641
0.150	3.744035	2.757484	466.039819	4.846226	0.131310	0.229190	-0.028176	1.039874
0.160	3.649948	2.737442	466.138211	4.838267	0.222094	0.229861	-0.047646	1.037947
0.170	3.556314	2.704998	466.298817	4.837922	0.311511	0.228216	-0.066805	1.037515
0.180	3.473318	2.668694	466.491972	4.846313	0.395552	0.224040	-0.084793	1.038885
0.190	3.408610	2.638571	466.692000	4.862570	0.469686	0.217856	-0.100642	1.041923
0.200	3.363932	2.622222	466.884088	4.884202	0.530482	0.210872	-0.113622	1.046127
0.210	3.334600	2.622148	467.062800	4.907789	0.576965	0.204543	-0.123531	1.050777
0.220	3.312165	2.635355	467.224529	4.929680	0.610983	0.199952	-0.130769	1.055099
0.230	3.288919	2.654911	467.360195	4.946618	0.636391	0.197300	-0.136167	1.058417
0.240	3.261912	2.672448	467.453694	4.956325	0.657446	0.195782	-0.140644	1.060281
0.250	3.234299	2.680718	467.487266	4.958113	0.677139	0.193913	-0.144847	1.060588
0.260	3.213219	2.675666	467.450370	4.953408	0.696181	0.190183	-0.148932	1.059665
0.270	3.205467	2.657645	467.346703	4.945791	0.713056	0.183709	-0.152575	1.058270
0.280	3.213371	2.631399	467.195071	4.940219	0.725042	0.174563	-0.155190	1.057421
0.290	3.232971	2.604563	467.023314	4.941407	0.729721	0.163669	-0.156249	1.058064
0.300	3.255207	2.585007	466.858358	4.952017	0.726302	0.152418	-0.155572	1.060711
0.310	3.269496	2.577989	466.717670	4.971560	0.716172	0.142230	-0.153449	1.065218
0.320	3.268286	2.584364	466.606559	4.996617	0.702392	0.134239	-0.150532	1.070842
0.330	3.250865	2.600677	466.522170	5.022235	0.688351	0.129119	-0.147550	1.076527
0.340	3.224787	2.620953	466.460721	5.043773	0.676249	0.127007	-0.144975	1.081286
0.350	3.203926	2.639167	466.422795	5.058355	0.666211	0.127535	-0.142834	1.084500
0.360	3.203526	2.651208	466.413824	5.065422	0.656452	0.129973	-0.140745	1.086036
0.370	3.234177	2.655659	466.440886	5.066411	0.644278	0.133477	-0.138126	1.086185
0.380	3.297526	2.653371	466.508381	5.063984	0.627346	0.137319	-0.134477	1.085508
0.390	3.385700	2.646323	466.614126	5.061250	0.604671	0.140989	-0.129587	1.084676
0.400	3.484273	2.636544	466.746736	5.061221	0.577096	0.144166	-0.123642	1.084361
0.410	3.576910	2.625674	466.885580	5.066431	0.547184	0.146653	-0.117199	1.085155
0.420	3.649698	2.615174	467.004410	5.078552	0.518516	0.148379	-0.111030	1.087474
0.430	3.694135	2.606686	467.078088	5.097991	0.494616	0.149472	-0.105896	1.091464
0.440	3.708536	2.602086	467.090212	5.123659	0.477858	0.150361	-0.102305	1.096931
0.450	3.697890	2.603087	467.038867	5.153134	0.468779	0.151785	-0.100373	1.103363
0.460	3.672324	2.610484	466.938197	5.183208	0.466014	0.154645	-0.099802	1.110042
0.470	3.644542	2.623359	466.814832	5.210629	0.466790	0.159671	-0.099995	1.116209
0.480	3.626703	2.638824	466.700288	5.232895	0.467767	0.167049	-0.100228	1.121254
0.490	3.627348	2.652788	466.621964	5.248988	0.465973	0.176200	-0.099861	1.124891
0.500	3.649043	2.661598	466.595406	5.259826	0.459665	0.185894	-0.098515	1.127278
0.510	3.687548	2.663815	466.619848	5.268127	0.448829	0.194677	-0.096187	1.128998
0.520	3.733118	2.661285	466.678645	5.277570	0.435098	0.201403	-0.093233	1.130879
0.530	3.773836	2.658953	466.745506	5.291554	0.421062	0.205591	-0.090212	1.133713
0.540	3.799927	2.663388	466.795197	5.312212	0.409267	0.207479	-0.087676	1.138018
0.550	3.807266	2.680404	466.814570	5.340152	0.401283	0.207824	-0.085962	1.143956
0.560	3.798463	2.712596	466.808516	5.374812	0.397127	0.207582	-0.085073	1.151395
0.570	3.781036	2.757746	466.797230	5.414959	0.395263	0.207570	-0.084675	1.160024
0.580	3.763654	2.808921	466.805459	5.458950	0.393231	0.208214	-0.084239	1.169427
0.590	3.752326	2.856532	466.848760	5.504767	0.388727	0.209502	-0.083266	1.179133
0.600	3.748295	2.891808	466.923540	5.550047	0.380612	0.211155	-0.081515	1.188641
0.610	3.748408	2.910329	467.006224	5.592409	0.369352	0.212888	-0.079089	1.197502
0.620	3.747474	2.913878	467.062932	5.630120	0.356729	0.214586	-0.076377	1.205431
0.630	3.741188	2.909584	467.065887	5.662828	0.344948	0.216346	-0.073854	1.212426
0.640	3.728124	2.906687	467.008322	5.691848	0.335527	0.218446	-0.071846	1.218789
0.650	3.709991	2.912526	466.909189	5.719676	0.328406	0.221280	-0.070336	1.225008
0.660	3.690386	2.929730	466.804141	5.748898	0.321782	0.225248	-0.068933	1.231544
0.670	3.673083	2.955984	466.727672	5.781154	0.312833	0.230561	-0.067027	1.238657
0.680	3.660918	2.986231	466.697172	5.816718	0.299053	0.237047	-0.064079	1.246358
0.690	3.655609	3.015673	466.708266	5.854761	0.279484	0.244059	-0.059884	1.254480
0.700	3.658078	3.041692	466.742584	5.893865	0.255195	0.250590	-0.054676	1.262766
0.710	3.668637	3.063920	466.780738	5.932401	0.228801	0.255537	-0.049017	1.270918
0.720	3.686855	3.082933	466.811592	5.968645	0.203299	0.257986	-0.043550	1.278598
0.730	3.711519	3.098562	466.833709	6.000780	0.180827	0.257399	-0.038735	1.285421
0.740	3.740978	3.108712	466.850861	6.026986	0.161873	0.253692	-0.034673	1.290987
0.750	3.773550	3.109382	466.866054	6.045735	0.145225	0.247238	-0.031106	1.294961
0.760	3.807416	3.096016	466.877491	6.056297	0.128676	0.238818	-0.027561	1.297192
0.770	3.839982	3.065723	466.877557	6.059252	0.110174	0.229488	-0.023598	1.297825
0.780	3.867419	3.019384	466.854359	6.056705	0.088945	0.220329	-0.019052	1.297344
0.790	3.885106	2.962736	466.795154	6.051965	0.066037	0.212152	-0.014147	1.296493
0.800	3.888969	2.905840	466.691265	6.048633	0.043989	0.205287	-0.009426	1.296067
0.810	3.876924	2.860743	466.543797	6.049399	0.025756	0.199536	-0.005521	1.296641
0.820	3.849578	2.837794	466.368397	6.055054	0.013477	0.194352	-0.002890	1.298341
0.830	3.810056	2.841803	466.196663	6.064242	0.007730	0.189142	-0.001658	1.300790
0.840	3.763461	2.869610	466.072360	6.074201	0.007612	0.183544	-0.001633	1.303274
0.850	3.716275	2.910262	466.041921	6.082234	0.011453	0.177579	-0.002458	1.305083
0.860	3.675496	2.947976	466.140299	6.087263	0.017652	0.171662	-0.003787	1.305887
0.870	3.647373	2.967053	466.375612	6.090665	0.025173	0.166523	-0.005398	1.305957
0.880	3.636065	2.957085	466.718373	6.095827	0.033529	0.163050	-0.007184	1.306104
0.890	3.642739	2.916535	467.101510	6.106474	0.042406	0.162055	-0.009079	1.307312
0.900	3.665159	2.853134	467.434307	6.124525	0.051234	0.163963	-0.010961	1.310243
0.910	3.697553	2.780831	467.627685	6.148657	0.059058	0.168545	-0.012629	1.314862
0.920	3.730870	2.714555	467.622773	6.174426	0.064819	0.174826	-0.013861	1.320386
0.930	3.754013	2.665219	467.412881	6.195992	0.067865	0.181277	-0.014519	1.325593
0.940	3.756417	2.637196	467.050638	6.208537	0.068343	0.186269	-0.014633	1.329307
0.950	3.731408	2.629093	466.635677	6.210219	0.067236	0.188610	-0.014409	1.330850
0.960	3.679004	2.636654	466.284237	6.202778	0.065963	0.187954	-0.014147	1.330257
0.970	3.606810	2.655449	466.090574	6.190751	0.065653	0.184917	-0.014086	1.328229
0.980	3.528425	2.681724	466.096105	6.179813	0.066297	0.180857	-0.014224	1.325867
0.990	3.459876	2.711749	466.279629	6.175003	0.066208	0.177383	-0.014199	1.324313
1.000	3.415520	2.741176	466.571408	6.179477	0.062218	0.175777	-0.013335	1.324444
1.010	3.404805	2.765391	466.882915	6.194073	0.050714	0.176548	-0.010862	1.326687
1.020	3.430507	2.780567	467.138800	6.217668	0.029156	0.179275	-0.006241	1.331011
1.030	3.488280	2.784600	467.298666	6.248025	-0.002624	0.182838	0.000562	1.337052
1.040	3.567431	2.777573	467.361610	6.282669	-0.042036	0.185949	0.008994	1.344284
1.050	3.653279	2.761929	467.354215	6.319337	-0.084526	0.187758	0.018086	1.352151
1.060	3.731255	2.742485	467.309748	6.355877	-0.125246	0.188204	0.026801	1.360099
1.070	3.791521	2.725865	467.249503	6.389921	-0.160784	0.187908	0.034411	1.367561
1.080	3.831753	2.718839	467.174865	6.418909	-0.190200	0.187704	0.040713	1.373984
1.090	3.856371	2.725803	467.072542	6.440724	-0.214972	0.188106	0.046025	1.378956
1.100	3.872774	2.746653	466.928693	6.454613	-0.238045	0.189035	0.050981	1.382355
1.110	3.886918	2.776451	466.743540	6.461776	-0.262444	0.189944	0.056229	1.384438
1.120	3.900693	2.807266	466.538358	6.465261	-0.290027	0.190204	0.062166	1.385794
1.130	3.912100	2.831282	466.351638	6.469217	-0.320803	0.189526	0.068790	1.387197
1.140	3.917465	2.843556	466.227080	6.477792	-0.353034	0.188180	0.075721	1.389407
1.150	3.913989	2.843127	466.198930	6.493955	-0.384097	0.186901	0.082389	1.392958
1.160	3.901425	2.832301	466.279556	6.518575	-0.411824	0.186560	0.088321	1.397997
1.170	3.882653	2.815087	466.452753	6.550135	-0.435790	0.187777	0.093426	1.404244
1.180	3.863365	2.795936	466.675316	6.585304	-0.457946	0.190664	0.098129	1.411110
1.190	3.850822	2.779139	466.887714	6.620181	-0.482167	0.194782	0.103273	1.417939
1.200	3.851773	2.768472	467.031677	6.651661	-0.512809	0.199341	0.109802	1.424242
1.210	3.870199	2.766662	467.068969	6.678435	-0.552948	0.203500	0.118387	1.429861
1.220	3.905860	2.774841	466.994085	6.701324	-0.603201	0.206598	0.129167	1.434991
1.230	3.954263	2.792398	466.835969	6.722853	-0.661606	0.208204	0.141721	1.440089
1.240	4.007974	2.817246	466.648720	6.746153	-0.724503	0.208048	0.155257	1.445660
1.250	4.058815	2.846242	466.495188	6.773586	-0.787885	0.206004	0.168894	1.452016
1.260	4.100327	2.875634	466.428220	6.805668	-0.848651	0.202178	0.181947	1.459103
1.270	4.129748	2.901583	466.474119	6.840807	-0.905336	0.197019	0.194081	1.466492
1.280	4.148687	2.920721	466.623081	6.875996	-0.958103	0.191299	0.205327	1.473565
1.290	4.162065	2.930569	466.831067	6.908113	-1.008078	0.185916	0.215941	1.479789
1.300	4.175654	2.929812	467.034337	6.935242	-1.056330	0.181613	0.226178	1.484953
1.310	4.193410	2.918582	467.172021	6.957417	-1.102950	0.178775	0.236091	1.489262
1.320	4.215904	2.898808	467.207343	6.976402	-1.146645	0.177395	0.245425	1.493213
1.330	4.240522	2.874529	467.138192	6.994588	-1.185022	0.177242	0.253677	1.497327
1.340	4.263103	2.851778	466.993351	7.013596	-1.215444	0.178119	0.260270	1.501862
1.350	4.280072	2.837556	466.818047	7.033344	-1.236128	0.180000	0.264799	1.506656
1.360	4.289955	2.837836	466.657147	7.052127	-1.247005	0.182935	0.267221	1.511201
1.370	4.293520	2.855269	466.543508	7.067605	-1.249937	0.186801	0.267914	1.514887
1.380	4.292648	2.887737	466.494246	7.078108	-1.248130	0.191124	0.267555	1.517298
1.390	4.288835	2.928581	466.512816	7.083610	-1.245015	0.195143	0.266877	1.518417
1.400	4.282358	2.968530	466.592866	7.085996	-1.243123	0.198043	0.266426	1.518668
1.410	4.272589	2.998696	466.721119	7.088640	-1.243492	0.199212	0.266431	1.518817
1.420	4.259061	3.013595	466.879102	7.095506	-1.245752	0.198396	0.266825	1.519774
1.430	4.242327	3.013003	467.044656	7.110000	-1.248706	0.195759	0.267363	1.522338
1.440	4.223845	3.001765	467.193615	7.133817	-1.251006	0.191891	0.267770	1.526951
1.450	4.205018	2.987509	467.301491	7.166128	-1.251643	0.187738	0.267845	1.533513
1.460	4.186274	2.977392	467.345716	7.203509	-1.250188	0.184378	0.267508	1.541366
1.470	4.167015	2.975602	467.309973	7.240862	-1.246834	0.182685	0.266811	1.549477
1.480	4.146640	2.982807	467.191212	7.273092	-1.242268	0.182991	0.265901	1.556770
1.490	4.126037	2.997384	467.006782	7.296886	-1.237445	0.184944	0.264974	1.562480
1.500	4.108462	3.017127	466.795995	7.311781	-1.233348	0.187604	0.264216	1.566376
1.510	4.098784	3.040119	466.611399	7.320087	-1.230783	0.189754	0.263770	1.568776
1.520	4.101075	3.064384	466.500983	7.325818	-1.230158	0.190294	0.263699	1.570376
1.530	4.115823	3.087140	466.489467	7.333176	-1.231239	0.188576	0.263937	1.571992
1.540	4.138635	3.104827	466.568804	7.345203	-1.232971	0.184561	0.264263	1.574302
1.550	4.161527	3.114272	466.703015	7.363017	-1.233645	0.178778	0.264332	1.577666
1.560	4.176182	3.114279	466.844270	7.385796	-1.231529	0.172118	0.263799	1.582068
1.570	4.177170	3.106450	466.951396	7.411378	-1.225767	0.165572	0.262504	1.587184
1.580	4.163318	3.094546	467.002149	7.437188	-1.217008	0.159997	0.260600	1.592538
1.590	4.136833	3.082737	466.995515	7.461136	-1.207264	0.155985	0.258517	1.597689
1.600	4.101283	3.073744	466.946136	7.482224	-1.199010	0.153874	0.256777	1.602374
1.610	4.059950	3.067846	466.875807	7.500709	-1.194005	0.153868	0.255744	1.606575
1.620	4.015419	3.063087	466.806097	7.517861	-1.192541	0.156142	0.255468	1.610489
1.630	3.970141	3.056412	466.753648	7.535402	-1.193500	0.160829	0.255702	1.614428
1.640	3.927026	3.045129	466.727770	7.554781	-1.195128	0.167858	0.256065	1.618670
1.650	3.889313	3.028058	466.729452	7.576420	-1.196019	0.176744	0.256255	1.623300
1.660	3.859765	3.005887	466.751415	7.599131	-1.195812	0.186441	0.256199	1.628090
1.670	3.839807	2.980598	466.779674	7.620041	-1.195347	0.195418	0.256084	1.632471
1.680	3.829073	2.954252	466.797326	7.635347	-1.196322	0.202007	0.256283	1.635688
1.690	3.825489	2.927883	466.790392	7.641856	-1.200711	0.204934	0.257227	1.637106
1.700	3.825764	2.901298	466.753712	7.638675	-1.210208	0.203812	0.259282	1.636554
1.710	3.826243	2.873966	466.693502	7.628098	-1.225906	0.199333	0.262679	1.634498
1.720	3.824127	2.846357	466.624258	7.615011	-1.248156	0.193011	0.267486	1.631936
1.730	3.818901	2.820741	466.561312	7.605062	-1.276463	0.186550	0.273590	1.630024
1.740	3.813318	2.800823	466.513522	7.602507	-1.309401	0.181144	0.280678	1.629643
1.750	3.812972	2.790295	466.480449	7.608809	-1.344725	0.177051	0.288270	1.631110
1.760	3.824039	2.791080	466.455113	7.622536	-1.379875	0.173620	0.295822	1.634141
1.770	3.849936	2.802118	466.429813	7.640412	-1.412768	0.169704	0.302890	1.638063
1.780	3.888711	2.819297	466.401275	7.658932	-1.442526	0.164264	0.309289	1.642134
1.790	3.932858	2.836603	466.373028	7.675796	-1.469765	0.156924	0.315148	1.645849
1.800	3.971900	2.848109	466.355168	7.690554	-1.496268	0.148318	0.320843	1.649077
1.810	3.996301	2.850083	466.361676	7.704251	-1.524127	0.140073	0.326812	1.651991
1.820	4.000663	2.842339	466.404652	7.718391	-1.554675	0.134355	0.333332	1.654870
1.830	3.984881	2.828259	466.486190	7.733976	-1.587713	0.133035	0.340356	1.657922
1.840	3.953401	2.813535	466.592093	7.751185	-1.621476	0.136815	0.347515	1.661234
1.850	3.913576	2.804193	466.692817	7.769700	-1.653423	0.144781	0.354285	1.664842
1.860	3.874020	2.804578	466.753677	7.789248	-1.681561	0.154694	0.360267	1.668813
1.870	3.843201	2.815805	466.750344	7.809963	-1.705686	0.163894	0.365439	1.673264
1.880	3.828198	2.835237	466.681789	7.832430	-1.727918	0.170355	0.370256	1.678323
1.890	3.833676	2.857427	466.573587	7.857422	-1.752123	0.173353	0.375530	1.684069
1.900	3.861309	2.876371	466.469169	7.885501	-1.782340	0.173500	0.382092	1.690466
1.910	3.909647	2.888077	466.412152	7.916661	-1.820920	0.172264	0.390410	1.697353
1.920	3.974243	2.892140	466.427131	7.950232	-1.867342	0.171280	0.400350	1.704496
1.930	4.048058	2.891516	466.507906	7.985090	-1.918249	0.171750	0.411193	1.711673
1.940	4.122374	2.890700	466.619682	8.020039	-1.968632	0.174108	0.421892	1.718753
1.950	4.188242	2.893362	466.715030	8.054161	-2.013509	0.177990	0.431421	1.725713
1.960	4.238110	2.900704	466.755633	8.086936	-2.049419	0.182511	0.439077	1.732584
1.970	4.267213	2.911261	466.728531	8.118122	-2.075216	0.186720	0.444630	1.739367
1.980	4.274516	2.922117	466.649207	8.147508	-2.092039	0.190039	0.448311	1.745960
1.990	4.263096	2.930854	466.551877	8.174705	-2.102680	0.192458	0.450685	1.752154
2.000	4.239707	2.937224	466.473743	8.199160	-2.110746	0.194418	0.452490	1.757689
2.010	4.213342	2.943512	466.441184	8.220385	-2.119907	0.196457	0.454485	1.762363
2.020	4.192963	2.953062	466.462760	8.238303	-2.133327	0.198838	0.457341	1.766122
2.030	4.185151	2.967671	466.529940	8.253469	-2.153276	0.201300	0.461552	1.769119
2.040	4.192574	2.985593	466.623755	8.266978	-2.180837	0.203069	0.467365	1.771658
2.050	4.213903	3.001788	466.723937	8.280015	-2.215677	0.203159	0.474730	1.774071
2.060	4.245196	3.010517	466.816415	8.293319	-2.255946	0.200851	0.483262	1.776570
2.070	4.282185	3.008753	466.895712	8.306909	-2.298464	0.196097	0.492286	1.779179
2.080	4.322450	2.998338	466.961611	8.320169	-2.339272	0.189617	0.500956	1.781767
2.090	4.366229	2.985602	467.013338	8.332104	-2.374537	0.182646	0.508452	1.784126
2.100	4.415182	2.978557	467.046385	8.341616	-2.401659	0.176489	0.514223	1.786036
2.110	4.469785	2.982980	467.054587	8.347899	-2.420281	0.172105	0.518201	1.787350
2.120	4.527240	2.999306	467.034902	8.351059	-2.432791	0.169895	0.520901	1.788102
2.130	4.581612	3.022012	466.989856	8.352625	-2.443953	0.169704	0.523342	1.788609
2.140	4.626349	3.042030	466.925564	8.355445	-2.459644	0.170995	0.526774	1.789460
2.150	4.657655	3.051139	466.848293	8.362784	-2.485079	0.173063	0.532310	1.791328
2.160	4.676603	3.046198	466.763770	8.377083	-2.523161	0.175185	0.540565	1.794716
2.170	4.688674	3.030998	466.679598	8.399122	-2.573453	0.176680	0.551439	1.799762
2.180	4.701076	3.014633	466.606829	8.427994	-2.632089	0.176914	0.564091	1.806230
2.190	4.719495	3.007272	466.557150	8.461741	-2.692692	0.175351	0.577141	1.813656
2.200	4.746014	3.015819	466.536708	8.498166	-2.748172	0.171686	0.589058	1.821543
2.210	4.778901	3.041868	466.541409	8.535443	-2.792942	0.166008	0.598648	1.829515
2.220	4.813883	3.082571	466.558138	8.572414	-2.824834	0.158905	0.605462	1.837373
2.230	4.846093	3.133109	466.572292	8.608747	-2.845827	0.151399	0.609943	1.845105
2.240	4.871976	3.188841	466.577554	8.645113	-2.861129	0.144702	0.613216	1.852878
2.250	4.890602	3.246019	466.581924	8.683216	-2.876871	0.139856	0.616584	1.861027
2.260	4.903937	3.301335	466.605520	8.725350	-2.897436	0.137414	0.620960	1.869963
2.270	4.916044	3.351343	466.669846	8.773322	-2.923668	0.137257	0.626496	1.879985
2.280	4.931556	3.392664	466.782922	8.827209	-2.952794	0.138585	0.632584	1.891074
2.290	4.954137	3.422991	466.927890	8.884756	-2.980063	0.140074	0.638228	1.902811
2.300	4.985513	3.442154	467.062622	8.941941	-3.001267	0.140187	0.642583	1.914506
2.310	5.025218	3.452412	467.133619	8.994482	-3.014849	0.137594	0.645393	1.925462
2.320	5.070729	3.457634	467.099798	9.039487	-3.022555	0.131580	0.647090	1.935237
2.330	5.117794	3.461698	466.954597	9.076395	-3.028379	0.122279	0.648538	1.943742
2.340	5.161086	3.466934	466.733915	9.106783	-3.036492	0.110649	0.650583	1.951172
2.350	5.195248	3.473532	466.504777	9.133209	-3.049296	0.098202	0.653647	1.957795
2.360	5.216077	3.480275	466.340257	9.157728	-3.066498	0.086607	0.657567	1.963744
2.370	5.221610	3.486011	466.292747	9.180842	-3.085401	0.077226	0.661688	1.968901
2.380	5.213086	3.490688	466.376867	9.201361	-3.102061	0.070734	0.665140	1.972946
2.390	5.195489	3.495261	466.567621	9.217178	-3.112801	0.066942	0.667170	1.975529
2.400	5.176996	3.500773	466.812520	9.226530	-3.115609	0.064975	0.667422	1.976496
2.410	5.166845	3.507473	467.051089	9.229122	-3.110933	0.063745	0.666080	1.976041
2.420	5.172233	3.514607	467.233538	9.226588	-3.101527	0.062522	0.663807	1.974727
2.430	5.195657	3.520883	467.332631	9.222093	-3.091285	0.061279	0.661474	1.973347
2.440	5.234027	3.525214	467.346534	9.219291	-3.083485	0.060641	0.659786	1.972688
2.450	5.279963	3.527289	467.293647	9.221049	-3.079174	0.061527	0.658938	1.973288
2.460	5.324607	3.527689	467.202541	9.228491	-3.076497	0.064717	0.658493	1.975266
