Time[s]	Fx[N]	Fy[N]	Fz[N]	Mx[Nm]	My[Nm]	Mz[Nm]	COPx[cm]	COPy[cm]
0.010	-4.348133	2.817533	713.587978	-1.954253	11.382204	-0.917285	-1.595067	-0.273863
0.020	-3.575401	3.063654	711.938054	-2.098904	11.099715	-0.895578	-1.559084	-0.294816
0.030	-2.712265	3.229156	710.445210	-2.275747	10.780504	-0.868319	-1.517429	-0.320327
0.040	-1.712669	3.251420	709.208511	-2.507910	10.402547	-0.832711	-1.466783	-0.353621
0.050	-0.605457	3.099732	708.245123	-2.803601	9.968865	-0.790006	-1.407544	-0.395852
0.060	0.505986	2.781518	707.494315	-3.154632	9.507875	-0.745502	-1.343880	-0.445888
0.070	1.473224	2.339819	706.854795	-3.539860	9.064764	-0.706999	-1.282408	-0.500790
0.080	2.150486	1.842773	706.239122	-3.932085	8.687623	-0.682237	-1.230125	-0.556764
0.090	2.442554	1.367627	705.621922	-4.306057	8.413726	-0.676218	-1.192384	-0.610250
0.100	2.334829	0.983121	705.061863	-4.645190	8.260615	-0.689374	-1.171616	-0.658834
0.110	1.895368	0.734526	704.689279	-4.945181	8.224025	-0.717287	-1.167043	-0.701753
0.120	1.250889	0.634875	704.666276	-5.213751	8.281791	-0.752078	-1.175279	-0.739889
0.130	0.548821	0.664432	705.136007	-5.466836	8.401033	-0.784943	-1.191406	-0.775288
0.140	-0.079318	0.778386	706.178560	-5.722646	8.545795	-0.808886	-1.210147	-0.810368
0.150	-0.541979	0.920458	707.785009	-5.995671	8.683271	-0.820700	-1.226823	-0.847103
0.160	-0.795596	1.038213	709.853954	-6.292677	8.787873	-0.821594	-1.237983	-0.886475
0.170	-0.840014	1.095328	712.209090	-6.611864	8.843239	-0.816416	-1.241663	-0.928360
0.180	-0.707935	1.077309	714.632051	-6.945072	8.842658	-0.811818	-1.237372	-0.971839
0.190	-0.453871	0.989846	716.901483	-7.281762	8.788295	-0.813969	-1.225872	-1.015727
0.200	-0.144522	0.851813	718.828368	-7.613094	8.689269	-0.826506	-1.208810	-1.059098
0.210	0.150692	0.686722	720.280045	-7.934761	8.558601	-0.849360	-1.188232	-1.101622
0.220	0.370811	0.516186	721.190168	-8.247913	8.409484	-0.878856	-1.166056	-1.143653
0.230	0.475822	0.356924	721.556108	-8.558244	8.251878	-0.908971	-1.143622	-1.186082
0.240	0.457053	0.220359	721.427112	-8.873780	8.090518	-0.933229	-1.121460	-1.230031
0.250	0.340685	0.112766	720.886401	-9.202161	7.924919	-0.946480	-1.099330	-1.276506
0.260	0.181187	0.034590	720.030187	-9.548249	7.751255	-0.946058	-1.076518	-1.326090
0.270	0.045274	-0.020903	718.946941	-9.912824	7.565368	-0.932116	-1.052285	-1.378798
0.280	-0.008951	-0.068513	717.701178	-10.292780	7.365906	-0.907248	-1.026319	-1.434132
0.290	0.049480	-0.130284	716.326648	-10.682711	7.156488	-0.875644	-0.999054	-1.491318
0.300	0.214959	-0.232437	714.832752	-11.077159	6.946060	-0.842064	-0.971704	-1.549615
0.310	0.448306	-0.400484	713.223962	-11.472602	6.747157	-0.810911	-0.946008	-1.608555
0.320	0.690730	-0.653737	711.525958	-11.868539	6.572568	-0.785566	-0.923728	-1.668040
0.330	0.883172	-1.000895	709.807732	-12.267668	6.431501	-0.767991	-0.906091	-1.728309
0.340	0.983954	-1.438355	708.189279	-12.675517	6.326585	-0.758533	-0.893347	-1.789849
0.350	0.978983	-1.952242	706.830058	-13.099782	6.252743	-0.755892	-0.884618	-1.853314
0.360	0.882116	-2.523556	705.900722	-13.549295	6.198293	-0.757334	-0.878069	-1.919433
0.370	0.727055	-3.134001	705.546073	-14.032443	6.147884	-0.759260	-0.871365	-1.988877
0.380	0.554811	-3.769418	705.849593	-14.554962	6.086285	-0.758109	-0.862264	-2.062049
0.390	0.401461	-4.419061	706.809042	-15.117441	6.001894	-0.751419	-0.849154	-2.138830
0.400	0.289988	-5.071614	708.329271	-15.713296	5.889003	-0.738751	-0.831393	-2.218360
0.410	0.228018	-5.710937	710.234436	-16.328195	5.748217	-0.722167	-0.809341	-2.298987
0.420	0.211109	-6.314786	712.298604	-16.941732	5.584922	-0.706084	-0.784070	-2.378459
0.430	0.229455	-6.858063	714.290118	-17.531348	5.406308	-0.696467	-0.756878	-2.454374
0.440	0.274839	-7.319562	716.019974	-18.077587	5.218031	-0.699534	-0.728755	-2.524732
0.450	0.344580	-7.689296	717.380438	-18.569074	5.021640	-0.720268	-0.699997	-2.588456
0.460	0.440638	-7.973041	718.361150	-19.005390	4.813392	-0.761100	-0.670052	-2.645659
0.470	0.564817	-8.191624	719.037002	-19.396567	4.584373	-0.821057	-0.637571	-2.697576
0.480	0.713944	-8.374352	719.531681	-19.758949	4.321541	-0.895623	-0.600605	-2.746085
0.490	0.879419	-8.548138	719.968897	-20.108520	4.009420	-0.977494	-0.556888	-2.792971
0.500	1.052740	-8.725844	720.426775	-20.453947	3.632362	-1.058095	-0.504196	-2.839143
0.510	1.234114	-8.898248	720.908736	-20.792010	3.177245	-1.129369	-0.440728	-2.884139
0.520	1.438592	-9.033307	721.337812	-21.107363	2.636300	-1.185107	-0.365474	-2.926141
0.530	1.695194	-9.084208	721.573967	-21.376866	2.009483	-1.221365	-0.278486	-2.962533
0.540	2.038351	-9.004552	721.448201	-21.576813	1.305800	-1.236057	-0.180997	-2.990764
0.550	2.494843	-8.766071	720.804079	-21.690405	0.543019	-1.228360	-0.075335	-3.009196
0.560	3.071531	-8.372696	719.536987	-21.712855	-0.254422	-1.198572	0.035359	-3.017615
0.570	3.749015	-7.865613	717.623477	-21.652620	-1.059041	-1.148548	0.147576	-3.017267
0.580	4.484219	-7.316879	715.136043	-21.528629	-1.844658	-1.082271	0.257945	-3.010424
0.590	5.221381	-6.813326	712.240847	-21.364762	-2.590307	-1.005931	0.363684	-2.999654
0.600	5.907465	-6.435966	709.177633	-21.183644	-3.282652	-0.927179	0.462881	-2.987072
0.610	6.506166	-6.241354	706.223701	-21.001841	-3.916396	-0.853708	0.554555	-2.973823
0.620	7.005285	-6.249974	703.647651	-20.827571	-4.492816	-0.791676	0.638504	-2.959943
0.630	7.414785	-6.443556	701.662243	-20.660794	-5.016997	-0.744607	0.715016	-2.944550
0.640	7.756433	-6.770217	700.387620	-20.494745	-5.494539	-0.713183	0.784500	-2.926200
0.650	8.049398	-7.154642	699.834743	-20.317874	-5.928675	-0.695902	0.847154	-2.903239
0.660	8.298291	-7.510515	699.913835	-20.115546	-6.318735	-0.690196	0.902787	-2.874003
0.670	8.489219	-7.753247	700.465302	-19.871482	-6.660555	-0.693466	0.950876	-2.836897
0.680	8.595869	-7.811958	701.304247	-19.569395	-6.948754	-0.703631	0.990833	-2.790429
0.690	8.593215	-7.639948	702.266802	-19.195393	-7.179977	-0.719078	1.022400	-2.733348
0.700	8.473174	-7.222654	703.246457	-18.741139	-7.355708	-0.738103	1.045964	-2.664946
0.710	8.255223	-6.581669	704.210126	-18.206980	-7.483235	-0.758177	1.062642	-2.585447
0.720	7.986188	-5.773252	705.188219	-17.603697	-7.574081	-0.775463	1.074051	-2.496312
0.730	7.727503	-4.880359	706.242017	-16.951710	-7.640475	-0.784972	1.081849	-2.400269
0.740	7.534159	-3.998604	707.422152	-16.277397	-7.691495	-0.781464	1.087257	-2.300945
0.750	7.434491	-3.218476	708.737051	-15.607338	-7.730810	-0.760856	1.090787	-2.202134
0.760	7.420695	-2.607804	710.145404	-14.962269	-7.757084	-0.721625	1.092323	-2.106930
0.770	7.455296	-2.199187	711.574092	-14.352818	-7.766828	-0.665670	1.091500	-2.017052
0.780	7.490728	-1.986242	712.949845	-13.778503	-7.758377	-0.598288	1.088208	-1.932605
0.790	7.492312	-1.930054	714.227108	-13.230251	-7.735331	-0.527224	1.083035	-1.852387
0.800	7.453691	-1.973565	715.399444	-12.695321	-7.708172	-0.461077	1.077464	-1.774578
0.810	7.398688	-2.058539	716.492796	-12.162724	-7.693525	-0.407559	1.073776	-1.697536
0.820	7.370914	-2.139048	717.547829	-11.627266	-7.711402	-0.372132	1.074688	-1.620417
0.830	7.417630	-2.187536	718.600821	-11.091080	-7.781421	-0.357339	1.082857	-1.543427
0.840	7.575177	-2.193138	719.669537	-10.562624	-7.919217	-0.362806	1.100396	-1.467705
0.850	7.860577	-2.155065	720.745662	-10.054103	-8.133905	-0.385719	1.128540	-1.394959
0.860	8.270180	-2.075153	721.791268	-9.578741	-8.426781	-0.421554	1.167482	-1.327079
0.870	8.783395	-1.953123	722.735892	-9.148861	-8.790988	-0.464969	1.216349	-1.265865
0.880	9.368459	-1.786228	723.474243	-8.774934	-9.211851	-0.510784	1.273280	-1.212888
0.890	9.987707	-1.572762	723.869237	-8.465075	-9.667793	-0.554881	1.335572	-1.169420
0.900	10.601416	-1.317274	723.765978	-8.224473	-10.131998	-0.594796	1.399900	-1.136344
0.910	11.170979	-1.034672	723.017573	-8.054646	-10.574887	-0.629859	1.462604	-1.114032
0.920	11.662600	-0.750896	721.517101	-7.952816	-10.967266	-0.660859	1.520029	-1.102235
0.930	12.051629	-0.499357	719.226585	-7.911862	-11.283591	-0.689376	1.568851	-1.100051
0.940	12.326000	-0.314223	716.195502	-7.921080	-11.504705	-0.716980	1.606364	-1.105994
0.950	12.486880	-0.222805	712.566043	-7.967562	-11.619568	-0.744531	1.630665	-1.118151
0.960	12.545993	-0.239049	708.566058	-8.037562	-11.625897	-0.771827	1.640764	-1.134342
0.970	12.521196	-0.359219	704.491897	-8.117270	-11.529965	-0.797780	1.636636	-1.152216
0.980	12.432964	-0.560342	700.682679	-8.192805	-11.345858	-0.821046	1.619258	-1.169260
0.990	12.303179	-0.802147	697.486340	-8.249876	-11.094141	-0.840745	1.590589	-1.182801
1.000	12.154811	-1.033175	695.217524	-8.273831	-10.799480	-0.856879	1.553396	-1.190107
1.010	12.009100	-1.200792	694.109997	-8.250534	-10.486744	-0.870242	1.510819	-1.188649
1.020	11.877946	-1.262890	694.271578	-8.167873	-10.175743	-0.881945	1.465672	-1.176467
1.030	11.753151	-1.197558	695.654073	-8.017265	-9.875726	-0.892836	1.419632	-1.152479
1.040	11.597905	-1.007354	698.050471	-7.794434	-9.581497	-0.903227	1.372608	-1.116600
1.050	11.346756	-0.716960	701.125775	-7.499118	-9.272921	-0.913160	1.322576	-1.069582
1.060	10.917449	-0.365416	704.478044	-7.133832	-8.918665	-0.923114	1.265996	-1.012641
1.070	10.233261	0.004786	707.715609	-6.702186	-8.483588	-0.934684	1.198728	-0.947017
1.080	9.249987	0.359336	710.530058	-6.207501	-7.937905	-0.950627	1.117181	-0.873644
1.090	7.978946	0.681990	712.745650	-5.652459	-7.265634	-0.973943	1.019387	-0.793054
1.100	6.497256	0.979980	714.333600	-5.040053	-6.470020	-1.006182	0.905742	-0.705560
1.110	4.939587	1.282730	715.390508	-4.375301	-5.574409	-1.045668	0.779212	-0.611596
1.120	3.471529	1.633370	716.090568	-3.666590	-4.618305	-1.086573	0.644933	-0.512029
1.130	2.251413	2.075088	716.627572	-2.925511	-3.649806	-1.119580	0.509303	-0.408233
1.140	1.391934	2.636360	717.162998	-2.164820	-2.716652	-1.134248	0.378805	-0.301859
1.150	0.933047	3.319677	717.791787	-1.395151	-1.858450	-1.122391	0.258912	-0.194367
1.160	0.833750	4.097186	718.531078	-0.621934	-1.101980	-1.081203	0.153366	-0.086556
1.170	0.984736	4.914440	719.330830	0.155879	-0.460265	-1.014827	0.063985	0.021670
1.180	1.238206	5.701027	720.099488	0.944265	0.065274	-0.933651	-0.009065	0.131130
1.190	1.446322	6.384967	720.734348	1.750022	0.481074	-0.851547	-0.066748	0.242811
1.200	1.497033	6.907204	721.146910	2.575592	0.797738	-0.782070	-0.110621	0.357152
1.210	1.337093	7.233163	721.277952	3.414923	1.027409	-0.734966	-0.142443	0.473455
1.220	0.977268	7.359423	721.102053	4.252055	1.182458	-0.714073	-0.163979	0.589661
1.230	0.481296	7.314437	720.624158	5.062937	1.275140	-0.717109	-0.176949	0.702577
1.240	-0.055377	7.153050	719.871283	5.819693	1.317789	-0.737174	-0.183059	0.808435
1.250	-0.530379	6.945749	718.882064	6.495880	1.323224	-0.765294	-0.184067	0.903609
1.260	-0.857437	6.764981	717.696966	7.071309	1.305151	-0.793126	-0.181853	0.985278
1.270	-0.983861	6.671741	716.352351	7.535486	1.278263	-0.815019	-0.178440	1.051924
1.280	-0.899571	6.705479	714.880924	7.889174	1.257744	-0.828948	-0.175938	1.103565
1.290	-0.636107	6.879255	713.318441	8.143809	1.258093	-0.836200	-0.176372	1.141679
1.300	-0.256544	7.180697	711.712859	8.318754	1.291528	-0.840028	-0.181468	1.168836
1.310	0.160337	7.577956	710.130714	8.436912	1.366319	-0.843769	-0.192404	1.188079
1.320	0.537508	8.028731	708.657895	8.519804	1.485187	-0.849042	-0.209577	1.202245
1.330	0.815351	8.489534	707.395952	8.583562	1.643792	-0.854697	-0.232372	1.213403
1.340	0.962866	8.922287	706.456901	8.636807	1.829644	-0.856914	-0.258989	1.222553
1.350	0.982116	9.296525	705.957558	8.680472	2.022118	-0.850418	-0.286436	1.229602
1.360	0.904500	9.587885	706.011472	8.709089	2.194201	-0.830351	-0.310788	1.233562
1.370	0.779687	9.775608	706.715764	8.713134	2.316002	-0.794104	-0.327713	1.232905
1.380	0.660873	9.842232	708.132076	8.682296	2.359346	-0.742521	-0.333179	1.226084
1.390	0.591691	9.777142	710.263661	8.609311	2.302383	-0.680115	-0.324159	1.212129
1.400	0.599265	9.582953	713.033765	8.493443	2.133126	-0.614212	-0.299162	1.191170
1.410	0.694775	9.281265	716.272933	8.342431	1.851149	-0.553245	-0.258442	1.164700
1.420	0.879075	8.913689	719.722610	8.171957	1.467199	-0.504676	-0.203856	1.135432
1.430	1.148648	8.535711	723.057855	8.002458	1.001065	-0.473187	-0.138449	1.106752
1.440	1.497990	8.204224	725.925786	7.853948	0.478465	-0.459744	-0.065911	1.081922
1.450	1.917633	7.962537	727.992311	7.740324	-0.072290	-0.461708	0.009930	1.063243
1.460	2.390557	7.827959	728.989094	7.664925	-0.623431	-0.473773	0.085520	1.051446
1.470	2.891425	7.786256	728.753813	7.618914	-1.150565	-0.489349	0.157881	1.045472
1.480	3.391471	7.794926	727.257321	7.583197	-1.635102	-0.502107	0.224831	1.042712
1.490	3.867613	7.794296	724.611446	7.533291	-2.065940	-0.507488	0.285110	1.039632
1.500	4.310447	7.722947	721.053255	7.445338	-2.439913	-0.503932	0.338382	1.032564
1.510	4.725594	7.532610	716.907232	7.301118	-2.760661	-0.493376	0.385079	1.018419
1.520	5.126896	7.198130	712.533877	7.090612	-3.036072	-0.480744	0.426095	0.995126
1.530	5.525087	6.720417	708.277522	6.812087	-3.274979	-0.472448	0.462386	0.961782
1.540	5.917951	6.123269	704.425143	6.470706	-3.484096	-0.474464	0.494601	0.918580
1.550	6.286460	5.447013	701.182977	6.076974	-3.666048	-0.490720	0.522838	0.866674
1.560	6.597776	4.741812	698.672194	5.645786	-3.818901	-0.522428	0.546594	0.808074
1.570	6.813092	4.061720	696.940551	5.195887	-3.937139	-0.568493	0.564917	0.745528
1.580	6.897229	3.458781	695.983630	4.748843	-4.013669	-0.626634	0.576690	0.682321
1.590	6.827378	2.976235	695.767457	4.326644	-4.042234	-0.694519	0.580975	0.621852
1.600	6.599244	2.641490	696.245567	3.947857	-4.019567	-0.770294	0.577320	0.567021
1.610	6.229501	2.461200	697.367484	3.623368	-3.946759	-0.852286	0.565951	0.519578
1.620	5.753884	2.420866	699.079355	3.353524	-3.829603	-0.938176	0.547807	0.479706
1.630	5.221031	2.489330	701.319095	3.128169	-3.677995	-1.024305	0.524440	0.446041
1.640	4.683470	2.626240	704.008516	2.929870	-3.504564	-1.105737	0.497801	0.416170
1.650	4.188142	2.789616	707.045012	2.739221	-3.322734	-1.177199	0.469947	0.387418
1.660	3.768821	2.941605	710.295858	2.540385	-3.144581	-1.234500	0.442714	0.357652
1.670	3.441814	3.052143	713.598344	2.325239	-2.978996	-1.275754	0.417461	0.325847
1.680	3.205210	3.101442	716.767762	2.095087	-2.830688	-1.301846	0.394924	0.292297
1.690	3.041363	3.082241	719.612884	1.859708	-2.700287	-1.315992	0.375242	0.258432
1.700	2.922137	3.001630	721.956474	1.634197	-2.585459	-1.322549	0.358118	0.226357
1.710	2.816309	2.880855	723.657567	1.434650	-2.482627	-1.325497	0.343067	0.198250
1.720	2.698085	2.751444	724.631477	1.273889	-2.388810	-1.327098	0.329659	0.175798
1.730	2.555146	2.647668	724.862278	1.158302	-2.303154	-1.327179	0.317737	0.159796
1.740	2.394091	2.597437	724.402781	1.086510	-2.227749	-1.323277	0.307529	0.149987
1.750	2.240971	2.614608	723.360587	1.050092	-2.167401	-1.311645	0.299629	0.145169
1.760	2.135336	2.695077	721.874209	1.036050	-2.128316	-1.288775	0.294832	0.143522
1.770	2.118295	2.817692	720.087378	1.030166	-2.116128	-1.252902	0.293871	0.143061
1.780	2.217898	2.949765	718.130288	1.020208	-2.134089	-1.204916	0.297173	0.142064
1.790	2.437397	3.055819	716.113205	0.997887	-2.182179	-1.148351	0.304725	0.139348
1.800	2.751826	3.107202	714.131787	0.959007	-2.257437	-1.088470	0.316109	0.134290
1.810	3.115113	3.089706	712.277651	0.902060	-2.355175	-1.030866	0.330654	0.126644
1.820	3.474693	3.006749	710.644995	0.826302	-2.470348	-0.980080	0.347621	0.116275
1.830	3.786759	2.877027	709.325933	0.730488	-2.598320	-0.938653	0.366308	0.102983
1.840	4.025362	2.727274	708.393730	0.612763	-2.734747	-0.906804	0.386049	0.086500
1.850	4.182504	2.582607	707.881729	0.471407	-2.874860	-0.882721	0.406122	0.066594
1.860	4.261244	2.458019	707.770541	0.305640	-3.012856	-0.863290	0.425683	0.043184
1.870	4.267008	2.354121	707.993311	0.115843	-3.142077	-0.845010	0.443800	0.016362
1.880	4.202357	2.258195	708.459534	-0.097097	-3.256283	-0.824780	0.459629	-0.013705
1.890	4.067926	2.149253	709.087661	-0.333115	-3.351748	-0.800360	0.472685	-0.046978
1.900	3.868463	2.004695	709.831432	-0.594337	-3.429336	-0.770528	0.483120	-0.083729
1.910	3.620030	1.806308	710.687426	-0.885543	-3.495530	-0.735016	0.491852	-0.124604
1.920	3.353767	1.544245	711.680275	-1.212947	-3.561727	-0.694382	0.500467	-0.170434
1.930	3.113364	1.218511	712.832387	-1.581380	-3.641772	-0.649901	0.510888	-0.221845
1.940	2.946162	0.838257	714.131769	-1.991031	-3.748382	-0.603468	0.524887	-0.278804
1.950	2.890588	0.419413	715.512107	-2.435416	-3.889632	-0.557464	0.543615	-0.340374
1.960	2.964522	-0.018833	716.854203	-2.901704	-4.066729	-0.514461	0.567302	-0.404783
1.970	3.159488	-0.458090	718.008928	-3.373388	-4.273889	-0.476796	0.595242	-0.469825
1.980	3.443594	-0.884301	718.832672	-3.834202	-4.500306	-0.446115	0.626058	-0.533393
1.990	3.772486	-1.289452	719.221328	-4.271722	-4.733436	-0.423057	0.658133	-0.593937
2.000	4.103879	-1.670688	719.130198	-4.679250	-4.962250	-0.407237	0.690035	-0.650682
2.010	4.409764	-2.027313	718.573867	-5.055341	-5.179225	-0.397549	0.720764	-0.703524
2.020	4.681519	-2.357167	717.609328	-5.401502	-5.380532	-0.392751	0.749786	-0.752708
2.030	4.926503	-2.654135	716.313004	-5.719404	-5.564768	-0.392034	0.776863	-0.798450
2.040	5.158564	-2.908061	714.763114	-6.009026	-5.731092	-0.395236	0.801817	-0.840702
2.050	5.387412	-3.107327	713.033090	-6.268447	-5.877616	-0.402496	0.824312	-0.879124
2.060	5.611560	-3.243081	711.194229	-6.495007	-6.000690	-0.413566	0.843748	-0.913254
2.070	5.817185	-3.313071	709.321964	-6.686911	-6.095293	-0.427290	0.859313	-0.942719
2.080	5.982445	-3.323122	707.500819	-6.844215	-6.156252	-0.441730	0.870141	-0.967379
2.090	6.084936	-3.285463	705.825482	-6.968648	-6.179664	-0.454954	0.875523	-0.987305
2.100	6.109051	-3.214826	704.396906	-7.062430	-6.163943	-0.466088	0.875067	-1.002621
2.110	6.050321	-3.124247	703.313650	-7.126772	-6.110292	-0.476022	0.868786	-1.013313
2.120	5.915338	-3.022425	702.660725	-7.160881	-6.022722	-0.487369	0.857131	-1.019109
2.130	5.718073	-2.913368	702.499609	-7.161981	-5.907653	-0.503665	0.840948	-1.019500
2.140	5.475047	-2.797726	702.861730	-7.126382	-5.773065	-0.528139	0.821366	-1.013909
2.150	5.201845	-2.674222	703.744658	-7.051192	-5.627167	-0.562585	0.799604	-1.001953
2.160	4.911939	-2.539890	705.109215	-6.935893	-5.476988	-0.606782	0.776757	-0.983662
2.170	4.617055	-2.389206	706.878024	-6.783021	-5.327454	-0.658639	0.753660	-0.959574
2.180	4.327733	-2.213627	708.939013	-6.597624	-5.181412	-0.714860	0.730869	-0.930633
2.190	4.053397	-2.003150	711.157322	-6.385902	-5.040572	-0.771816	0.708784	-0.897959
2.200	3.802022	-1.750272	713.395146	-6.153977	-4.906908	-0.826304	0.687825	-0.862632
2.210	3.579726	-1.455032	715.533701	-5.907678	-4.783914	-0.876058	0.668580	-0.825632
2.220	3.390626	-1.128821	717.488380	-5.653487	-4.677226	-0.919899	0.651889	-0.787955
2.230	3.237161	-0.794765	719.210394	-5.399938	-4.594406	-0.957542	0.638812	-0.750815
2.240	3.120859	-0.483835	720.675057	-5.158334	-4.543925	-0.989122	0.630510	-0.715764
2.250	3.043167	-0.227764	721.863760	-4.941962	-4.533631	-1.014677	0.628045	-0.684611
2.260	3.005930	-0.051378	722.749107	-4.763820	-4.569125	-1.033830	0.632187	-0.659125
2.270	3.011220	0.032963	723.289931	-4.633631	-4.652546	-1.045862	0.643248	-0.640633
2.280	3.060500	0.027325	723.437819	-4.555263	-4.782162	-1.050174	0.661033	-0.629669
2.290	3.153566	-0.053377	723.151930	-4.525419	-4.952900	-1.046925	0.684905	-0.625791
2.300	3.288073	-0.185337	722.416311	-4.534015	-5.157609	-1.037479	0.713939	-0.627618
2.310	3.460216	-0.340745	721.253490	-4.566081	-5.388685	-1.024349	0.747128	-0.633076
2.320	3.666217	-0.492255	719.729529	-4.604540	-5.639640	-1.010653	0.783578	-0.639760
2.330	3.903564	-0.616171	717.948811	-4.632985	-5.906241	-0.999366	0.822655	-0.645308
2.340	4.171171	-0.694109	716.040680	-4.637859	-6.186891	-0.992659	0.864042	-0.647709
2.350	4.468583	-0.713568	714.142150	-4.609890	-6.482114	-0.991463	0.907678	-0.645514
2.360	4.794931	-0.668161	712.380086	-4.544895	-6.793276	-0.995264	0.953603	-0.637987
