Time[s]	Fx[N]	Fy[N]	Fz[N]	Mx[Nm]	My[Nm]	Mz[Nm]	COPx[cm]	COPy[cm]
0.010	11.680967	0.618265	675.535127	9.015571	-25.157812	1.001389	3.724131	1.334582
0.020	11.175804	0.794961	675.497171	9.126868	-24.607637	0.992304	3.642893	1.351133
0.030	10.659781	0.944662	675.747702	9.229908	-24.048791	0.982959	3.558842	1.365881
0.040	10.119498	1.048647	676.535985	9.317279	-23.471713	0.973021	3.469396	1.377204
0.050	9.545059	1.101847	678.001069	9.382856	-22.867181	0.961967	3.372735	1.383900
0.060	8.932292	1.112176	680.151687	9.422587	-22.227560	0.948889	3.268030	1.385366
0.070	8.284688	1.094845	682.868584	9.435001	-21.548427	0.932277	3.155574	1.381672
0.080	7.614929	1.064405	685.920451	9.421102	-20.830325	0.909971	3.036843	1.373498
0.090	6.945203	1.027901	688.989188	9.383474	-20.079893	0.879494	2.914399	1.361919
0.100	6.305014	0.981926	691.706911	9.324704	-19.309330	0.838794	2.791548	1.348072
0.110	5.725581	0.914689	693.708912	9.245653	-18.533624	0.787136	2.671672	1.332786
0.120	5.230932	0.811930	694.702325	9.144204	-17.765845	0.725773	2.557332	1.316277
0.130	4.827026	0.663578	694.542252	9.015036	-17.011783	0.658109	2.449352	1.297982
0.140	4.491804	0.467714	693.298703	8.850719	-16.265816	0.589218	2.346148	1.276610
0.150	4.170414	0.230010	691.291869	8.643924	-15.509834	0.524854	2.243601	1.250402
0.160	3.779886	-0.040670	689.073733	8.390041	-14.716310	0.470262	2.135666	1.217582
0.170	3.225421	-0.337791	687.343340	8.089232	-13.855381	0.429141	2.015787	1.176884
0.180	2.426395	-0.660405	686.800019	7.747104	-12.904465	0.403058	1.878926	1.128000
0.190	1.345663	-1.012075	687.959889	7.373713	-11.857860	0.391302	1.723627	1.071823
0.200	0.012545	-1.396085	690.980752	6.981300	-10.733366	0.391059	1.553352	1.010346
0.210	-1.470147	-1.809904	695.552363	6.581627	-9.573412	0.397757	1.376375	0.946245
0.220	-2.940909	-2.242137	700.904407	6.183986	-8.439479	0.405678	1.204084	0.882287
0.230	-4.215103	-2.673559	705.955988	5.794679	-7.400601	0.408970	1.048309	0.820827
0.240	-5.131994	-3.081739	709.580066	5.418106	-6.518967	0.403038	0.918708	0.763565
0.250	-5.598082	-3.447355	710.904099	5.058659	-5.836928	0.385886	0.821057	0.711581
0.260	-5.611395	-3.759598	709.543931	4.722081	-5.369399	0.358851	0.756740	0.665509
0.270	-5.258128	-4.018467	705.690069	4.415330	-5.103726	0.326341	0.723225	0.625676
0.280	-4.683404	-4.233252	700.024356	4.145044	-5.006390	0.294720	0.715174	0.592128
0.290	-4.047327	-4.418281	693.510264	3.915582	-5.033604	0.270763	0.725815	0.564603
0.300	-3.482120	-4.587889	687.140611	3.727768	-5.141868	0.260231	0.748299	0.542504
0.310	-3.064611	-4.752139	681.727734	3.578873	-5.295291	0.266863	0.776746	0.524971
0.320	-2.811130	-4.913961	677.788945	3.463653	-5.468386	0.291888	0.806798	0.511022
0.330	-2.692326	-5.068068	675.534666	3.375835	-5.645088	0.333979	0.835647	0.499728
0.340	-2.657936	-5.202056	674.929664	3.309466	-5.816078	0.389625	0.861731	0.490342
0.350	-2.659531	-5.299758	675.781330	3.259846	-5.976551	0.453833	0.884391	0.482382
0.360	-2.662625	-5.346045	677.814245	3.224024	-6.125617	0.521062	0.903731	0.475650
0.370	-2.646080	-5.331439	680.711194	3.200936	-6.267164	0.586140	0.920679	0.470234
0.380	-2.593306	-5.254986	684.126182	3.191269	-6.410900	0.644981	0.937093	0.466474
0.390	-2.483167	-5.124631	687.691286	3.197132	-6.572099	0.694948	0.955676	0.464908
0.400	-2.287194	-4.955390	691.037800	3.221579	-6.769255	0.734891	0.979578	0.466194
0.410	-1.974887	-4.766243	693.835989	3.268059	-7.020067	0.764978	1.011776	0.471013
0.420	-1.523990	-4.576563	695.840178	3.339750	-7.336975	0.786518	1.054405	0.479959
0.430	-0.930495	-4.402684	696.920052	3.438760	-7.723643	0.801831	1.108254	0.493422
0.440	-0.214031	-4.255175	697.067798	3.565205	-8.173386	0.814043	1.172538	0.511457
0.450	0.583244	-4.137529	696.384341	3.716387	-8.669971	0.826646	1.244998	0.533669
0.460	1.403713	-4.046667	695.054572	3.886426	-9.190708	0.842789	1.322300	0.559154
0.470	2.185280	-3.975046	693.318358	4.066737	-9.711168	0.864526	1.400679	0.586561
0.480	2.873662	-3.913480	691.438127	4.247369	-10.210457	0.892359	1.476699	0.614280
0.490	3.433313	-3.853682	689.662223	4.418687	-10.675738	0.925272	1.547966	0.640703
0.500	3.854447	-3.789905	688.187307	4.572668	-11.104756	0.961218	1.613624	0.664451
0.510	4.154202	-3.719710	687.128817	4.703447	-11.505583	0.997838	1.674443	0.684507
0.520	4.371376	-3.644062	686.510248	4.807450	-11.893528	1.033162	1.732462	0.700274
0.530	4.556024	-3.566811	686.277041	4.883632	-12.286035	1.066067	1.790244	0.711612
0.540	4.756830	-3.493493	686.330872	4.933860	-12.697072	1.096349	1.849993	0.718875
0.550	5.009840	-3.429646	686.570857	4.962936	-13.132792	1.124397	1.912809	0.722859
0.560	5.331549	-3.379145	686.925736	4.977665	-13.589880	1.150677	1.978362	0.724629
0.570	5.717764	-3.343123	687.366647	4.985039	-14.056989	1.175327	2.045050	0.725237
0.580	6.147745	-3.319775	687.899416	4.990267	-14.518572	1.198056	2.110566	0.725436
0.590	6.591796	-3.304986	688.543158	4.995633	-14.959563	1.218336	2.172640	0.725537
0.600	7.019785	-3.293478	689.305946	5.000703	-15.369286	1.235757	2.229675	0.725469
0.610	7.407971	-3.280101	690.167667	5.003665	-15.743454	1.250368	2.281106	0.724993
0.620	7.742235	-3.261152	691.075829	5.003029	-16.084041	1.262795	2.327392	0.723948
0.630	8.017564	-3.235706	691.954505	4.998923	-16.397633	1.274018	2.369756	0.722435
0.640	8.235655	-3.206763	692.722024	4.993406	-16.693342	1.284932	2.409818	0.720838
0.650	8.403064	-3.181568	693.310393	4.989576	-16.981206	1.295958	2.449293	0.719674
0.660	8.530797	-3.170215	693.678994	4.989813	-17.271379	1.306928	2.489823	0.719326
0.670	8.634327	-3.182384	693.817782	4.994139	-17.573706	1.317205	2.532899	0.719806
0.680	8.732410	-3.223294	693.740909	4.999866	-17.896944	1.325942	2.579773	0.720711
0.690	8.844013	-3.290871	693.476719	5.002960	-18.247302	1.332389	2.631278	0.721432
0.700	8.984247	-3.375697	693.060276	5.000467	-18.626729	1.336156	2.687606	0.721505
0.710	9.161142	-3.463814	692.530339	4.992567	-19.031949	1.337305	2.748175	0.720917
0.720	9.374874	-3.541150	691.928517	4.983182	-19.455107	1.336204	2.811722	0.720187
0.730	9.619833	-3.597947	691.297311	4.978949	-19.886067	1.333229	2.876630	0.720233
0.740	9.888424	-3.631692	690.675308	4.987201	-20.315376	1.328472	2.941379	0.722076
0.750	10.174745	-3.647323	690.090216	5.013866	-20.736493	1.321601	3.004896	0.726552
0.760	10.476610	-3.654156	689.552020	5.062023	-21.146230	1.311908	3.066662	0.734103
0.770	10.795313	-3.660659	689.048778	5.131536	-21.543302	1.298480	3.126528	0.744728
0.780	11.133471	-3.669741	688.546718	5.219693	-21.925821	1.280375	3.184362	0.758074
0.790	11.491801	-3.677246	687.995529	5.322297	-22.288947	1.256763	3.239694	0.773595
0.800	11.865822	-3.674338	687.339479	5.434622	-22.623694	1.227075	3.291488	0.790675
0.810	12.243487	-3.652005	686.534466	5.552015	-22.917255	1.191213	3.338107	0.808702
0.820	12.604474	-3.604948	685.569296	5.670447	-23.154619	1.149843	3.377429	0.827115
0.830	12.921361	-3.533088	684.486127	5.787336	-23.320913	1.104619	3.407069	0.845501
0.840	13.162451	-3.440593	683.391901	5.902504	-23.403787	1.058171	3.424651	0.863707
0.850	13.295919	-3.333498	682.451942	6.018664	-23.395299	1.013703	3.428124	0.881918
0.860	13.294991	-3.217258	681.861027	6.140893	-23.292938	0.974210	3.416083	0.900608
0.870	13.143413	-3.095413	681.795838	6.275136	-23.099535	0.941577	3.388043	0.920383
0.880	12.839826	-2.969985	682.362346	6.426354	-22.822126	0.915992	3.344576	0.941780
0.890	12.399469	-2.843271	683.556555	6.597018	-22.470280	0.896000	3.287260	0.965102
0.900	11.852225	-2.719636	685.254314	6.786494	-22.054659	0.879199	3.218463	0.990361
0.910	11.237327	-2.605767	687.236985	6.991499	-21.586342	0.863232	3.141033	1.017335
0.920	10.596391	-2.508905	689.247207	7.207496	-21.076774	0.846577	3.057941	1.045705
0.930	9.967061	-2.433965	691.056030	7.430504	-20.537779	0.828794	2.971941	1.075239
0.940	9.378935	-2.380948	692.515965	7.658540	-19.981111	0.810159	2.885292	1.105901
0.950	8.851980	-2.343601	693.579968	7.891992	-19.417372	0.790953	2.799587	1.137863
0.960	8.396347	-2.309693	694.282844	8.132832	-18.854452	0.770873	2.715673	1.171400
0.970	8.012092	-2.263107	694.699418	8.383262	-18.295795	0.748952	2.633627	1.206747
0.980	7.687904	-2.187645	694.902401	8.644569	-17.738903	0.724013	2.552719	1.243998
0.990	7.399351	-2.071619	694.938392	8.916517	-17.174601	0.695292	2.471385	1.283066
1.000	7.108475	-1.911528	694.827626	9.197170	-16.587661	0.662805	2.387306	1.323662
1.010	6.766897	-1.713197	694.580922	9.482946	-15.959060	0.627248	2.297653	1.365276
1.020	6.323412	-1.489982	694.220713	9.768934	-15.269525	0.589590	2.199520	1.407180
1.030	5.735098	-1.259031	693.792746	10.049449	-14.503629	0.550687	2.090484	1.448480
1.040	4.979170	-1.037238	693.360727	10.318530	-13.653574	0.511251	1.969188	1.488191
1.050	4.061905	-0.838202	692.986394	10.570071	-12.721837	0.472262	1.835799	1.525293
1.060	3.021073	-0.670770	692.706462	10.797687	-11.721933	0.435610	1.692193	1.558768
1.070	1.919950	-0.539056	692.519098	10.994763	-10.676779	0.404478	1.541731	1.587648
1.080	0.833739	-0.443305	692.386143	11.155107	-9.614683	0.383000	1.388630	1.611111
1.090	-0.167957	-0.380844	692.249039	11.274110	-8.563840	0.375118	1.237104	1.628621
1.100	-1.037220	-0.346601	692.051272	11.349911	-7.547015	0.383135	1.090528	1.640039
1.110	-1.756989	-0.333297	691.759045	11.383964	-6.578297	0.406667	0.950952	1.645654
1.120	-2.340014	-0.332110	691.373832	11.380794	-5.663054	0.442540	0.819102	1.646113
1.130	-2.818436	-0.334551	690.933694	11.347234	-4.800869	0.485625	0.694838	1.642304
1.140	-3.228871	-0.335200	690.503342	11.291693	-3.990003	0.530208	0.577840	1.635284
1.150	-3.599241	-0.333850	690.155904	11.223760	-3.231580	0.571347	0.468239	1.626264
1.160	-3.941835	-0.335601	689.952370	11.153921	-2.532057	0.605793	0.366990	1.616622
1.170	-4.253615	-0.348583	689.926541	11.092922	-1.903446	0.632308	0.275891	1.607841
1.180	-4.521856	-0.380221	690.081489	11.050582	-1.361495	0.651489	0.197295	1.601344
1.190	-4.731746	-0.433584	690.397774	11.034306	-0.922454	0.665290	0.133612	1.598253
1.200	-4.872818	-0.505237	690.847110	11.047767	-0.599346	0.676492	0.086755	1.599162
1.210	-4.942238	-0.585463	691.402454	11.090233	-0.398696	0.688222	0.057665	1.604020
1.220	-4.944384	-0.660802	692.038367	11.156812	-0.318687	0.703462	0.046050	1.612167
1.230	-4.887289	-0.717856	692.722143	11.239647	-0.349357	0.724497	0.050432	1.622533
1.240	-4.777573	-0.746808	693.402286	11.329729	-0.474901	0.752358	0.068489	1.633933
1.250	-4.616078	-0.743595	694.003185	11.418879	-0.677430	0.786533	0.097612	1.645364
1.260	-4.396312	-0.710426	694.432051	11.501375	-0.941067	0.825128	0.135516	1.656228
1.270	-4.106592	-0.654792	694.598072	11.574797	-1.255201	0.865491	0.180709	1.666402
1.280	-3.735031	-0.587279	694.437483	11.639914	-1.615984	0.905074	0.232704	1.676164
1.290	-3.275094	-0.518660	693.935374	11.699680	-2.025722	0.942144	0.291918	1.685990
1.300	-2.729236	-0.456867	693.136523	11.757698	-2.490285	0.976062	0.359278	1.696303
1.310	-2.109241	-0.404754	692.141690	11.816621	-3.015168	1.007040	0.435629	1.707255
1.320	-1.433736	-0.359656	691.089947	11.877003	-3.601201	1.035600	0.521090	1.718590
1.330	-0.724739	-0.315308	690.130869	11.936884	-4.241169	1.062072	0.614546	1.729655
1.340	-0.004891	-0.265440	689.393055	11.992163	-4.918593	1.086388	0.713467	1.739525
1.350	0.704445	-0.207408	688.956995	12.037586	-5.609492	1.108162	0.814201	1.747219
1.360	1.385094	-0.144141	688.839447	12.068059	-6.286931	1.126916	0.912685	1.751941
1.370	2.024261	-0.083547	688.993735	12.079862	-6.926894	1.142296	1.005364	1.753262
1.380	2.615880	-0.035728	689.326577	12.071421	-7.513216	1.154211	1.089936	1.751190
1.390	3.159450	-0.009358	689.727746	12.043404	-8.039581	1.162846	1.165617	1.746110
1.400	3.656159	-0.008920	690.104519	11.998225	-8.507922	1.168539	1.232845	1.738610
1.410	4.104277	-0.034006	690.409958	11.939212	-8.924299	1.171576	1.292609	1.729293
1.420	4.496676	-0.080873	690.654723	11.869701	-9.294467	1.172072	1.345747	1.718616
1.430	4.822229	-0.145427	690.897026	11.792226	-9.621367	1.170048	1.392591	1.706799
1.440	5.070664	-0.226164	691.213342	11.707875	-9.905622	1.165630	1.433077	1.693815
1.450	5.238788	-0.325492	691.660541	11.615899	-10.148492	1.159179	1.467265	1.679422
1.460	5.335287	-0.448633	692.244147	11.513822	-10.355491	1.151206	1.495930	1.663260
1.470	5.381786	-0.600570	692.904996	11.398273	-10.538645	1.142167	1.520937	1.644998
1.480	5.409502	-0.782576	693.529142	11.266489	-10.716118	1.132262	1.545158	1.624516
1.490	5.452772	-0.990091	693.977715	11.117936	-10.909136	1.121389	1.571972	1.602059
1.500	5.541725	-1.212965	694.127379	10.955283	-11.137321	1.109274	1.604507	1.578281
1.510	5.696104	-1.437815	693.908925	10.784230	-11.414113	1.095758	1.644901	1.554128
1.520	5.921435	-1.651230	693.331668	10.612296	-11.743922	1.081139	1.693839	1.530623
1.530	6.208230	-1.842475	692.485439	10.447282	-12.121938	1.066401	1.750497	1.508664
1.540	6.534527	-2.004966	691.519046	10.296148	-12.536441	1.053133	1.812884	1.488917
1.550	6.871503	-2.136612	690.601752	10.164466	-12.972541	1.043127	1.878440	1.471827
1.560	7.190966	-2.239420	689.879792	10.055988	-13.415996	1.037805	1.944686	1.457643
1.570	7.472742	-2.318572	689.441627	9.971884	-13.856013	1.037753	2.009744	1.446371
1.580	7.709856	-2.381088	689.302573	9.909869	-14.286457	1.042579	2.072596	1.437666
1.590	7.909880	-2.434296	689.412160	9.863966	-14.705404	1.051106	2.133035	1.430779
1.600	8.091728	-2.484435	689.678856	9.825470	-15.113447	1.061743	2.191375	1.424644
1.610	8.278478	-2.535661	690.000909	9.785042	-15.511391	1.072785	2.248025	1.418120
1.620	8.488297	-2.589615	690.291777	9.735125	-15.898075	1.082542	2.303095	1.410291
1.630	8.726705	-2.645619	690.493767	9.671692	-16.268949	1.089395	2.356133	1.400692
1.640	8.983300	-2.701471	690.580425	9.594664	-16.615904	1.091932	2.406078	1.389362
1.650	9.234421	-2.754718	690.552606	9.507075	-16.928485	1.089220	2.451440	1.376734
1.660	9.450833	-2.804110	690.432861	9.413611	-17.196206	1.081098	2.490641	1.363436
1.670	9.607550	-2.850680	690.259961	9.319217	-17.411237	1.068355	2.522417	1.350103
1.680	9.692056	-2.897629	690.083082	9.228189	-17.570502	1.052677	2.546143	1.337258
1.690	9.707740	-2.948512	689.954326	9.143835	-17.676335	1.036349	2.561957	1.325281
1.700	9.671244	-3.004238	689.918657	9.068688	-17.735299	1.021732	2.570636	1.314458
1.710	9.605020	-3.060466	690.002080	9.005120	-17.755554	1.010605	2.573261	1.305086
1.720	9.528518	-3.107079	690.201567	8.955984	-17.743977	1.003594	2.570840	1.297590
1.730	9.451893	-3.130325	690.481778	8.924687	-17.704419	0.999943	2.564067	1.292530
1.740	9.374688	-3.116958	690.782115	8.914334	-17.637997	0.997758	2.553337	1.290470
1.750	9.289538	-3.058748	691.033399	8.926323	-17.545205	0.994604	2.538981	1.291735
1.760	9.188753	-2.955601	691.178744	8.959353	-17.428702	0.988158	2.521591	1.296243
1.770	9.070560	-2.816133	691.190897	9.009598	-17.295332	0.976738	2.502251	1.303489
1.780	8.942304	-2.655715	691.079967	9.071914	-17.156336	0.959654	2.482540	1.312716
1.790	8.819458	-2.492842	690.889857	9.141261	-17.025539	0.937377	2.464291	1.323114
1.800	8.721129	-2.344931	690.685369	9.213585	-16.916068	0.911454	2.449171	1.333977
1.810	8.664008	-2.224483	690.533535	9.286005	-16.836689	0.884151	2.438215	1.344758
1.820	8.657233	-2.136505	690.483447	9.356598	-16.789002	0.857887	2.431485	1.355079
1.830	8.700024	-2.077959	690.550416	9.423978	-16.766571	0.834603	2.428001	1.364705
1.840	8.782549	-2.039562	690.710911	9.486667	-16.756440	0.815277	2.425970	1.373464
1.850	8.888980	-2.009337	690.911969	9.542421	-16.742553	0.799730	2.423254	1.381134
1.860	9.001158	-1.976491	691.092311	9.587980	-16.709709	0.786793	2.417869	1.387366
1.870	9.101592	-1.934252	691.206041	9.619700	-16.646522	0.774785	2.408330	1.391727
1.880	9.175173	-1.881124	691.237963	9.635038	-16.546463	0.762111	2.393743	1.393881
1.890	9.209528	-1.820826	691.204116	9.634208	-16.407065	0.747775	2.373693	1.393830
1.900	9.194409	-1.761110	691.138877	9.621089	-16.228053	0.731607	2.348016	1.392063
1.910	9.120930	-1.711252	691.075654	9.602771	-16.009407	0.714124	2.316593	1.389540
1.920	8.981569	-1.678321	691.029883	9.587826	-15.750142	0.696140	2.279227	1.387469
1.930	8.771452	-1.663383	690.991630	9.583914	-15.448098	0.678353	2.235642	1.386980
1.940	8.490541	-1.659527	690.931389	9.595644	-15.100461	0.661131	2.185523	1.388798
1.950	8.145385	-1.652998	690.817023	9.623591	-14.704398	0.644507	2.128552	1.393074
1.960	7.748792	-1.627337	690.634086	9.664922	-14.257387	0.628294	2.064391	1.399427
1.970	7.316636	-1.569040	690.399128	9.715398	-13.757228	0.612169	1.992649	1.407215
1.980	6.862592	-1.472542	690.158403	9.771765	-13.202040	0.595650	1.912900	1.415873
1.990	6.392993	-1.342409	689.971680	9.833305	-12.590543	0.577989	1.824791	1.425175
2.000	5.904205	-1.191822	689.888449	9.901649	-11.922740	0.558122	1.728213	1.435254
2.010	5.383922	-1.038190	689.927467	9.978845	-11.200846	0.534926	1.623482	1.446361
2.020	4.816144	-0.898084	690.068817	10.064590	-10.430030	0.507843	1.511448	1.458491
2.030	4.188120	-0.783744	690.261366	10.153921	-9.618457	0.477644	1.393451	1.471026
2.040	3.496643	-0.702128	690.440992	10.236531	-8.776340	0.446863	1.271121	1.482608
2.050	2.750985	-0.656058	690.550414	10.298168	-7.914288	0.419522	1.146084	1.491298
2.060	1.970953	-0.646198	690.552503	10.323661	-7.041734	0.400146	1.019725	1.494986
2.070	1.180752	-0.672694	690.434117	10.300341	-6.166211	0.392421	0.893092	1.491864
2.080	0.401436	-0.735798	690.203256	10.220536	-5.293734	0.398102	0.766982	1.480801
2.090	-0.354457	-0.835468	689.884833	10.082509	-4.429907	0.416597	0.642123	1.461477
2.100	-1.083613	-0.970500	689.518264	9.890055	-3.581024	0.445352	0.519352	1.434343
2.110	-1.787918	-1.137948	689.155682	9.651354	-2.754728	0.480711	0.399725	1.400461
2.120	-2.468071	-1.333204	688.857217	9.377589	-1.960201	0.518802	0.284558	1.361325
2.130	-3.118185	-1.550571	688.681596	9.081544	-1.208067	0.556150	0.175417	1.318685
2.140	-3.723829	-1.783952	688.674106	8.776352	-0.510219	0.589928	0.074087	1.274384
2.150	-4.263875	-2.027516	688.856075	8.474542	0.120356	0.617989	-0.017472	1.230234
2.160	-4.714741	-2.276263	689.219259	8.187388	0.669792	0.638838	-0.097181	1.187922
2.170	-5.055096	-2.526212	689.726562	7.924385	1.123877	0.651707	-0.162945	1.148917
2.180	-5.269665	-2.773874	690.319136	7.692713	1.469107	0.656764	-0.212816	1.114371
2.190	-5.351666	-3.015062	690.928871	7.496752	1.694248	0.655323	-0.245213	1.085025
2.200	-5.303739	-3.243759	691.493519	7.337877	1.792158	0.649821	-0.259172	1.061164
2.210	-5.137142	-3.451830	691.969450	7.214675	1.761468	0.643417	-0.254559	1.042629
2.220	-4.869058	-3.629884	692.336393	7.123494	1.607600	0.639325	-0.232199	1.028906
2.230	-4.518609	-3.768952	692.591672	7.059118	1.342539	0.640185	-0.193843	1.019232
2.240	-4.103002	-3.862449	692.737366	7.015396	0.983003	0.647751	-0.141901	1.012706
2.250	-3.635119	-3.907927	692.768648	6.985880	0.547166	0.662974	-0.078983	1.008400
2.260	-3.122886	-3.908174	692.671047	6.964629	0.050638	0.686245	-0.007311	1.005474
2.270	-2.569655	-3.871314	692.428667	6.947101	-0.497118	0.717529	0.071793	1.003295
2.280	-1.974610	-3.809807	692.038697	6.930739	-1.094536	0.756294	0.158161	1.001496
2.290	-1.333126	-3.738397	691.524248	6.914896	-1.746741	0.801401	0.252593	0.999950
2.300	-0.638112	-3.671213	690.938799	6.900101	-2.461153	0.851143	0.356204	0.998656
2.310	0.116601	-3.618589	690.359468	6.887035	-3.241105	0.903427	0.469481	0.997601
2.320	0.931047	-3.584604	689.870830	6.875663	-4.079888	0.955980	0.591399	0.996660
2.330	1.793963	-3.566434	689.544560	6.864877	-4.957837	1.006454	0.719002	0.995567
2.340	2.680000	-3.555942	689.421800	6.852727	-5.843830	1.052487	0.847642	0.993982
2.350	3.550865	-3.543083	689.503841	6.837089	-6.700632	1.091835	0.971805	0.991595
2.360	4.360583	-3.520053	689.753311	6.816345	-7.491961	1.122650	1.086180	0.988229
2.370	5.063738	-3.484790	690.104830	6.789702	-8.188847	1.143816	1.186609	0.983865
2.380	5.624510	-3.442453	690.482069	6.757090	-8.773612	1.155156	1.270650	0.978605
2.390	6.023775	-3.403887	690.816593	6.718906	-9.240916	1.157432	1.337680	0.972603
