Time[s]	Fx[N]	Fy[N]	Fz[N]	Mx[Nm]	My[Nm]	Mz[Nm]	COPx[cm]	COPy[cm]
0.010	14.114194	-5.018538	642.614130	3.016624	-13.740007	1.173810	2.138143	0.469430
0.020	14.061089	-5.090136	643.979072	3.316940	-13.411911	1.160959	2.082663	0.515070
0.030	13.991300	-5.157241	645.074128	3.629451	-13.074894	1.142906	2.026882	0.562641
0.040	13.878278	-5.212595	645.639465	3.965969	-12.716564	1.115213	1.969608	0.614270
0.050	13.685900	-5.243737	645.475889	4.336429	-12.320593	1.074902	1.908761	0.671819
0.060	13.373738	-5.232915	644.487989	4.746724	-11.869521	1.021121	1.841698	0.736511
0.070	12.908945	-5.159261	642.731938	5.196062	-11.350527	0.955545	1.765981	0.808434
0.080	12.280721	-5.002713	640.451762	5.674719	-10.762092	0.882331	1.680391	0.886049
0.090	11.511701	-4.749001	638.081741	6.163246	-10.118750	0.807537	1.585808	0.965902
0.100	10.661175	-4.395009	636.195646	6.634012	-9.451605	0.738068	1.485644	1.042763
0.110	9.817375	-3.953467	635.398294	7.055361	-8.803615	0.680365	1.385527	1.110384
0.120	9.079400	-3.455302	636.178701	7.397763	-8.220460	0.639130	1.292162	1.162844
0.130	8.532873	-2.947897	638.766594	7.640432	-7.739573	0.616410	1.211643	1.196123
0.140	8.226199	-2.488468	643.041975	7.776391	-7.380918	0.611278	1.147813	1.209313
0.150	8.155495	-2.133249	648.533552	7.814176	-7.142745	0.620237	1.101369	1.204899
0.160	8.264699	-1.924814	654.510926	7.775469	-7.003729	0.638338	1.070071	1.187982
0.170	8.462515	-1.881246	660.141342	7.689541	-6.930495	0.660738	1.049850	1.164832
0.180	8.650959	-1.991058	664.660620	7.586466	-6.887614	0.684121	1.036260	1.141404
0.190	8.754912	-2.215971	667.508526	7.491259	-6.846581	0.707340	1.025692	1.122272
0.200	8.741677	-2.500759	668.398720	7.420450	-6.791062	0.730967	1.016020	1.110183
0.210	8.624407	-2.786862	667.320003	7.381646	-6.717530	0.756027	1.006643	1.106163
0.220	8.450628	-3.025432	664.486516	7.375433	-6.632113	0.782648	0.998081	1.109945
0.230	8.282578	-3.185847	660.263369	7.398194	-6.545534	0.809372	0.991352	1.120491
0.240	8.177462	-3.257787	655.091246	7.444413	-6.467994	0.833491	0.987342	1.136393
0.250	8.173309	-3.247881	649.424210	7.507866	-6.405329	0.852121	0.986309	1.156080
0.260	8.282386	-3.174050	643.685365	7.581963	-6.357101	0.863375	0.987610	1.177899
0.270	8.491302	-3.060490	638.239493	7.660051	-6.316706	0.867016	0.989708	1.200184
0.280	8.765873	-2.934259	633.379901	7.736238	-6.273074	0.864407	0.990412	1.221422
0.290	9.059149	-2.822566	629.326204	7.806853	-6.213197	0.857903	0.987278	1.240510
0.300	9.321415	-2.749494	626.229065	7.872046	-6.124660	0.850033	0.978022	1.257055
0.310	9.510607	-2.731823	624.177353	7.936759	-5.997601	0.842705	0.960881	1.271555
0.320	9.600536	-2.774843	623.202979	8.010161	-5.825736	0.836619	0.934806	1.285321
0.330	9.584119	-2.869681	623.279159	8.103041	-5.606221	0.831000	0.899472	1.300066
0.340	9.470046	-2.993492	624.310875	8.223311	-5.338213	0.823763	0.855057	1.317182
0.350	9.273957	-3.113087	626.122572	8.370684	-5.020353	0.812206	0.801816	1.336908
0.360	9.007685	-3.191666	628.454406	8.532257	-4.647849	0.794169	0.739568	1.357657
0.370	8.671016	-3.197389	630.980272	8.680970	-4.210476	0.769401	0.667291	1.375791
0.380	8.249479	-3.111820	633.355889	8.778487	-3.692998	0.740608	0.583084	1.386027
0.390	7.719766	-2.936125	635.294222	8.782887	-3.079026	0.713567	0.484661	1.382491
0.400	7.062104	-2.693389	636.652002	8.659832	-2.357946	0.695940	0.370367	1.360214
0.410	6.276358	-2.426619	637.500119	8.393996	-1.533001	0.694927	0.240471	1.316705
0.420	5.396199	-2.193220	638.146945	7.996498	-0.627516	0.714485	0.098334	1.253081
0.430	4.494487	-2.057014	639.090873	7.504709	0.313813	0.753211	-0.049103	1.174279
0.440	3.674158	-2.078310	640.897995	6.973502	1.230409	0.803955	-0.191982	1.088083
0.450	3.043263	-2.302206	644.029890	6.460564	2.057534	0.855659	-0.319478	1.003147
0.460	2.680028	-2.746266	648.673943	6.010994	2.740848	0.896898	-0.422531	0.926659
0.470	2.601466	-3.390603	654.638601	5.646681	3.248619	0.919653	-0.496246	0.862565
0.480	2.751828	-4.174916	661.357140	5.363874	3.576923	0.921652	-0.540846	0.811040
0.490	3.020440	-5.006260	668.001526	5.138882	3.746165	0.906349	-0.560802	0.769292
0.500	3.283371	-5.777646	673.664997	4.938925	3.791098	0.880833	-0.562757	0.733143
0.510	3.449024	-6.392635	677.551557	4.733791	3.748932	0.852927	-0.553306	0.698661
0.520	3.484824	-6.787968	679.119529	4.504525	3.649987	0.828871	-0.537459	0.663289
0.530	3.413667	-6.947086	678.153220	4.247102	3.513223	0.812340	-0.518057	0.626275
0.540	3.287020	-6.901120	674.764564	3.971019	3.346402	0.804744	-0.495936	0.588504
0.550	3.153857	-6.718184	669.343967	3.694310	3.148967	0.806134	-0.470456	0.551930
0.560	3.043583	-6.484729	662.483410	3.437167	2.915468	0.816022	-0.440082	0.518831
0.570	2.969188	-6.284101	654.888509	3.216143	2.638312	0.833682	-0.402864	0.491098
0.580	2.943107	-6.177798	647.287859	3.040286	2.309880	0.857935	-0.356855	0.469696
0.590	2.991200	-6.194139	640.345072	2.909868	1.924647	0.886741	-0.300564	0.454422
0.600	3.153020	-6.326708	634.582134	2.817685	1.481626	0.916961	-0.233481	0.444022
0.610	3.466478	-6.541773	630.326410	2.752204	0.986595	0.944609	-0.156521	0.436632
0.620	3.945662	-6.791351	627.692054	2.701221	0.453038	0.965651	-0.072175	0.430342
0.630	4.565383	-7.027632	626.598729	2.654576	-0.099111	0.977087	0.015817	0.423648
0.640	5.262437	-7.214905	626.820041	2.605043	-0.646916	0.977891	0.103206	0.415597
0.650	5.954294	-7.336380	628.046110	2.547529	-1.168949	0.969461	0.186125	0.405628
0.660	6.566526	-7.394943	629.943187	2.477660	-1.649085	0.955417	0.261783	0.393315
0.670	7.056040	-7.408563	632.198693	2.391194	-2.078211	0.940792	0.328727	0.378235
0.680	7.420115	-7.402475	634.548661	2.285161	-2.453611	0.930790	0.386670	0.360124
0.690	7.689287	-7.400889	636.791751	2.160398	-2.776982	0.929404	0.436089	0.339263
0.700	7.910081	-7.420757	638.796333	2.023880	-3.052462	0.938295	0.477846	0.316827
0.710	8.127011	-7.469073	640.504276	1.888980	-3.285604	0.956269	0.512971	0.294921
0.720	8.371089	-7.543753	641.929229	1.772619	-3.483255	0.979569	0.542623	0.276139
0.730	8.656775	-7.636718	643.143639	1.689795	-3.653683	1.003018	0.568098	0.262740
0.740	8.984430	-7.737138	644.251518	1.647376	-3.806219	1.021724	0.590797	0.255704
0.750	9.343534	-7.833406	645.351826	1.639796	-3.950189	1.032797	0.612098	0.254093
0.760	9.713375	-7.913907	646.504739	1.649037	-4.093446	1.036445	0.633166	0.255070
0.770	10.061052	-7.967892	647.714875	1.649632	-4.241175	1.035970	0.654790	0.254685
0.780	10.339567	-7.987737	648.939956	1.617156	-4.395787	1.036655	0.677380	0.249200
0.790	10.490411	-7.972413	650.122147	1.536867	-4.558449	1.043919	0.701168	0.236397
0.800	10.454553	-7.930532	651.227238	1.409089	-4.732064	1.061423	0.726638	0.216374
0.810	10.192449	-7.880957	652.270331	1.249403	-4.924642	1.089787	0.755000	0.191547
0.820	9.708152	-7.849774	653.311083	1.083905	-5.151298	1.126335	0.788491	0.165910
0.830	9.067179	-7.863644	654.416018	0.941472	-5.433219	1.165911	0.830239	0.143865
0.840	8.396507	-7.940870	655.602874	0.845847	-5.793103	1.202467	0.883630	0.129018
0.850	7.860664	-8.082799	656.792686	0.810204	-6.248295	1.230911	0.951334	0.123358
0.860	7.618937	-8.269043	657.793437	0.835736	-6.804208	1.248616	1.034399	0.127051
0.870	7.779088	-8.459391	658.325815	0.914180	-7.450647	1.256101	1.131757	0.138864
0.880	8.366048	-8.603155	658.084362	1.032688	-8.162435	1.256603	1.240333	0.156923
0.890	9.317435	-8.653647	656.813917	1.178919	-8.903954	1.254652	1.355628	0.179491
0.900	10.505652	-8.583003	654.376571	1.344694	-9.635865	1.254140	1.472526	0.205492
0.910	11.775678	-8.391743	650.789447	1.527558	-10.321844	1.256703	1.586050	0.234724
0.920	12.983530	-8.109143	646.225996	1.730250	-10.933673	1.261084	1.691927	0.267747
0.930	14.023460	-7.784101	640.987642	1.958437	-11.453918	1.263759	1.786917	0.305534
0.940	14.839032	-7.469885	635.461698	2.217329	-11.876319	1.260530	1.868928	0.348932
0.950	15.420056	-7.208356	630.081309	2.508166	-12.204567	1.248407	1.936983	0.398070
0.960	15.790991	-7.019118	625.294107	2.825782	-12.450287	1.227022	1.991109	0.451913
0.970	15.996362	-6.896872	621.534653	3.158207	-12.630732	1.199023	2.032185	0.508131
0.980	16.086710	-6.817082	619.189713	3.488563	-12.766208	1.169246	2.061760	0.563408
0.990	16.106682	-6.747132	618.549616	3.798618	-12.876983	1.142909	2.081803	0.614117
1.000	16.086298	-6.658718	619.751127	4.072854	-12.979700	1.123552	2.094341	0.657176
1.010	16.036466	-6.537458	622.729967	4.301867	-13.083963	1.111688	2.101065	0.690808
1.020	15.949569	-6.387067	627.205703	4.484329	-13.190320	1.104883	2.103029	0.714969
1.030	15.805173	-6.227309	632.713747	4.627142	-13.290792	1.099201	2.100601	0.731317
1.040	15.579947	-6.086773	638.681550	4.743930	-13.372234	1.091218	2.093725	0.742769
1.050	15.259868	-5.993034	644.528111	4.852279	-13.421536	1.079503	2.082382	0.752842
1.060	14.851423	-5.963384	649.756865	4.970363	-13.430774	1.064858	2.067046	0.764957
1.070	14.387325	-5.998807	654.015793	5.113464	-13.400240	1.049352	2.048917	0.781856
1.080	13.922651	-6.082696	657.112293	5.290984	-13.338114	1.034877	2.029807	0.805187
1.090	13.520496	-6.184332	658.987561	5.504687	-13.256895	1.022198	2.011706	0.835325
1.100	13.231369	-6.265891	659.668532	5.749036	-13.168054	1.011028	1.996162	0.871504
1.110	13.074576	-6.291118	659.219749	6.013934	-13.077037	1.000868	1.983714	0.912281
1.120	13.029875	-6.233743	657.712413	6.289204	-12.980543	0.991850	1.973589	0.956224
1.130	13.043375	-6.083836	655.217289	6.569367	-12.866993	0.984885	1.963775	1.002624
1.140	13.045281	-5.850255	651.817371	6.857118	-12.719846	0.981018	1.951443	1.052000
1.150	12.972345	-5.557561	647.629524	7.164129	-12.522332	0.980425	1.933564	1.106208
1.160	12.786748	-5.237183	642.823382	7.508495	-12.261816	0.981661	1.907494	1.168050
1.170	12.485460	-4.915355	637.629030	7.909099	-11.932286	0.981556	1.871352	1.240392
1.180	12.097857	-4.602594	632.329555	8.378331	-11.534252	0.975847	1.824089	1.324994
1.190	11.673039	-4.289473	627.238838	8.915436	-11.072292	0.960359	1.765243	1.421378
1.200	11.261117	-3.950745	622.669413	9.502781	-10.551342	0.932396	1.694534	1.526136
1.210	10.894657	-3.556291	618.899747	10.106473	-9.973332	0.891912	1.611462	1.632974
1.220	10.576803	-3.085080	616.152494	10.681393	-9.335693	0.842037	1.515160	1.733563
1.230	10.280723	-2.537682	614.591715	11.179480	-8.632588	0.788659	1.404605	1.819009
1.240	9.960849	-1.943415	614.337704	11.559326	-7.858603	0.739053	1.279199	1.881591
1.250	9.571431	-1.359549	615.487629	11.794916	-7.013540	0.699878	1.139510	1.916353
1.260	9.084620	-0.862263	618.125325	11.881362	-6.106298	0.675202	0.987874	1.922161
1.270	8.500565	-0.531479	622.307052	11.835876	-5.156108	0.665251	0.828547	1.901935
1.280	7.846000	-0.433267	628.020531	11.693255	-4.190467	0.666375	0.667250	1.861922
1.290	7.163395	-0.603798	635.128629	11.496801	-3.240493	0.672228	0.510210	1.810153
1.300	6.496627	-1.038375	643.320964	11.287281	-2.335322	0.675760	0.363010	1.754533
1.310	5.879072	-1.688279	652.099829	11.093374	-1.497407	0.671369	0.229628	1.701177
1.320	5.327131	-2.467059	660.817758	10.926565	-0.740145	0.656580	0.112004	1.653491
1.330	4.839118	-3.265850	668.765826	10.781793	-0.068425	0.632819	0.010232	1.612193
1.340	4.398565	-3.974741	675.291645	10.642946	0.518261	0.605119	-0.076746	1.576052
1.350	3.981848	-4.504977	679.912169	10.490706	1.021441	0.580848	-0.150231	1.542950
1.360	3.570074	-4.806230	682.385540	10.309881	1.439754	0.567753	-0.210988	1.510859
1.370	3.162601	-4.874533	682.719989	10.094205	1.767143	0.571752	-0.258839	1.478528
1.380	2.785986	-4.748901	681.121537	9.847786	1.993923	0.595070	-0.292741	1.445819
1.390	2.491496	-4.497775	677.905689	9.583450	2.110388	0.635342	-0.311310	1.413685
1.400	2.338872	-4.199463	673.409847	9.318991	2.111616	0.686175	-0.313571	1.383851
1.410	2.371967	-3.922805	667.936988	9.072801	2.001688	0.739139	-0.299682	1.358332
1.420	2.597578	-3.713904	661.741697	8.860346	1.795794	0.786518	-0.271374	1.338943
1.430	2.977757	-3.591916	655.049513	8.692372	1.519429	0.823674	-0.231956	1.326979
1.440	3.438817	-3.552947	648.090003	8.574849	1.204797	0.849986	-0.185900	1.323095
1.450	3.892215	-3.578353	641.125390	8.509913	0.885374	0.868010	-0.138097	1.327340
1.460	4.258245	-3.643281	634.465263	8.497013	0.589973	0.881462	-0.092987	1.339240
1.470	4.484332	-3.722903	628.467276	8.533587	0.337612	0.893207	-0.053720	1.357841
1.480	4.554007	-3.795870	623.527029	8.614835	0.134054	0.904242	-0.021499	1.381630
1.490	4.487567	-3.845905	620.055831	8.732461	-0.029424	0.913896	0.004745	1.408335
1.500	4.337714	-3.862879	618.438927	8.872995	-0.174700	0.920790	0.028249	1.434741
1.510	4.182099	-3.844188	618.968870	9.017048	-0.332604	0.923942	0.053735	1.456785
1.520	4.111393	-3.795950	621.761748	9.140972	-0.535985	0.923651	0.086204	1.470173
1.530	4.210549	-3.732677	626.679884	9.221322	-0.811111	0.921974	0.129430	1.471456
1.540	4.534380	-3.674353	633.292821	9.240847	-1.169741	0.922512	0.184708	1.459174
1.550	5.084780	-3.641362	640.902660	9.193411	-1.604817	0.929328	0.250399	1.434447
1.560	5.800980	-3.649294	648.640682	9.085336	-2.091847	0.945230	0.322497	1.400673
1.570	6.571372	-3.705920	655.616080	8.932356	-2.595866	0.970212	0.395943	1.362437
1.580	7.265755	-3.811223	661.076239	8.753605	-3.081532	1.000906	0.466139	1.324145
1.590	7.776051	-3.959491	664.532123	8.565333	-3.522746	1.031406	0.530109	1.288927
1.600	8.049016	-4.141832	665.815510	8.376764	-3.908572	1.055081	0.587035	1.258121
1.610	8.098935	-4.348318	665.060415	8.189088	-4.243910	1.066607	0.638124	1.231330
1.620	7.997843	-4.569919	662.627004	7.997086	-4.545427	1.063499	0.685971	1.206876
1.630	7.849197	-4.800362	659.001599	7.791968	-4.834879	1.046809	0.733667	1.182390
1.640	7.754787	-5.037372	654.706009	7.564033	-5.132586	1.020855	0.783953	1.155333
1.650	7.785028	-5.282618	650.235769	7.304602	-5.453187	0.992115	0.838648	1.123377
1.660	7.961275	-5.540133	646.027726	7.007585	-5.804484	0.967536	0.898488	1.084719
1.670	8.255501	-5.813723	642.442730	6.671268	-6.188745	0.952763	0.963315	1.038422
1.680	8.606884	-6.104293	639.746677	6.300274	-6.604964	0.950771	1.032434	0.984808
1.690	8.948124	-6.407989	638.084017	5.906803	-7.050582	0.961186	1.104961	0.925709
1.700	9.230366	-6.715549	637.454464	5.509931	-7.522008	0.980457	1.180007	0.864365
1.710	9.437128	-7.012918	637.713451	5.132384	-8.014315	1.002915	1.256727	0.804810
1.720	9.583777	-7.283258	638.610255	4.795424	-8.521051	1.022565	1.334312	0.750916
1.730	9.705900	-7.510614	639.857373	4.513592	-9.034876	1.035035	1.412014	0.705406
1.740	9.843738	-7.684619	641.205195	4.291310	-9.548932	1.038910	1.489216	0.669257
1.750	10.029475	-7.804382	642.491302	4.122588	-10.058171	1.035855	1.565495	0.641657
1.760	10.281002	-7.879326	643.646172	3.993854	-10.559716	1.029546	1.640609	0.620505
1.770	10.601932	-7.926121	644.657702	3.888646	-11.051835	1.023979	1.714373	0.603211
1.780	10.984899	-7.962822	645.514820	3.792334	-11.531860	1.021956	1.786459	0.587490
1.790	11.414668	-8.002779	646.158365	3.695283	-11.994005	1.024377	1.856202	0.571885
1.800	11.869229	-8.051005	646.462881	3.593847	-12.428149	1.030512	1.922484	0.555925
1.810	12.319591	-8.104477	646.258576	3.489652	-12.820287	1.038886	1.983770	0.539978
1.820	12.730699	-8.155931	645.385695	3.388117	-13.154714	1.048152	2.038272	0.524976
1.830	13.065710	-8.199086	643.761594	3.296947	-13.417480	1.057439	2.084231	0.512138
1.840	13.294061	-8.232702	641.436993	3.224793	-13.600263	1.066160	2.120280	0.502745
1.850	13.401089	-8.261601	638.621366	3.179851	-13.703547	1.073651	2.145802	0.497924
1.860	13.394940	-8.294218	635.666285	3.168186	-13.737971	1.079110	2.161192	0.498404
1.870	13.306386	-8.337650	633.007865	3.192054	-13.723104	1.081924	2.167920	0.504268
1.880	13.179729	-8.392312	631.082505	3.249055	-13.683771	1.082101	2.168301	0.514838
1.890	13.057142	-8.448808	630.239659	3.332940	-13.644938	1.080352	2.165040	0.528837
1.900	12.962619	-8.489021	630.676661	3.436206	-13.626717	1.077630	2.160650	0.544844
1.910	12.892969	-8.491371	632.411895	3.553543	-13.641133	1.074310	2.157001	0.561903
1.920	12.820803	-8.438060	635.297481	3.684547	-13.691656	1.069529	2.155157	0.579972
1.930	12.709084	-8.321179	639.059068	3.834285	-13.775412	1.061142	2.155577	0.599989
1.940	12.531117	-8.145340	643.345430	4.011240	-13.886741	1.046474	2.158520	0.623497
1.950	12.286920	-7.926070	647.774888	4.223437	-14.020336	1.023583	2.164384	0.651991
1.960	12.008416	-7.684672	651.973049	4.474456	-14.172725	0.992465	2.173821	0.686295
1.970	11.751084	-7.441367	655.601752	4.761078	-14.341971	0.955584	2.187604	0.726215
1.980	11.575938	-7.209154	658.381315	5.073443	-14.526399	0.917457	2.206381	0.770593
1.990	11.529700	-6.990765	660.107889	5.397404	-14.723211	0.883462	2.230425	0.817655
2.000	11.630975	-6.779955	660.665747	5.717915	-14.927473	0.858351	2.259459	0.865478
2.010	11.866690	-6.566329	660.032260	6.022129	-15.131612	0.845063	2.292556	0.912399
2.020	12.198504	-6.341131	658.273446	6.301292	-15.325595	0.844242	2.328150	0.957245
2.030	12.575422	-6.101077	655.530722	6.551203	-15.497945	0.854503	2.364183	0.999374
2.040	12.947545	-5.848825	652.003079	6.771640	-15.637499	0.873187	2.398378	1.038590
2.050	13.276589	-5.590870	647.929763	6.965358	-15.735458	0.897219	2.428575	1.075017
2.060	13.540938	-5.335053	643.576168	7.136961	-15.787065	0.923826	2.453022	1.108954
2.070	13.735418	-5.089444	639.222071	7.291664	-15.792370	0.951015	2.470561	1.140709
2.080	13.867674	-4.862733	635.148953	7.434067	-15.755788	0.977790	2.480645	1.170445
2.090	13.953380	-4.664904	631.622505	7.567411	-15.684500	1.004086	2.483208	1.198091
2.100	14.011429	-4.506765	628.867473	7.693885	-15.585975	1.030461	2.478420	1.223451
2.110	14.058997	-4.397735	627.035608	7.816135	-15.465128	1.057609	2.466388	1.246522
2.120	14.106162	-4.342466	626.173315	7.939521	-15.321811	1.085831	2.446896	1.267943
2.130	14.150907	-4.337590	626.201055	8.074032	-15.149338	1.114595	2.419245	1.289367
2.140	14.176573	-4.369959	626.917725	8.234629	-14.934632	1.142258	2.382232	1.313510
2.150	14.153727	-4.417323	628.037969	8.439083	-14.660197	1.165990	2.334285	1.343722
2.160	14.046696	-4.451683	629.259587	8.703408	-14.307725	1.182041	2.273740	1.383119
2.170	13.822764	-4.444526	630.345115	9.036195	-13.862679	1.186415	2.199221	1.433531
2.180	13.460716	-4.372382	631.192127	9.433927	-13.318735	1.175956	2.110092	1.494620
2.190	12.956002	-4.221176	631.866558	9.879318	-12.680766	1.149546	2.006874	1.563513
2.200	12.321834	-3.988644	632.584328	10.343715	-11.965200	1.108909	1.891479	1.635152
2.210	11.586979	-3.684614	633.644049	10.793012	-11.197228	1.058583	1.767116	1.703324
2.220	10.790863	-3.329065	635.330630	11.195008	-10.405383	1.004884	1.637790	1.762076
2.230	9.975669	-2.948266	637.820098	11.525581	-9.615148	0.954164	1.507502	1.807027
2.240	9.175899	-2.570113	641.116805	11.771745	-8.843923	0.910972	1.379456	1.836131
2.250	8.408826	-2.220397	645.044216	11.931085	-8.099411	0.876870	1.255636	1.849654
2.260	7.671671	-1.921244	649.291737	12.008280	-7.382108	0.850465	1.136948	1.849443
2.270	6.949558	-1.691638	653.499170	12.010233	-6.690745	0.828708	1.023834	1.837834
2.280	6.231895	-1.548756	657.346499	11.941664	-6.028154	0.808867	0.917044	1.816647
2.290	5.528368	-1.508558	660.616182	11.802872	-5.404824	0.790242	0.818149	1.786646
2.300	4.874598	-1.584612	663.208367	11.590569	-4.838499	0.774711	0.729559	1.747651
2.310	4.323158	-1.785053	665.110694	11.301401	-4.350092	0.765807	0.654040	1.699176
2.320	3.924146	-2.108677	666.343715	10.936561	-3.957781	0.766715	0.593955	1.641279
2.330	3.705084	-2.541822	666.910732	10.505309	-3.671733	0.778218	0.550558	1.575220
2.340	3.659608	-3.057668	666.774201	10.025714	-3.491399	0.797743	0.523625	1.503615
2.350	3.749461	-3.618833	665.865454	9.522285	-3.406115	0.820104	0.511532	1.430061
2.360	3.918288	-4.182845	664.118988	9.021647	-3.398425	0.839629	0.511719	1.358438
2.370	4.111347	-4.708993	661.513146	8.548046	-3.448544	0.852523	0.521311	1.292196
2.380	4.293396	-5.164472	658.098849	8.120095	-3.538202	0.858263	0.537640	1.233872
2.390	4.457967	-5.528141	654.006009	7.749409	-3.652611	0.859366	0.558498	1.184914
2.400	4.624675	-5.791276	649.428582	7.441074	-3.780333	0.859871	0.582101	1.145788
