Time[s]	Fx[N]	Fy[N]	Fz[N]	Mx[Nm]	My[Nm]	Mz[Nm]	COPx[cm]	COPy[cm]
0.010	3.896339	1.204897	528.342018	3.757621	8.952462	0.043533	-1.694444	0.711210
0.020	3.829131	1.179621	528.182744	3.797127	8.936567	0.031423	-1.691946	0.718904
0.030	3.769088	1.165524	528.045652	3.834024	8.928259	0.022490	-1.690812	0.726078
0.040	3.724386	1.169042	527.948566	3.866427	8.931526	0.019071	-1.691742	0.732349
0.050	3.703824	1.189591	527.903180	3.894296	8.944641	0.021964	-1.694371	0.737691
0.060	3.714565	1.220192	527.914758	3.919497	8.960797	0.030287	-1.697395	0.742449
0.070	3.758724	1.250853	527.981807	3.945138	8.970980	0.041881	-1.699108	0.747211
0.080	3.830712	1.273110	528.094673	3.974372	8.967601	0.054053	-1.698105	0.752587
0.090	3.917373	1.283443	528.234376	4.009174	8.947203	0.064371	-1.693794	0.758976
0.100	4.001618	1.283864	528.374621	4.049613	8.911301	0.071230	-1.686550	0.766428
0.110	4.068049	1.279696	528.488776	4.093955	8.865404	0.074109	-1.677501	0.774653
0.120	4.107731	1.276287	528.559753	4.139564	8.817019	0.073514	-1.668122	0.783178
0.130	4.119786	1.276777	528.587316	4.184175	8.773614	0.070686	-1.659823	0.791577
0.140	4.109567	1.281870	528.587870	4.226882	8.741201	0.067163	-1.653689	0.799655
0.150	4.085061	1.291027	528.586244	4.268199	8.723721	0.064362	-1.650387	0.807474
0.160	4.053713	1.303848	528.603790	4.309130	8.722984	0.063298	-1.650193	0.815191
0.170	4.020914	1.320897	528.648845	4.349875	8.738879	0.064523	-1.653059	0.822829
0.180	3.990092	1.343844	528.713559	4.389084	8.769690	0.068194	-1.658685	0.830144
0.190	3.963449	1.375047	528.777509	4.424152	8.812563	0.074161	-1.666592	0.836676
0.200	3.942305	1.416502	528.815745	4.452381	8.864103	0.082006	-1.676218	0.841953
0.210	3.926522	1.468301	528.807761	4.472365	8.920936	0.091034	-1.686990	0.845745
0.220	3.913364	1.527301	528.744238	4.484844	8.980077	0.100280	-1.698378	0.848207
0.230	3.896953	1.587066	528.629993	4.492537	9.039075	0.108603	-1.709906	0.849845
0.240	3.869510	1.639559	528.483017	4.499008	9.095975	0.114943	-1.721148	0.851306
0.250	3.824438	1.677927	528.330165	4.507172	9.149153	0.118692	-1.731711	0.853098
0.260	3.759867	1.698840	528.200186	4.518207	9.197075	0.119993	-1.741210	0.855397
0.270	3.680728	1.703084	528.115571	4.531402	9.238100	0.119790	-1.749257	0.858032
0.280	3.598124	1.694241	528.085748	4.544964	9.270496	0.119490	-1.755491	0.860649
0.290	3.526191	1.676484	528.104397	4.557303	9.292745	0.120393	-1.759642	0.862955
0.300	3.477893	1.652898	528.152251	4.568006	9.304027	0.123149	-1.761618	0.864903
0.310	3.461510	1.625195	528.204272	4.577913	9.304609	0.127517	-1.761555	0.866694
0.320	3.478905	1.594675	528.238145	4.588281	9.295899	0.132525	-1.759793	0.868601
0.330	3.525675	1.563449	528.240523	4.599652	9.280135	0.136965	-1.756801	0.870750
0.340	3.592785	1.534902	528.208816	4.611237	9.259841	0.139977	-1.753065	0.872995
0.350	3.669121	1.512972	528.148993	4.621211	9.237327	0.141412	-1.749000	0.874982
0.360	3.744195	1.500633	528.071995	4.627694	9.214428	0.141765	-1.744919	0.876338
0.370	3.810127	1.498492	527.991211	4.629738	9.192545	0.141720	-1.741041	0.876859
0.380	3.862299	1.504330	527.921740	4.627730	9.172822	0.141630	-1.737534	0.876594
0.390	3.898940	1.513928	527.880488	4.623105	9.156247	0.141248	-1.734530	0.875786
0.400	3.920291	1.522761	527.885065	4.617704	9.143574	0.139896	-1.732115	0.874756
0.410	3.927954	1.527758	527.949612	4.613276	9.135081	0.136928	-1.730294	0.873810
0.420	3.924516	1.528296	528.077943	4.611335	9.130306	0.132204	-1.728969	0.873230
0.430	3.913350	1.526091	528.257275	4.613265	9.127866	0.126266	-1.727920	0.873299
0.440	3.898630	1.524085	528.456638	4.620391	9.125473	0.120140	-1.726816	0.874318
0.450	3.885551	1.524851	528.632286	4.633824	9.120285	0.114917	-1.725261	0.876568
0.460	3.880394	1.529434	528.739357	4.654099	9.109608	0.111349	-1.722892	0.880226
0.470	3.889701	1.537347	528.746134	4.680903	9.091808	0.109634	-1.719503	0.885284
0.480	3.918238	1.547607	528.645413	4.713203	9.067020	0.109412	-1.715142	0.891562
0.490	3.966467	1.559784	528.458037	4.749838	9.037329	0.109897	-1.710132	0.898811
0.500	4.029014	1.574148	528.226675	4.790157	9.006313	0.110079	-1.705009	0.906837
0.510	4.095278	1.590912	528.002388	4.834090	8.978155	0.108958	-1.700400	0.915543
0.520	4.152098	1.609274	527.829653	4.881407	8.956626	0.105793	-1.696878	0.924807
0.530	4.187363	1.626938	527.735084	4.930599	8.944260	0.100291	-1.694839	0.934294
0.540	4.193233	1.640380	527.722107	4.978281	8.941955	0.092651	-1.694444	0.943353
0.550	4.168008	1.645752	527.771430	5.019735	8.949069	0.083435	-1.695633	0.951119
0.560	4.116279	1.640147	527.847160	5.050441	8.963907	0.073356	-1.698201	0.956800
0.570	4.047457	1.622911	527.908492	5.067795	8.984360	0.063134	-1.701878	0.959976
0.580	3.973129	1.596433	527.924536	5.072124	9.008533	0.053484	-1.706405	0.960767
0.590	3.903983	1.565716	527.886376	5.066581	9.035262	0.045198	-1.711592	0.959786
0.600	3.847292	1.536638	527.810168	5.056037	9.064436	0.039145	-1.717367	0.957927
0.610	3.805885	1.513831	527.729385	5.045518	9.096993	0.036127	-1.723799	0.956081
0.620	3.778784	1.499487	527.680022	5.038852	9.134495	0.036585	-1.731067	0.954907
0.630	3.762965	1.493569	527.685919	5.037925	9.178343	0.040334	-1.739357	0.954720
0.640	3.755188	1.494716	527.750676	5.042650	9.228875	0.046447	-1.748719	0.955498
0.650	3.753057	1.500824	527.858627	5.051361	9.284700	0.053395	-1.758937	0.956953
0.660	3.754995	1.508969	527.982691	5.061293	9.342649	0.059458	-1.769499	0.958610
0.670	3.759490	1.515209	528.094563	5.068939	9.398472	0.063288	-1.779695	0.959854
0.680	3.764143	1.515091	528.173283	5.070404	9.448038	0.064376	-1.788814	0.959989
0.690	3.764966	1.505088	528.209993	5.062000	9.488495	0.063193	-1.796349	0.958331
0.700	3.756385	1.484400	528.208623	5.041210	9.518919	0.060922	-1.802113	0.954398
0.710	3.732418	1.456054	528.183421	5.007805	9.540326	0.058939	-1.806252	0.948119
0.720	3.689097	1.426466	528.154315	4.964562	9.555189	0.058312	-1.809166	0.939983
0.730	3.627157	1.403370	528.140805	4.917021	9.566671	0.059503	-1.811386	0.931006
0.740	3.553333	1.392947	528.155495	4.872171	9.577767	0.062311	-1.813437	0.922488
0.750	3.479057	1.397364	528.199149	4.836441	9.590560	0.065998	-1.815709	0.915647
0.760	3.416962	1.413829	528.259296	4.813687	9.605773	0.069545	-1.818382	0.911236
0.770	3.376865	1.435661	528.313608	4.803845	9.622709	0.071995	-1.821401	0.909279
0.780	3.363161	1.455052	528.337799	4.802802	9.639543	0.072783	-1.824504	0.909040
0.790	3.374583	1.466245	528.315824	4.803642	9.653841	0.071937	-1.827286	0.909237
0.800	3.405817	1.467468	528.248576	4.798915	9.663167	0.070028	-1.829284	0.908458
0.810	3.449560	1.460594	528.156860	4.783102	9.665605	0.067889	-1.830063	0.905622
0.820	3.498057	1.448963	528.076251	4.754296	9.660095	0.066250	-1.829299	0.900305
0.830	3.544262	1.434876	528.045105	4.714410	9.646496	0.065504	-1.826832	0.892804
0.840	3.583130	1.418335	528.090568	4.667916	9.625358	0.065688	-1.822672	0.883923
0.850	3.612892	1.397640	528.218257	4.619846	9.597532	0.066638	-1.816963	0.874609
0.860	3.635551	1.371105	528.409315	4.574041	9.563772	0.068168	-1.809917	0.865625
0.870	3.656054	1.338487	528.625302	4.532257	9.524506	0.070176	-1.801750	0.857367
0.880	3.680312	1.301084	528.818673	4.494157	9.479846	0.072601	-1.792646	0.849848
0.890	3.712887	1.260663	528.945299	4.457962	9.429823	0.075286	-1.782760	0.842802
0.900	3.755347	1.218188	528.975666	4.421544	9.374683	0.077867	-1.772233	0.835869
0.910	3.806006	1.173338	528.902414	4.383702	9.315036	0.079782	-1.761201	0.828830
0.920	3.861079	1.125129	528.742498	4.345084	9.251774	0.080453	-1.749769	0.821777
0.930	3.916512	1.073218	528.532671	4.308247	9.185835	0.079519	-1.737988	0.815133
0.940	3.969495	1.019029	528.318500	4.276769	9.118039	0.077014	-1.725860	0.809506
0.950	4.018947	0.965998	528.140204	4.253849	9.049154	0.073424	-1.713400	0.805439
0.960	4.064909	0.918867	528.021001	4.241071	8.980194	0.069607	-1.700727	0.803201
0.970	4.107396	0.882463	527.962988	4.237875	8.912782	0.066588	-1.688145	0.802684
0.980	4.145574	0.860433	527.951583	4.241867	8.849249	0.065277	-1.676148	0.803458
0.990	4.177922	0.854180	527.965055	4.249755	8.792295	0.066152	-1.665318	0.804931
1.000	4.203268	0.862165	527.984175	4.258534	8.744275	0.069007	-1.656162	0.806565
1.010	4.221881	0.879775	527.999152	4.266532	8.706447	0.072927	-1.648951	0.808057
1.020	4.235684	0.900073	528.013347	4.273916	8.678544	0.076551	-1.643622	0.809433
1.030	4.247285	0.915578	528.043075	4.282379	8.658817	0.078571	-1.639794	0.810990
1.040	4.258367	0.920506	528.111549	4.294093	8.644512	0.078263	-1.636872	0.813103
1.050	4.268500	0.912338	528.236603	4.310424	8.632682	0.075835	-1.634245	0.816003
1.060	4.275185	0.891958	528.416769	4.331075	8.621157	0.072414	-1.631507	0.819632
1.070	4.275048	0.862672	528.623972	4.354046	8.609332	0.069659	-1.628631	0.823657
1.080	4.265382	0.828852	528.808818	4.376342	8.598360	0.069101	-1.625986	0.827585
1.090	4.245265	0.794777	528.917327	4.395042	8.590538	0.071497	-1.624174	0.830951
1.100	4.216006	0.763944	528.911754	4.408358	8.588203	0.076471	-1.623750	0.833477
1.110	4.180962	0.738972	528.786771	4.416366	8.592747	0.082590	-1.624993	0.835188
1.120	4.144797	0.722032	528.574825	4.421190	8.604315	0.087889	-1.627833	0.836436
1.130	4.112296	0.715438	528.338307	4.426489	8.622277	0.090649	-1.631961	0.837813
1.140	4.087033	0.721835	528.150135	4.436332	8.646001	0.090078	-1.637035	0.839975
1.150	4.070351	0.743614	528.068382	4.453824	8.675255	0.086547	-1.642828	0.843418
1.160	4.060968	0.781695	528.113936	4.480074	8.709838	0.081277	-1.649235	0.848316
1.170	4.055277	0.834417	528.260964	4.513986	8.748657	0.075712	-1.656124	0.854499
1.180	4.048299	0.897226	528.446099	4.552911	8.788975	0.070964	-1.663173	0.861566
1.190	4.035134	0.963427	528.594031	4.593818	8.826575	0.067599	-1.669821	0.869064
1.200	4.012593	1.025701	528.648380	4.634437	8.857007	0.065776	-1.675406	0.876658
1.210	3.980416	1.077976	528.593351	4.673854	8.877355	0.065491	-1.679430	0.884206
1.220	3.941482	1.117146	528.456246	4.712325	8.887522	0.066637	-1.681790	0.891715
1.230	3.900784	1.144073	528.291036	4.750470	8.890291	0.068858	-1.682840	0.899215
1.240	3.863622	1.163217	528.152626	4.788343	8.890083	0.071434	-1.683241	0.906621
1.250	3.833898	1.180768	528.074984	4.824944	8.891094	0.073457	-1.683680	0.913685
1.260	3.813261	1.202032	528.062791	4.858540	8.895688	0.074261	-1.684589	0.920069
1.270	3.801223	1.229396	528.098136	4.887638	8.903724	0.073790	-1.685998	0.925517
1.280	3.795687	1.261762	528.155639	4.911963	8.912973	0.072678	-1.687566	0.930022
1.290	3.793351	1.295460	528.215759	4.932643	8.920273	0.072008	-1.688756	0.933831
1.300	3.790159	1.325906	528.269198	4.951409	8.922781	0.072887	-1.689060	0.937289
1.310	3.782336	1.349173	528.312506	4.969407	8.918749	0.076033	-1.688158	0.940619
1.320	3.768160	1.362922	528.340638	4.986466	8.907615	0.081520	-1.685961	0.943797
1.330	3.749632	1.366472	528.342963	5.001274	8.889671	0.088776	-1.682557	0.946596
1.340	3.732788	1.360286	528.305935	5.012242	8.865690	0.096762	-1.678136	0.948739
1.350	3.725903	1.345518	528.220840	5.018502	8.836739	0.104290	-1.672925	0.950076
1.360	3.736175	1.324195	528.091819	5.020501	8.804157	0.110391	-1.667164	0.950687
1.370	3.766534	1.299769	527.939216	5.019959	8.769632	0.114658	-1.661106	0.950859
1.380	3.814155	1.277115	527.796001	5.019271	8.735247	0.117398	-1.655042	0.950987
1.390	3.871222	1.261370	527.698804	5.020711	8.703400	0.119438	-1.649312	0.951435
1.400	3.927391	1.256122	527.677781	5.025815	8.676429	0.121626	-1.644266	0.952440
1.410	3.972983	1.262217	527.749505	5.035209	8.655922	0.124281	-1.640157	0.954091
1.420	4.001985	1.277970	527.914107	5.048931	8.641908	0.126903	-1.636991	0.956393
1.430	4.014004	1.300437	528.155096	5.066941	8.632283	0.128321	-1.634422	0.959366
1.440	4.014496	1.326764	528.440274	5.089316	8.622839	0.127223	-1.631753	0.963083
1.450	4.013175	1.354868	528.724348	5.115804	8.608072	0.122819	-1.628083	0.967575
1.460	4.021148	1.383377	528.954935	5.145032	8.582671	0.115350	-1.622571	0.972679
1.470	4.047606	1.411111	529.082705	5.174111	8.543246	0.106199	-1.614728	0.977940
1.480	4.096713	1.436542	529.074342	5.199203	8.489674	0.097499	-1.604628	0.982698
1.490	4.165377	1.457588	528.924797	5.216922	8.425488	0.091392	-1.592946	0.986326
1.500	4.242998	1.471858	528.663538	5.225765	8.357123	0.089286	-1.580802	0.988486
1.510	4.314210	1.477235	528.350236	5.226748	8.292267	0.091402	-1.569464	0.989258
1.520	4.364285	1.472514	528.059243	5.222892	8.237799	0.096783	-1.560014	0.989073
1.530	4.384930	1.457775	527.857771	5.217885	8.197910	0.103722	-1.553053	0.988502
1.540	4.377366	1.434210	527.786226	5.214678	8.173003	0.110420	-1.548544	0.988028
1.550	4.351130	1.403459	527.848228	5.214659	8.159859	0.115584	-1.545872	0.987909
1.560	4.319655	1.366929	528.013253	5.217593	8.153080	0.118732	-1.544105	0.988156
1.570	4.295305	1.325667	528.229724	5.222083	8.147297	0.120071	-1.542378	0.988601
1.580	4.286067	1.280973	528.442988	5.226258	8.139146	0.120111	-1.540213	0.988992
1.590	4.294551	1.235384	528.611637	5.228487	8.128225	0.119279	-1.537655	0.989098
1.600	4.318675	1.193256	528.716761	5.227887	8.116744	0.117731	-1.535178	0.988788
1.610	4.353083	1.160305	528.761696	5.224407	8.108273	0.115420	-1.533446	0.988046
1.620	4.390723	1.141956	528.763555	5.218445	8.106342	0.112297	-1.533075	0.986915
1.630	4.424270	1.141020	528.741166	5.210330	8.113511	0.108457	-1.534496	0.985422
1.640	4.447277	1.155738	528.705365	5.200096	8.131109	0.104118	-1.537928	0.983553
1.650	4.454937	1.179338	528.656207	5.187731	8.159387	0.099496	-1.543420	0.981305
1.660	4.444384	1.201762	528.587874	5.173720	8.197774	0.094718	-1.550882	0.978781
1.670	4.414516	1.213123	528.497579	5.159496	8.245083	0.089897	-1.560099	0.976257
1.680	4.365605	1.207497	528.392355	5.147482	8.299726	0.085312	-1.570751	0.974178
1.690	4.299181	1.185234	528.289448	5.140646	8.359860	0.081490	-1.582439	0.973074
1.700	4.218611	1.152694	528.210692	5.141709	8.423387	0.079014	-1.594702	0.973420
1.710	4.130085	1.119589	528.174394	5.152295	8.487805	0.078092	-1.607008	0.975491
1.720	4.042931	1.095395	528.188116	5.172373	8.550142	0.078195	-1.618768	0.979267
1.730	3.968274	1.086553	528.244734	5.200284	8.607157	0.078075	-1.629388	0.984446
1.740	3.916102	1.095421	528.323722	5.233442	8.655862	0.076230	-1.638363	0.990575
1.750	3.892048	1.120820	528.397858	5.269391	8.694271	0.071559	-1.645402	0.997239
1.760	3.895420	1.159289	528.442478	5.306657	8.722124	0.063855	-1.650534	1.004207
1.770	3.919347	1.206167	528.443129	5.344932	8.741232	0.053948	-1.654148	1.011449
1.780	3.952897	1.256221	528.399231	5.384549	8.755109	0.043475	-1.656912	1.019030
1.790	3.984171	1.304114	528.323700	5.425627	8.767922	0.034391	-1.659574	1.026951
1.800	4.003130	1.345176	528.239460	5.467436	8.783147	0.028366	-1.662721	1.035030
1.810	4.003248	1.376465	528.173654	5.508378	8.802507	0.026269	-1.666593	1.042910
1.820	3.981975	1.397553	528.149914	5.546561	8.825657	0.027961	-1.671052	1.050187
1.830	3.940512	1.410431	528.179308	5.580536	8.850705	0.032473	-1.675701	1.056561
1.840	3.883290	1.418412	528.252736	5.609722	8.875301	0.038418	-1.680124	1.061939
1.850	3.817034	1.424610	528.339899	5.634336	8.897802	0.044410	-1.684106	1.066423
1.860	3.749256	1.430840	528.398928	5.655029	8.918078	0.049335	-1.687755	1.070220
1.870	3.686542	1.437493	528.394920	5.672510	8.937655	0.052464	-1.691473	1.073536
1.880	3.633344	1.444306	528.319059	5.687373	8.959174	0.053441	-1.695788	1.076503
1.890	3.591619	1.451348	528.197897	5.700111	8.985377	0.052206	-1.701138	1.079162
1.900	3.561003	1.459420	528.086453	5.711140	9.018065	0.048889	-1.707687	1.081478
1.910	3.539138	1.469613	528.046541	5.720686	9.057415	0.043734	-1.715268	1.083368
1.920	3.522098	1.482416	528.119051	5.728614	9.101873	0.037119	-1.723451	1.084720
1.930	3.505108	1.497082	528.302401	5.734416	9.148592	0.029698	-1.731696	1.085442
1.940	3.483523	1.511604	528.547540	5.737463	9.194107	0.022538	-1.739504	1.085515
1.950	3.453963	1.523154	528.772931	5.737375	9.234990	0.017067	-1.746495	1.085036
1.960	3.415608	1.528645	528.893861	5.734278	9.268380	0.014679	-1.752408	1.084202
1.970	3.371412	1.525371	528.853951	5.728793	9.292423	0.016156	-1.757087	1.083247
1.980	3.328400	1.511965	528.646115	5.721791	9.306607	0.021216	-1.760461	1.082348
1.990	3.296148	1.489648	528.315297	5.714075	9.311765	0.028502	-1.762539	1.081565
2.000	3.283635	1.463104	527.943307	5.706183	9.309593	0.036078	-1.763370	1.080833
2.010	3.296071	1.439960	527.622896	5.698436	9.301722	0.042179	-1.762949	1.080021
2.020	3.333398	1.428352	527.430648	5.691135	9.288791	0.045846	-1.761140	1.079030
2.030	3.390873	1.433396	527.406544	5.684735	9.270037	0.047213	-1.757664	1.077866
2.040	3.460770	1.454560	527.544746	5.679910	9.243722	0.047334	-1.752216	1.076669
2.050	3.534078	1.485684	527.797264	5.677523	9.208232	0.047658	-1.744653	1.075701
2.060	3.601950	1.517686	528.089261	5.678533	9.163304	0.049327	-1.735181	1.075298
2.070	3.657316	1.542279	528.341704	5.683739	9.110659	0.052594	-1.724388	1.075769
2.080	3.696793	1.554692	528.494661	5.693359	9.053644	0.056661	-1.713100	1.077278
2.090	3.722210	1.554273	528.523968	5.706617	8.996040	0.060056	-1.702106	1.079727
2.100	3.740565	1.543278	528.445734	5.721692	8.940749	0.061460	-1.691895	1.082740
2.110	3.761786	1.525050	528.307340	5.736218	8.889073	0.060512	-1.682557	1.085773
2.120	3.794998	1.502766	528.169013	5.748183	8.840897	0.058120	-1.673877	1.088323
2.130	3.845061	1.479184	528.083571	5.756782	8.795488	0.056059	-1.665549	1.090127
2.140	3.911038	1.456854	528.081624	5.762745	8.752364	0.056125	-1.657388	1.091260
2.150	3.986974	1.437986	528.166250	5.767904	8.711763	0.059330	-1.649436	1.092062
2.160	4.064177	1.423681	528.317040	5.774140	8.674516	0.065474	-1.641915	1.092931
2.170	4.133852	1.413110	528.500083	5.782223	8.641415	0.073240	-1.635083	1.094082
2.180	4.189366	1.403648	528.678880	5.791118	8.612385	0.080730	-1.629039	1.095394
2.190	4.227806	1.392324	528.822059	5.798083	8.585865	0.086210	-1.623583	1.096415
2.200	4.250574	1.377856	528.906591	5.799466	8.558745	0.088741	-1.618196	1.096501
2.210	4.262791	1.361872	528.918308	5.791916	8.527146	0.088401	-1.612186	1.095049
2.220	4.271393	1.348398	528.852421	5.773696	8.487911	0.086065	-1.604968	1.091740
2.230	4.282311	1.341808	528.714884	5.745710	8.440230	0.082939	-1.596367	1.086731
2.240	4.297883	1.344490	528.523002	5.711782	8.386542	0.080168	-1.586788	1.080706
2.250	4.315811	1.355641	528.303454	5.677813	8.332179	0.078670	-1.577158	1.074726
2.260	4.330238	1.371741	528.087455	5.649985	8.283866	0.079140	-1.568654	1.069896
2.270	4.334394	1.388146	527.904100	5.632718	8.247733	0.082041	-1.562354	1.066996
2.280	4.323654	1.400695	527.773896	5.627280	8.227635	0.087471	-1.558932	1.066229
2.290	4.297785	1.406645	527.705033	5.631645	8.224366	0.094938	-1.558516	1.067196
2.300	4.261506	1.405000	527.693860	5.641596	8.235906	0.103256	-1.560736	1.069104
2.310	4.223020	1.396473	527.728354	5.652489	8.258347	0.110737	-1.564886	1.071098
2.320	4.190964	1.383068	527.792089	5.660893	8.287011	0.115688	-1.570128	1.072561
2.330	4.171008	1.367350	527.867570	5.665454	8.317432	0.116975	-1.575666	1.073272
2.340	4.163564	1.351767	527.939525	5.666817	8.346180	0.114378	-1.580897	1.073384
2.350	4.163563	1.338428	527.998317	5.666776	8.371599	0.108615	-1.585535	1.073256
2.360	4.162192	1.329304	528.042179	5.667135	8.394362	0.101109	-1.589714	1.073235
2.370	4.149618	1.326430	528.076521	5.668818	8.417566	0.093607	-1.594005	1.073484
2.380	4.117484	1.331671	528.109829	5.671634	8.446130	0.087743	-1.599313	1.073950
2.390	4.060536	1.345954	528.147650	5.674664	8.485541	0.084608	-1.606661	1.074447
2.400	3.977398	1.368358	528.187625	5.676842	8.540245	0.084393	-1.616896	1.074778
2.410	3.870994	1.395705	528.218603	5.677283	8.612112	0.086237	-1.630407	1.074798
2.420	3.748972	1.423083	528.225048	5.675226	8.699373	0.088380	-1.646906	1.074396
2.430	3.623892	1.445215	528.194590	5.669779	8.796375	0.088676	-1.665366	1.073426
2.440	3.512260	1.458002	528.124230	5.659763	8.894269	0.085315	-1.684124	1.071673
2.450	3.431585	1.459391	528.021738	5.643797	8.982549	0.077480	-1.701170	1.068857
2.460	3.395560	1.449157	527.902378	5.620586	9.051163	0.065655	-1.714552	1.064702
