Time[s]	Fx[N]	Fy[N]	Fz[N]	Mx[Nm]	My[Nm]	Mz[Nm]	COPx[cm]	COPy[cm]
0.010	4.004116	-1.024280	709.472589	-3.336284	17.923933	-0.416452	-2.526374	-0.470248
0.020	3.983753	-1.033213	709.652939	-3.351174	17.899410	-0.407048	-2.522277	-0.472227
0.030	3.964835	-1.042036	709.774941	-3.365910	17.869282	-0.399979	-2.517598	-0.474222
0.040	3.949789	-1.049226	709.802111	-3.379889	17.830428	-0.396712	-2.512028	-0.476173
0.050	3.941894	-1.051027	709.731559	-3.392532	17.782838	-0.397663	-2.505572	-0.478002
0.060	3.943490	-1.042692	709.595013	-3.403255	17.729431	-0.402428	-2.498528	-0.479605
0.070	3.954202	-1.020758	709.446733	-3.411660	17.674737	-0.410298	-2.491341	-0.480890
0.080	3.970713	-0.985058	709.343436	-3.417855	17.623105	-0.420661	-2.484425	-0.481834
0.090	3.988390	-0.939471	709.324597	-3.422662	17.577171	-0.433068	-2.478015	-0.482524
0.100	4.003684	-0.891208	709.399789	-3.427592	17.537109	-0.447041	-2.472105	-0.483168
0.110	4.015851	-0.849025	709.545690	-3.434681	17.500797	-0.461824	-2.466479	-0.484068
0.120	4.027273	-0.820983	709.712916	-3.446219	17.464728	-0.476269	-2.460816	-0.485579
0.130	4.042557	-0.812365	709.841527	-3.464318	17.425365	-0.488916	-2.454825	-0.488041
0.140	4.066929	-0.824340	709.881680	-3.490264	17.380611	-0.498245	-2.448381	-0.491668
0.150	4.104287	-0.853869	709.812494	-3.523804	17.330960	-0.503038	-2.441625	-0.496441
0.160	4.155303	-0.894977	709.650914	-3.562679	17.279808	-0.502724	-2.434973	-0.502033
0.170	4.216313	-0.940888	709.445712	-3.602796	17.232529	-0.497634	-2.429013	-0.507833
0.180	4.279786	-0.985949	709.258924	-3.639186	17.194530	-0.489077	-2.424295	-0.513097
0.190	4.336523	-1.026466	709.143553	-3.667452	17.169179	-0.479149	-2.421115	-0.517166
0.200	4.378670	-1.060395	709.127715	-3.685011	17.156635	-0.470248	-2.419400	-0.519654
0.210	4.401922	-1.086558	709.210885	-3.691477	17.154104	-0.464379	-2.418759	-0.520505
0.220	4.405779	-1.104154	709.370965	-3.688160	17.157160	-0.462556	-2.418644	-0.519920
0.230	4.392093	-1.112819	709.575561	-3.677198	17.161360	-0.464616	-2.418539	-0.518225
0.240	4.363456	-1.112895	709.790154	-3.660932	17.163420	-0.469518	-2.418098	-0.515777
0.250	4.322836	-1.105361	709.979885	-3.641752	17.161680	-0.475863	-2.417206	-0.512937
0.260	4.274417	-1.091237	710.107853	-3.622174	17.155938	-0.482292	-2.415962	-0.510088
0.270	4.224325	-1.070771	710.136272	-3.604797	17.146945	-0.487620	-2.414599	-0.507620
0.280	4.179890	-1.042990	710.034850	-3.591934	17.135796	-0.490847	-2.413374	-0.505881
0.290	4.147202	-1.006033	709.794512	-3.584988	17.123489	-0.491244	-2.412457	-0.505074
0.300	4.128118	-0.958266	709.438813	-3.583880	17.110756	-0.488569	-2.411872	-0.505171
0.310	4.118645	-0.899796	709.024410	-3.586885	17.098142	-0.483271	-2.411503	-0.505890
0.320	4.110090	-0.833700	708.627332	-3.591107	17.086097	-0.476427	-2.411154	-0.506770
0.330	4.092656	-0.766226	708.320251	-3.593451	17.074934	-0.469359	-2.410623	-0.507320
0.340	4.059587	-0.705533	708.151478	-3.591725	17.064610	-0.463050	-2.409740	-0.507197
0.350	4.009708	-0.659204	708.134748	-3.585506	17.054558	-0.457709	-2.408377	-0.506331
0.360	3.947401	-0.631581	708.251854	-3.576432	17.043717	-0.452745	-2.406449	-0.504966
0.370	3.880580	-0.622250	708.463608	-3.567718	17.030786	-0.447157	-2.403904	-0.503585
0.380	3.817943	-0.626478	708.722359	-3.562901	17.014498	-0.440105	-2.400728	-0.502722
0.390	3.766794	-0.637300	708.981339	-3.564355	16.993803	-0.431309	-2.396932	-0.502743
0.400	3.732039	-0.648133	709.200250	-3.572299	16.967999	-0.421084	-2.392554	-0.503708
0.410	3.716118	-0.654702	709.349636	-3.584757	16.936851	-0.410076	-2.387659	-0.505358
0.420	3.719099	-0.655773	709.416148	-3.598352	16.900636	-0.398953	-2.382330	-0.507227
0.430	3.738624	-0.652977	709.407255	-3.609532	16.860072	-0.388277	-2.376642	-0.508810
0.440	3.770264	-0.650193	709.351156	-3.615852	16.816221	-0.378572	-2.370648	-0.509741
0.450	3.808949	-0.652494	709.289083	-3.617058	16.770474	-0.370419	-2.364406	-0.509955
0.460	3.851270	-0.664347	709.261803	-3.615565	16.724530	-0.364432	-2.358019	-0.509764
0.470	3.897323	-0.687351	709.296156	-3.615924	16.680148	-0.361030	-2.351648	-0.509791
0.480	3.950625	-0.718712	709.397609	-3.623202	16.638744	-0.360169	-2.345475	-0.510743
0.490	4.015658	-0.751667	709.551120	-3.640906	16.601034	-0.361194	-2.339653	-0.513128
0.500	4.094149	-0.777991	709.727921	-3.669530	16.566902	-0.362977	-2.334261	-0.517033
0.510	4.182233	-0.791424	709.893845	-3.706465	16.535431	-0.364275	-2.329282	-0.522115
0.520	4.270383	-0.790509	710.016662	-3.747267	16.505062	-0.364145	-2.324602	-0.527772
0.530	4.346624	-0.779698	710.072750	-3.787507	16.473875	-0.362255	-2.320026	-0.533397
0.540	4.401599	-0.768211	710.053453	-3.824332	16.439998	-0.359025	-2.315318	-0.538598
0.550	4.432906	-0.766974	709.968688	-3.857188	16.402002	-0.355579	-2.310243	-0.543290
0.560	4.446449	-0.784826	709.843989	-3.887668	16.359148	-0.353503	-2.304612	-0.547679
0.570	4.454151	-0.825532	709.710426	-3.918741	16.311484	-0.354399	-2.298330	-0.552161
0.580	4.469160	-0.886668	709.592570	-3.953723	16.259907	-0.359327	-2.291443	-0.557182
0.590	4.500671	-0.960488	709.501771	-3.995361	16.206217	-0.368302	-2.284169	-0.563122
0.600	4.550510	-1.036263	709.437951	-4.045271	16.153059	-0.380106	-2.276881	-0.570208
0.610	4.612763	-1.103448	709.396630	-4.103755	16.103614	-0.392549	-2.270044	-0.578485
0.620	4.676456	-1.154947	709.375382	-4.169878	16.061086	-0.403126	-2.264117	-0.587824
0.630	4.729898	-1.189581	709.376079	-4.241793	16.028166	-0.409833	-2.259474	-0.597961
0.640	4.764614	-1.212655	709.402627	-4.317290	16.006661	-0.411830	-2.256358	-0.608581
0.650	4.777318	-1.234043	709.456058	-4.394416	15.997296	-0.409726	-2.254868	-0.619406
0.660	4.769630	-1.264305	709.529760	-4.471813	15.999647	-0.405370	-2.254965	-0.630250
0.670	4.746442	-1.310449	709.607422	-4.548510	16.012179	-0.401198	-2.256484	-0.640990
0.680	4.714133	-1.373108	709.665036	-4.623217	16.032446	-0.399401	-2.259157	-0.651465
0.690	4.679314	-1.446075	709.676755	-4.693599	16.057455	-0.401276	-2.262644	-0.661371
0.700	4.648071	-1.518093	709.622924	-4.756151	16.084123	-0.407021	-2.266573	-0.670236
0.710	4.625439	-1.576104	709.497579	-4.807089	16.109711	-0.415970	-2.270580	-0.677534
0.720	4.614987	-1.609120	709.312765	-4.844055	16.132147	-0.427005	-2.274335	-0.682922
0.730	4.618496	-1.611756	709.097980	-4.867821	16.150188	-0.438907	-2.277568	-0.686481
0.740	4.635726	-1.586406	708.894073	-4.882893	16.163457	-0.450535	-2.280095	-0.688804
0.750	4.664238	-1.543177	708.742585	-4.896319	16.172444	-0.460876	-2.281850	-0.690846
0.760	4.699411	-1.497331	708.673769	-4.915013	16.178505	-0.469023	-2.282927	-0.693551
0.770	4.734992	-1.464866	708.698030	-4.942907	16.183801	-0.474157	-2.283596	-0.697463
0.780	4.764533	-1.457693	708.804243	-4.979548	16.191019	-0.475559	-2.284272	-0.702528
0.790	4.783424	-1.480158	708.965150	-5.020845	16.202732	-0.472732	-2.285406	-0.708194
0.800	4.790408	-1.528140	709.147164	-5.061347	16.220525	-0.465609	-2.287328	-0.713723
0.810	4.787385	-1.590928	709.320433	-5.096652	16.244302	-0.454772	-2.290122	-0.718526
0.820	4.777509	-1.655063	709.465255	-5.124844	16.272241	-0.441552	-2.293592	-0.722353
0.830	4.762923	-1.708815	709.573038	-5.146611	16.301487	-0.427885	-2.297366	-0.725311
0.840	4.743726	-1.745729	709.642952	-5.164366	16.329256	-0.415927	-2.301052	-0.727742
0.850	4.718649	-1.765919	709.677246	-5.180935	16.353849	-0.407548	-2.304407	-0.730041
0.860	4.686580	-1.774756	709.677961	-5.198353	16.375233	-0.403884	-2.307417	-0.732495
0.870	4.647772	-1.779790	709.646465	-5.217214	16.395055	-0.405045	-2.310313	-0.735185
0.880	4.604238	-1.787481	709.585673	-5.236709	16.416169	-0.410032	-2.313487	-0.737995
0.890	4.559595	-1.801040	709.503443	-5.255210	16.441848	-0.416941	-2.317374	-0.740688
0.900	4.518557	-1.819989	709.414675	-5.271067	16.474962	-0.423482	-2.322332	-0.743016
0.910	4.485862	-1.841211	709.339759	-5.283295	16.517349	-0.427685	-2.328553	-0.744819
0.920	4.464539	-1.860690	709.298865	-5.291883	16.569521	-0.428519	-2.336042	-0.746072
0.930	4.454075	-1.875011	709.304193	-5.297613	16.630669	-0.426126	-2.344645	-0.746875
0.940	4.449555	-1.882053	709.353770	-5.301501	16.698893	-0.421588	-2.354099	-0.747371
0.950	4.442527	-1.880889	709.430069	-5.304209	16.771616	-0.416392	-2.364097	-0.747672
0.960	4.423494	-1.871294	709.505008	-5.305772	16.846186	-0.411885	-2.374358	-0.747813
0.970	4.385081	-1.853454	709.549904	-5.305710	16.920602	-0.408932	-2.384695	-0.747757
0.980	4.324540	-1.828125	709.545611	-5.303403	16.994127	-0.407800	-2.395072	-0.747436
0.990	4.244505	-1.797012	709.487497	-5.298499	17.067429	-0.408226	-2.405600	-0.746807
1.000	4.151714	-1.762789	709.383764	-5.291051	17.142130	-0.409570	-2.416482	-0.745866
1.010	4.054422	-1.728326	709.250294	-5.281209	17.220014	-0.410994	-2.427918	-0.744619
1.020	3.959747	-1.695356	709.106055	-5.268649	17.302348	-0.411675	-2.440023	-0.742999
1.030	3.871974	-1.663435	708.970400	-5.252212	17.389638	-0.411050	-2.452802	-0.740823
1.040	3.792146	-1.629966	708.861235	-5.230128	17.481788	-0.408998	-2.466179	-0.737821
1.050	3.718566	-1.591392	708.792876	-5.200733	17.578427	-0.405853	-2.480051	-0.733745
1.060	3.647575	-1.545079	708.773452	-5.163250	17.679137	-0.402228	-2.494328	-0.728477
1.070	3.574353	-1.491081	708.802843	-5.118114	17.783488	-0.398795	-2.508947	-0.722079
1.080	3.494009	-1.432980	708.872706	-5.066681	17.891019	-0.396180	-2.523869	-0.714752
1.090	3.403212	-1.377205	708.969375	-5.010519	18.001274	-0.395031	-2.539076	-0.706733
1.100	3.301916	-1.330952	709.078322	-4.950682	18.113936	-0.396093	-2.554575	-0.698186
1.110	3.194214	-1.299460	709.187525	-4.887388	18.228918	-0.400140	-2.570395	-0.689153
1.120	3.087611	-1.283785	709.288319	-4.820316	18.346312	-0.407709	-2.586580	-0.679599
1.130	2.990887	-1.280074	709.374889	-4.749400	18.466120	-0.418719	-2.603154	-0.669519
1.140	2.911488	-1.280679	709.444689	-4.675623	18.587816	-0.432229	-2.620051	-0.659054
1.150	2.853503	-1.276566	709.499921	-4.601325	18.709865	-0.446523	-2.637050	-0.648531
1.160	2.816880	-1.259898	709.547120	-4.529771	18.829433	-0.459558	-2.653726	-0.638403
1.170	2.797878	-1.226004	709.592254	-4.464250	18.942556	-0.469598	-2.669499	-0.629129
1.180	2.790340	-1.174590	709.633237	-4.407213	19.044891	-0.475755	-2.683765	-0.621055
1.190	2.787209	-1.110306	709.655686	-4.359919	19.132836	-0.478211	-2.696073	-0.614371
1.200	2.781817	-1.042418	709.636632	-4.322626	19.204523	-0.478017	-2.706247	-0.609132
1.210	2.768867	-0.983050	709.555411	-4.295067	19.260200	-0.476584	-2.714404	-0.605318
1.220	2.745153	-0.943920	709.405645	-4.276809	19.301909	-0.475132	-2.720856	-0.602872
1.230	2.710006	-0.932560	709.200967	-4.267345	19.332698	-0.474341	-2.725983	-0.601712
1.240	2.665286	-0.949718	708.970923	-4.265957	19.355753	-0.474334	-2.730119	-0.601711
1.250	2.614848	-0.989137	708.749535	-4.271522	19.373762	-0.474873	-2.733513	-0.602684
1.260	2.563594	-1.039660	708.563038	-4.282417	19.388689	-0.475538	-2.736339	-0.604380
1.270	2.516519	-1.088660	708.423103	-4.296612	19.401838	-0.475710	-2.738736	-0.606504
1.280	2.478239	-1.125655	708.328086	-4.311956	19.413918	-0.474433	-2.740809	-0.608751
1.290	2.453181	-1.145162	708.270317	-4.326607	19.424926	-0.470409	-2.742586	-0.610870
1.300	2.445893	-1.147999	708.244939	-4.339456	19.433966	-0.462351	-2.743961	-0.612706
1.310	2.460677	-1.140588	708.256188	-4.350324	19.439297	-0.449601	-2.744670	-0.614230
1.320	2.500294	-1.132428	708.318333	-4.359812	19.438733	-0.432671	-2.744350	-0.615516
1.330	2.564493	-1.132664	708.450111	-4.368862	19.430280	-0.413279	-2.742646	-0.616679
1.340	2.649458	-1.147077	708.663999	-4.378238	19.412732	-0.393734	-2.739342	-0.617816
1.350	2.748760	-1.176631	708.954726	-4.388136	19.386009	-0.375982	-2.734450	-0.618959
1.360	2.855463	-1.217960	709.292729	-4.397967	19.351146	-0.360867	-2.728231	-0.620050
1.370	2.964374	-1.265231	709.626454	-4.406286	19.310020	-0.348003	-2.721153	-0.620930
1.380	3.073396	-1.312188	709.893529	-4.410911	19.264968	-0.336274	-2.713783	-0.621348
1.390	3.183394	-1.353325	710.037310	-4.409252	19.218407	-0.324612	-2.706676	-0.620989
1.400	3.296620	-1.383980	710.023528	-4.398804	19.172549	-0.312629	-2.700270	-0.619529
1.410	3.414461	-1.400012	709.851660	-4.377545	19.129240	-0.300825	-2.694822	-0.616684
1.420	3.535768	-1.397762	709.557027	-4.344081	19.089960	-0.290329	-2.690405	-0.612224
1.430	3.656790	-1.374316	709.202637	-4.297610	19.055977	-0.282376	-2.686958	-0.605978
1.440	3.772716	-1.327576	708.863578	-4.237878	19.028579	-0.277769	-2.684378	-0.597841
1.450	3.879770	-1.255901	708.609673	-4.165254	19.009246	-0.276603	-2.682612	-0.587807
1.460	3.976398	-1.157890	708.492135	-4.080843	18.999597	-0.278364	-2.681695	-0.575990
1.470	4.062751	-1.033316	708.537099	-3.986541	19.000992	-0.282278	-2.681722	-0.562644
1.480	4.138905	-0.885431	708.744945	-3.885138	19.013932	-0.287647	-2.682761	-0.548172
1.490	4.203340	-0.723492	709.092325	-3.780592	19.037586	-0.293933	-2.684782	-0.533159
1.500	4.252994	-0.563628	709.535062	-3.678299	19.069764	-0.300576	-2.687642	-0.518410
1.510	4.284939	-0.426849	710.012694	-3.584726	19.107344	-0.306765	-2.691127	-0.504882
1.520	4.298479	-0.334335	710.456080	-3.506016	19.146971	-0.311353	-2.695025	-0.493488
1.530	4.296272	-0.301468	710.797721	-3.446051	19.185770	-0.313063	-2.699188	-0.484815
1.540	4.283787	-0.332772	710.982703	-3.405183	19.221898	-0.310877	-2.703568	-0.478940
1.550	4.267351	-0.419838	710.978260	-3.380482	19.254808	-0.304439	-2.708213	-0.475469
1.560	4.251732	-0.543214	710.780733	-3.367250	19.285137	-0.294284	-2.713233	-0.473740
1.570	4.238377	-0.677637	710.418446	-3.360750	19.314245	-0.281822	-2.718714	-0.473066
1.580	4.225005	-0.798668	709.948464	-3.357257	19.343613	-0.269103	-2.724650	-0.472887
1.590	4.206387	-0.888596	709.446385	-3.354273	19.374479	-0.258432	-2.730929	-0.472802
1.600	4.175615	-0.939993	708.991261	-3.350349	19.407903	-0.251966	-2.737397	-0.472552
1.610	4.125445	-0.956007	708.650189	-3.344961	19.445111	-0.251370	-2.743965	-0.472019
1.620	4.049715	-0.947296	708.466976	-3.338535	19.487715	-0.257601	-2.750688	-0.471234
1.630	3.945037	-0.926748	708.457050	-3.332381	19.537610	-0.270763	-2.757769	-0.470372
1.640	3.812498	-0.904185	708.608329	-3.328286	19.596558	-0.290031	-2.765499	-0.469693
1.650	3.658631	-0.883392	708.886385	-3.327723	19.665552	-0.313683	-2.774147	-0.469430
1.660	3.494894	-0.862396	709.241929	-3.330976	19.744088	-0.339385	-2.783830	-0.469653
1.670	3.335507	-0.836216	709.618699	-3.336669	19.829507	-0.364762	-2.794389	-0.470206
1.680	3.194388	-0.800315	709.960494	-3.341958	19.916754	-0.388102	-2.805333	-0.470724
1.690	3.082323	-0.753101	710.217112	-3.343293	19.998859	-0.408845	-2.815880	-0.470742
1.700	3.005255	-0.696658	710.349838	-3.337395	20.068280	-0.427564	-2.825126	-0.469824
1.710	2.963793	-0.635766	710.336836	-3.322090	20.118852	-0.445413	-2.832297	-0.467678
1.720	2.953410	-0.575990	710.177867	-3.296697	20.147717	-0.463354	-2.836996	-0.464207
1.730	2.964929	-0.521836	709.897033	-3.261794	20.156427	-0.481580	-2.839345	-0.459474
1.740	2.985681	-0.475711	709.541960	-3.218519	20.150715	-0.499383	-2.839961	-0.453605
1.750	3.001958	-0.437774	709.177607	-3.167873	20.138902	-0.515455	-2.839754	-0.446697
1.760	3.002578	-0.406382	708.873575	-3.110607	20.129453	-0.528382	-2.839639	-0.438810
1.770	2.982211	-0.378757	708.686773	-3.047867	20.128423	-0.537137	-2.840242	-0.430073
1.780	2.942796	-0.351783	708.645167	-2.982226	20.137677	-0.541373	-2.841715	-0.420835
1.790	2.892303	-0.322974	708.739486	-2.918303	20.154563	-0.541444	-2.843719	-0.411760
1.800	2.841425	-0.291495	708.926952	-2.862214	20.173253	-0.538193	-2.845604	-0.403739
1.810	2.799814	-0.258809	709.146279	-2.819776	20.187187	-0.532637	-2.846689	-0.397630
1.820	2.773486	-0.228482	709.338618	-2.794291	20.191450	-0.525647	-2.846518	-0.393929
1.830	2.764264	-0.205108	709.466332	-2.785236	20.184077	-0.517705	-2.844966	-0.392582
1.840	2.770979	-0.192978	709.522021	-2.788769	20.165925	-0.508784	-2.842184	-0.393049
1.850	2.791415	-0.195196	709.524810	-2.799833	20.139511	-0.498445	-2.838451	-0.394607
1.860	2.823881	-0.213390	709.507050	-2.814617	20.107558	-0.486151	-2.834018	-0.396700
1.870	2.867862	-0.247632	709.498602	-2.832031	20.071963	-0.471686	-2.829035	-0.399159
1.880	2.923759	-0.296311	709.515423	-2.853589	20.033581	-0.455480	-2.823558	-0.402189
1.890	2.992039	-0.356261	709.555636	-2.882018	19.992701	-0.438659	-2.817637	-0.406172
1.900	3.072233	-0.423432	709.602318	-2.919458	19.949723	-0.422787	-2.811395	-0.411422
1.910	3.162204	-0.493897	709.630276	-2.966133	19.905582	-0.409385	-2.805064	-0.417983
1.920	3.258058	-0.564547	709.614778	-3.019933	19.861809	-0.399444	-2.798956	-0.425574
1.930	3.354684	-0.633071	709.541290	-3.076906	19.820362	-0.393108	-2.793405	-0.433647
1.940	3.446637	-0.697533	709.414294	-3.132290	19.783383	-0.389649	-2.788692	-0.441532
1.950	3.529028	-0.756200	709.261165	-3.181687	19.752931	-0.387776	-2.785001	-0.448592
1.960	3.598298	-0.807845	709.127547	-3.222066	19.730764	-0.386170	-2.782400	-0.454370
1.970	3.652689	-0.852111	709.064487	-3.252407	19.718202	-0.384045	-2.780876	-0.458690
1.980	3.692043	-0.889443	709.111670	-3.273869	19.716080	-0.381496	-2.780391	-0.461686
1.990	3.716851	-0.920587	709.282665	-3.289371	19.724694	-0.379476	-2.780936	-0.463760
2.000	3.727209	-0.945995	709.557051	-3.302655	19.743630	-0.379421	-2.782529	-0.465453
2.010	3.722642	-0.965397	709.882036	-3.317111	19.771505	-0.382678	-2.785182	-0.467276
2.020	3.703148	-0.977589	710.183687	-3.334830	19.805825	-0.389966	-2.788831	-0.469573
2.030	3.670664	-0.980472	710.385302	-3.356225	19.843199	-0.401037	-2.793301	-0.472451
2.040	3.629668	-0.971623	710.427867	-3.380276	19.879996	-0.414609	-2.798313	-0.475808
2.050	3.586216	-0.949588	710.286081	-3.405125	19.913219	-0.428612	-2.803549	-0.479402
2.060	3.545993	-0.915568	709.974575	-3.428739	19.941266	-0.440713	-2.808730	-0.482938
2.070	3.512585	-0.874634	709.542949	-3.449446	19.964332	-0.448975	-2.813689	-0.486150
2.080	3.486947	-0.835571	709.062499	-3.466305	19.984298	-0.452380	-2.818411	-0.488857
2.090	3.468205	-0.808918	708.609418	-3.479337	20.004150	-0.450989	-2.823015	-0.491009
2.100	3.455133	-0.803519	708.248661	-3.489602	20.027095	-0.445681	-2.827693	-0.492709
2.110	3.447198	-0.822801	708.021817	-3.498934	20.055620	-0.437636	-2.832627	-0.494184
2.120	3.444358	-0.862529	707.941788	-3.509205	20.090770	-0.427876	-2.837913	-0.495691
2.130	3.445708	-0.911421	707.995791	-3.521326	20.131854	-0.417100	-2.843499	-0.497365
2.140	3.448118	-0.954589	708.155080	-3.534570	20.176677	-0.405852	-2.849189	-0.499124
2.150	3.446200	-0.978472	708.386464	-3.546701	20.222207	-0.394749	-2.854686	-0.500673
2.160	3.434166	-0.975377	708.659995	-3.554881	20.265428	-0.384518	-2.859683	-0.501634
2.170	3.408735	-0.946113	708.950548	-3.556887	20.304013	-0.375787	-2.863953	-0.501712
2.180	3.371334	-0.899845	709.235822	-3.552007	20.336606	-0.368792	-2.867397	-0.500822
2.190	3.328191	-0.851167	709.494940	-3.541235	20.362691	-0.363253	-2.870026	-0.499121
2.200	3.288343	-0.815279	709.709365	-3.526761	20.382218	-0.358502	-2.871911	-0.496930
2.210	3.260871	-0.802923	709.864952	-3.511144	20.395290	-0.353803	-2.873123	-0.494621
2.220	3.252770	-0.816892	709.954003	-3.496545	20.402091	-0.348729	-2.873720	-0.492503
2.230	3.267980	-0.851310	709.977510	-3.484212	20.403070	-0.343410	-2.873763	-0.490750
2.240	3.307244	-0.893873	709.947212	-3.474299	20.399199	-0.338561	-2.873340	-0.489374
2.250	3.368169	-0.930130	709.885124	-3.466061	20.392034	-0.335271	-2.872582	-0.488257
2.260	3.445284	-0.948288	709.818336	-3.458308	20.383487	-0.334641	-2.871648	-0.487210
2.270	3.530374	-0.942916	709.770247	-3.449936	20.375398	-0.337368	-2.870703	-0.486064
2.280	3.613535	-0.916494	709.752708	-3.440315	20.369123	-0.343424	-2.869890	-0.484720
2.290	3.685017	-0.878537	709.763020	-3.429483	20.365272	-0.351971	-2.869306	-0.483187
2.300	3.737375	-0.842593	709.785984	-3.418240	20.363623	-0.361575	-2.868981	-0.481587
2.310	3.767157	-0.821846	709.798491	-3.408212	20.363281	-0.370629	-2.868882	-0.480166
