Time[s]	Fx[N]	Fy[N]	Fz[N]	Mx[Nm]	My[Nm]	Mz[Nm]	COPx[cm]	COPy[cm]
0.010	1.127521	0.425232	504.290061	-3.381003	24.294492	-0.972455	-4.817563	-0.670448
0.020	1.290666	0.464469	503.933062	-3.283193	24.176077	-0.979064	-4.797478	-0.651514
0.030	1.449639	0.508566	503.630803	-3.188282	24.058722	-0.986115	-4.777055	-0.633059
0.040	1.600541	0.559487	503.426410	-3.098214	23.944906	-0.994013	-4.756387	-0.615425
0.050	1.739584	0.615865	503.341704	-3.013736	23.838618	-1.003035	-4.736070	-0.598746
0.060	1.862775	0.673253	503.375850	-2.934348	23.744603	-1.013215	-4.717072	-0.582934
0.070	1.965951	0.725839	503.509393	-2.858481	23.666868	-1.024245	-4.700383	-0.567712
0.080	2.045503	0.768786	503.711059	-2.783853	23.607250	-1.035457	-4.686665	-0.552669
0.090	2.099689	0.800141	503.945256	-2.707970	23.564782	-1.045991	-4.676060	-0.537354
0.100	2.130032	0.821698	504.178729	-2.628767	23.536018	-1.055094	-4.668190	-0.521396
0.110	2.141945	0.838684	504.384293	-2.545210	23.516036	-1.062376	-4.662325	-0.504617
0.120	2.143769	0.858295	504.540108	-2.457654	23.499692	-1.067852	-4.657646	-0.487108
0.130	2.144108	0.887389	504.626010	-2.367749	23.482841	-1.071809	-4.653514	-0.469209
0.140	2.148526	0.930117	504.621559	-2.277910	23.463271	-1.074611	-4.649677	-0.451410
0.150	2.157317	0.986411	504.509951	-2.190523	23.441187	-1.076593	-4.646328	-0.434188
0.160	2.165504	1.051971	504.287260	-2.107209	23.419086	-1.078018	-4.643997	-0.417859
0.170	2.164873	1.119905	503.971316	-2.028420	23.401073	-1.079056	-4.643334	-0.402487
0.180	2.146877	1.183565	503.603163	-1.953463	23.391831	-1.079713	-4.644894	-0.387897
0.190	2.105191	1.239498	503.238278	-1.880799	23.395600	-1.079756	-4.649011	-0.373739
0.200	2.037146	1.289065	502.931556	-1.808385	23.415472	-1.078727	-4.655797	-0.359569
0.210	1.943847	1.337898	502.723929	-1.733947	23.453059	-1.076104	-4.665197	-0.344910
0.220	1.829374	1.393459	502.636317	-1.655333	23.508429	-1.071540	-4.677026	-0.329330
0.230	1.699887	1.461874	502.671014	-1.571145	23.580118	-1.065065	-4.690964	-0.312559
0.240	1.563169	1.545488	502.816652	-1.481592	23.665205	-1.057131	-4.706528	-0.294658
0.250	1.428380	1.642103	503.052765	-1.389127	23.759442	-1.048482	-4.723052	-0.276139
0.260	1.305458	1.745888	503.352452	-1.298341	23.857502	-1.039895	-4.739721	-0.257939
0.270	1.203798	1.849160	503.683763	-1.214865	23.953365	-1.031850	-4.755636	-0.241196
0.280	1.130545	1.944264	504.010803	-1.143600	24.040919	-1.024280	-4.769921	-0.226900
0.290	1.089136	2.025139	504.295215	-1.087068	24.114806	-1.016560	-4.781883	-0.215562
0.300	1.078562	2.088392	504.499015	-1.044692	24.171418	-1.007854	-4.791172	-0.207075
0.310	1.093569	2.133761	504.590323	-1.013258	24.209834	-0.997690	-4.797919	-0.200808
0.320	1.125786	2.163930	504.552324	-0.988213	24.232367	-0.986416	-4.802746	-0.195859
0.330	1.165545	2.183638	504.392723	-0.965162	24.244348	-0.975205	-4.806641	-0.191351
0.340	1.203750	2.197991	504.148766	-0.941015	24.252994	-0.965547	-4.810682	-0.186654
0.350	1.233143	2.210318	503.883480	-0.914470	24.265529	-0.958466	-4.815702	-0.181484
0.360	1.248775	2.220543	503.671633	-0.885799	24.287146	-0.953924	-4.822020	-0.175868
0.370	1.248045	2.225208	503.577969	-0.856151	24.319540	-0.950774	-4.829349	-0.170014
0.380	1.230932	2.219533	503.634689	-0.826809	24.360534	-0.947314	-4.836945	-0.164168
0.390	1.200633	2.200719	503.827496	-0.798752	24.404888	-0.942197	-4.843898	-0.158537
0.400	1.164059	2.170835	504.097482	-0.772600	24.445964	-0.935231	-4.849452	-0.153264
0.410	1.131244	2.137515	504.360144	-0.748731	24.477663	-0.927646	-4.853211	-0.148452
0.420	1.113349	2.111660	504.535840	-0.727278	24.496138	-0.921648	-4.855183	-0.144148
0.430	1.119933	2.103078	504.581369	-0.707871	24.501016	-0.919445	-4.855712	-0.140289
0.440	1.156463	2.116317	504.511162	-0.689383	24.495975	-0.922223	-4.855388	-0.136644
0.450	1.222530	2.148930	504.398517	-0.670107	24.488360	-0.929577	-4.854963	-0.132853
0.460	1.310818	2.192852	504.352501	-0.648471	24.487465	-0.939690	-4.855228	-0.128575
0.470	1.407311	2.237883	504.475401	-0.623887	24.501507	-0.950159	-4.856829	-0.123670
0.480	1.493751	2.275387	504.816032	-0.597063	24.534155	-0.959046	-4.860019	-0.118273
0.490	1.552815	2.300690	505.339092	-0.569581	24.582053	-0.965618	-4.864467	-0.112713
0.500	1.574799	2.313539	505.925572	-0.543158	24.634661	-0.970429	-4.869226	-0.107359
0.510	1.562886	2.316860	506.406285	-0.519184	24.676929	-0.974753	-4.872951	-0.102523
0.520	1.533966	2.314654	506.616693	-0.498619	24.694163	-0.979730	-4.874329	-0.098421
0.530	1.513745	2.310180	506.452299	-0.481956	24.677424	-0.985662	-4.872606	-0.095163
0.540	1.527601	2.305202	505.903750	-0.468999	24.627310	-0.991831	-4.867983	-0.092705
0.550	1.590757	2.300166	505.059173	-0.458656	24.554421	-0.996885	-4.861692	-0.090812
0.560	1.701858	2.294558	504.074801	-0.449125	24.476235	-0.999583	-4.855675	-0.089099
0.570	1.842658	2.286900	503.127378	-0.438502	24.411642	-0.999488	-4.851981	-0.087155
0.580	1.984057	2.274668	502.367403	-0.425434	24.375310	-0.997228	-4.852088	-0.084686
0.590	2.095972	2.254814	501.888832	-0.409431	24.373862	-0.994220	-4.856427	-0.081578
0.600	2.156951	2.225176	501.721086	-0.390806	24.404957	-0.992087	-4.864248	-0.077893
0.610	2.159834	2.186210	501.839263	-0.370502	24.459176	-0.992166	-4.873906	-0.073829
0.620	2.111864	2.141978	502.183197	-0.349986	24.523766	-0.995286	-4.883430	-0.069693
0.630	2.030115	2.099549	502.676478	-0.331156	24.586815	-1.001779	-4.891181	-0.065879
0.640	1.934592	2.066795	503.240247	-0.316072	24.640479	-1.011517	-4.896365	-0.062807
0.650	1.841656	2.049385	503.800896	-0.306409	24.682334	-1.023900	-4.899224	-0.060820
0.660	1.759811	2.048310	504.294181	-0.302741	24.714690	-1.037850	-4.900848	-0.060033
0.670	1.688845	2.059148	504.669481	-0.304040	24.742492	-1.051936	-4.902712	-0.060245
0.680	1.622143	2.073627	504.895756	-0.307808	24.770776	-1.064680	-4.906117	-0.060965
0.690	1.550920	2.082811	504.966565	-0.310984	24.802583	-1.074963	-4.911728	-0.061585
0.700	1.468623	2.080481	504.899458	-0.311255	24.837856	-1.082339	-4.919367	-0.061647
0.710	1.373994	2.065302	504.727921	-0.308024	24.873438	-1.087035	-4.928088	-0.061028
0.720	1.272013	2.041109	504.489310	-0.302393	24.904044	-1.089627	-4.936486	-0.059940
0.730	1.172849	2.015285	504.214991	-0.296253	24.923902	-1.090661	-4.943110	-0.058755
0.740	1.089431	1.995850	503.926969	-0.291125	24.928505	-1.090569	-4.946849	-0.057771
0.750	1.034342	1.988397	503.640609	-0.287481	24.915850	-1.089886	-4.947149	-0.057081
0.760	1.016609	1.994051	503.369742	-0.284844	24.886828	-1.089483	-4.944045	-0.056587
0.770	1.039140	2.009166	503.130529	-0.282437	24.844867	-1.090471	-4.938056	-0.056136
0.780	1.097684	2.026801	502.942676	-0.279924	24.795151	-1.093732	-4.930015	-0.055657
0.790	1.181834	2.039422	502.828326	-0.277758	24.743646	-1.099382	-4.920893	-0.055239
0.800	1.277758	2.041867	502.808932	-0.276964	24.696022	-1.106490	-4.911612	-0.055083
0.810	1.371667	2.033375	502.899637	-0.278500	24.656603	-1.113249	-4.902887	-0.055379
0.820	1.452817	2.017636	503.101377	-0.282662	24.627504	-1.117577	-4.895137	-0.056184
0.830	1.515175	2.000747	503.393723	-0.288935	24.608125	-1.117966	-4.888445	-0.057397
0.840	1.557615	1.988116	503.733586	-0.296386	24.595101	-1.114226	-4.882561	-0.058838
0.850	1.583064	1.982041	504.062750	-0.304273	24.582838	-1.107669	-4.876940	-0.060364
0.860	1.597188	1.981146	504.321822	-0.312406	24.564831	-1.100526	-4.870864	-0.061946
0.870	1.606990	1.981533	504.464518	-0.321018	24.535583	-1.094871	-4.863689	-0.063635
0.880	1.619406	1.978685	504.467130	-0.330237	24.492508	-1.091594	-4.855125	-0.065463
0.890	1.639908	1.969155	504.331853	-0.339548	24.436903	-1.089961	-4.845402	-0.067326
0.900	1.671204	1.951673	504.085319	-0.347709	24.373564	-1.087938	-4.835206	-0.068978
0.910	1.712272	1.927643	503.773647	-0.353318	24.309299	-1.083084	-4.825441	-0.070134
0.920	1.758066	1.901069	503.454320	-0.355745	24.251080	-1.073649	-4.816938	-0.070661
0.930	1.800221	1.877700	503.185548	-0.355715	24.204516	-1.059397	-4.810257	-0.070693
0.940	1.828939	1.863279	503.015120	-0.355001	24.172964	-1.041824	-4.805614	-0.070575
0.950	1.835851	1.861343	502.971602	-0.355299	24.157313	-1.023653	-4.802918	-0.070640
0.960	1.817061	1.871572	503.060012	-0.357011	24.156259	-1.007831	-4.801864	-0.070968
0.970	1.775219	1.889644	503.262386	-0.358749	24.166879	-0.996451	-4.802044	-0.071285
0.980	1.719768	1.908897	503.542418	-0.357880	24.185321	-0.990006	-4.803035	-0.071073
0.990	1.665176	1.923136	503.853138	-0.351792	24.207480	-0.987264	-4.804471	-0.069820
1.000	1.627513	1.929288	504.146437	-0.339147	24.229650	-0.985797	-4.806074	-0.067271
1.010	1.620062	1.928516	504.382386	-0.320555	24.249081	-0.982965	-4.807678	-0.063554
1.020	1.649223	1.925142	504.535650	-0.298436	24.264405	-0.977017	-4.809255	-0.059151
1.030	1.712243	1.924002	504.597494	-0.276167	24.275812	-0.967805	-4.810926	-0.054730
1.040	1.797882	1.927896	504.574228	-0.256899	24.284922	-0.956798	-4.812953	-0.050914
1.050	1.889901	1.936670	504.484024	-0.242552	24.294336	-0.946357	-4.815680	-0.048079
1.060	1.971907	1.948381	504.353055	-0.233491	24.307044	-0.938643	-4.819450	-0.046295
1.070	2.031514	1.961532	504.210904	-0.229000	24.325851	-0.934754	-4.824539	-0.045418
1.080	2.062413	1.976704	504.085610	-0.228187	24.352948	-0.934484	-4.831114	-0.045268
1.090	2.064129	1.996307	503.999389	-0.230718	24.389641	-0.936725	-4.839220	-0.045777
1.100	2.040210	2.022590	503.965804	-0.236982	24.436223	-0.940147	-4.848786	-0.047023
1.110	1.995890	2.055426	503.988433	-0.247697	24.492052	-0.943715	-4.859646	-0.049147
1.120	1.936145	2.091577	504.060789	-0.263269	24.555872	-0.946830	-4.871609	-0.052230
1.130	1.864748	2.125936	504.167098	-0.283289	24.626244	-0.949168	-4.884540	-0.056190
1.140	1.784389	2.153887	504.283664	-0.306410	24.701839	-0.950496	-4.898402	-0.060761
1.150	1.697399	2.173223	504.381139	-0.330583	24.781411	-0.950659	-4.913231	-0.065542
1.160	1.606393	2.184499	504.428381	-0.353496	24.863642	-0.949679	-4.929073	-0.070078
1.170	1.514440	2.189774	504.398543	-0.373033	24.947248	-0.947809	-4.945940	-0.073956
1.180	1.424745	2.190787	504.277206	-0.387713	25.031526	-0.945432	-4.963842	-0.076885
1.190	1.339990	2.187905	504.070468	-0.397133	25.117063	-0.942901	-4.982848	-0.078785
1.200	1.261563	2.180434	503.808694	-0.402309	25.205973	-0.940476	-5.003084	-0.079854
1.210	1.189118	2.167905	503.541933	-0.405666	25.301251	-0.938379	-5.024656	-0.080562
1.220	1.120993	2.151297	503.326562	-0.410503	25.405392	-0.936868	-5.047497	-0.081558
1.230	1.055710	2.133193	503.207268	-0.420059	25.518925	-0.936191	-5.071255	-0.083476
1.240	0.993933	2.116599	503.201119	-0.436512	25.639552	-0.936446	-5.095289	-0.086747
1.250	0.939596	2.103113	503.290718	-0.460284	25.762295	-0.937509	-5.118770	-0.091455
1.260	0.899096	2.091671	503.430966	-0.489930	25.880601	-0.939152	-5.140844	-0.097318
1.270	0.878667	2.078742	503.567805	-0.522697	25.988026	-0.941268	-5.160780	-0.103799
1.280	0.881231	2.060018	503.660361	-0.555598	26.079963	-0.943991	-5.178085	-0.110312
1.290	0.904342	2.032751	503.695653	-0.586522	26.154829	-0.947594	-5.192586	-0.116444
1.300	0.940197	1.997407	503.689862	-0.614817	26.214383	-0.952259	-5.204469	-0.122063
1.310	0.977763	1.957690	503.677364	-0.641125	26.263107	-0.957902	-5.214272	-0.127289
1.320	1.006251	1.918936	503.693689	-0.666729	26.306925	-0.964151	-5.222802	-0.132368
1.330	1.018503	1.885774	503.759806	-0.692877	26.351682	-0.970451	-5.231001	-0.137541
1.340	1.012870	1.860101	503.873712	-0.720370	26.401816	-0.976217	-5.239768	-0.142966
1.350	0.992779	1.840154	504.012070	-0.749500	26.459541	-0.980994	-5.249783	-0.148707
1.360	0.964387	1.821180	504.140657	-0.780247	26.524688	-0.984595	-5.261367	-0.154768
1.370	0.933639	1.797634	504.229037	-0.812568	26.595151	-0.987179	-5.274419	-0.161151
1.380	0.904232	1.766127	504.263373	-0.846519	26.667727	-0.989196	-5.288452	-0.167872
1.390	0.877269	1.727677	504.252301	-0.882023	26.739038	-0.991208	-5.302710	-0.174917
1.400	0.852280	1.688009	504.223586	-0.918443	26.806279	-0.993641	-5.316348	-0.182150
1.410	0.828591	1.655544	504.212413	-0.954312	26.867690	-0.996622	-5.328645	-0.189268
1.420	0.806095	1.637994	504.245503	-0.987563	26.922690	-1.000011	-5.339203	-0.195850
1.430	0.785140	1.639147	504.328125	-1.016206	26.971619	-1.003621	-5.348030	-0.201497
1.440	0.766036	1.657334	504.440782	-1.039119	27.015150	-1.007448	-5.355465	-0.205994
1.450	0.748929	1.686065	504.547420	-1.056463	27.053690	-1.011724	-5.361972	-0.209388
1.460	0.734195	1.716282	504.610556	-1.069469	27.087118	-1.016701	-5.367925	-0.211939
1.470	0.722765	1.739067	504.605453	-1.079706	27.114976	-1.022330	-5.373500	-0.213970
1.480	0.715802	1.747904	504.527380	-1.088301	27.136845	-1.028067	-5.378666	-0.215707
1.490	0.713880	1.740026	504.390720	-1.095606	27.152576	-1.032970	-5.383243	-0.217214
1.500	0.716280	1.716689	504.222601	-1.101559	27.162293	-1.036023	-5.386965	-0.218467
1.510	0.720774	1.682381	504.054727	-1.106490	27.166261	-1.036537	-5.389546	-0.219518
1.520	0.723952	1.643227	503.915859	-1.111724	27.164771	-1.034473	-5.390736	-0.220617
1.530	0.722092	1.605273	503.826013	-1.119377	27.158076	-1.030564	-5.390368	-0.222175
1.540	0.712591	1.573294	503.793142	-1.131258	27.146311	-1.026139	-5.388384	-0.224548
1.550	0.695627	1.550295	503.813016	-1.147493	27.129419	-1.022691	-5.384819	-0.227762
1.560	0.675227	1.537359	503.872444	-1.165861	27.107104	-1.021361	-5.379755	-0.231380
1.570	0.658844	1.533615	503.954921	-1.182376	27.078904	-1.022552	-5.373279	-0.234619
1.580	0.655216	1.536507	504.046736	-1.192840	27.044323	-1.025819	-5.365440	-0.236653
1.590	0.671358	1.542715	504.140908	-1.194482	27.002913	-1.030066	-5.356223	-0.236934
1.600	0.710125	1.549584	504.236683	-1.186857	26.954317	-1.033947	-5.345568	-0.235377
1.610	0.769541	1.556402	504.334490	-1.171709	26.898436	-1.036278	-5.333452	-0.232328
1.620	0.844116	1.564763	504.429462	-1.152116	26.835811	-1.036290	-5.320032	-0.228400
1.630	0.927369	1.577696	504.508280	-1.131394	26.767939	-1.033727	-5.305748	-0.224257
1.640	1.014145	1.597862	504.552385	-1.112168	26.697081	-1.028833	-5.291241	-0.220427
1.650	1.101743	1.625729	504.546748	-1.095710	26.625393	-1.022324	-5.277091	-0.217167
1.660	1.189728	1.658844	504.489700	-1.081659	26.553794	-1.015322	-5.263496	-0.214407
1.670	1.279037	1.692770	504.397904	-1.068270	26.481338	-1.009233	-5.250089	-0.211791
1.680	1.371082	1.723197	504.302255	-1.053244	26.405527	-1.005473	-5.236052	-0.208852
1.690	1.467309	1.747967	504.235217	-1.034876	26.323377	-1.005081	-5.220456	-0.205237
1.700	1.569249	1.767753	504.215385	-1.012957	26.232616	-1.008320	-5.202661	-0.200898
1.710	1.678474	1.785064	504.237478	-0.988934	26.132569	-1.014425	-5.182592	-0.196125
1.720	1.795756	1.802266	504.273515	-0.965361	26.024646	-1.021651	-5.160819	-0.191436
1.730	1.919456	1.819803	504.284704	-0.945018	25.912515	-1.027644	-5.138469	-0.187398
1.740	2.044219	1.835419	504.237953	-0.930187	25.801908	-1.030075	-5.117010	-0.184474
1.750	2.161192	1.844634	504.119498	-0.922252	25.699864	-1.027336	-5.097971	-0.182943
1.760	2.259965	1.842319	503.940701	-0.921580	25.613414	-1.019046	-5.082625	-0.182875
1.770	2.331297	1.824993	503.734678	-0.927583	25.548032	-1.006164	-5.071724	-0.184141
1.780	2.369364	1.792962	503.545623	-0.938922	25.506363	-0.990708	-5.065353	-0.186462
1.790	2.372848	1.751147	503.415097	-0.953826	25.487669	-0.975175	-5.062953	-0.189471
1.800	2.344782	1.707899	503.370271	-0.970513	25.488054	-0.961875	-5.063480	-0.192803
1.810	2.291531	1.672200	503.417405	-0.987598	25.501321	-0.952339	-5.065641	-0.196179
1.820	2.221389	1.650498	503.541174	-1.004333	25.520284	-0.946932	-5.068162	-0.199454
1.830	2.143173	1.644450	503.708871	-1.020575	25.538415	-0.944763	-5.070074	-0.202612
1.840	2.064982	1.650370	503.878456	-1.036533	25.551508	-0.943941	-5.070967	-0.205711
1.850	1.993255	1.660486	504.009501	-1.052473	25.558853	-0.942157	-5.071105	-0.208820
1.860	1.932290	1.665477	504.075144	-1.068574	25.563348	-0.937465	-5.071337	-0.211987
1.870	1.884181	1.657376	504.071055	-1.084977	25.570372	-0.929011	-5.072771	-0.215243
1.880	1.848913	1.631876	504.016534	-1.101988	25.585766	-0.917422	-5.076374	-0.218641
1.890	1.824365	1.589478	503.945570	-1.120245	25.613697	-0.904642	-5.082632	-0.222295
1.900	1.806417	1.535240	503.891229	-1.140707	25.655182	-0.893283	-5.091413	-0.226380
1.910	1.789638	1.477294	503.871046	-1.164442	25.707837	-0.885760	-5.102067	-0.231099
1.920	1.768669	1.424500	503.880786	-1.192317	25.766929	-0.883553	-5.113695	-0.236627
1.930	1.739632	1.383899	503.899364	-1.224724	25.827250	-0.886836	-5.125478	-0.243049
1.940	1.700523	1.358733	503.901786	-1.261329	25.884978	-0.894510	-5.136909	-0.250313
1.950	1.650343	1.347779	503.873170	-1.300900	25.938756	-0.904632	-5.147874	-0.258180
1.960	1.587963	1.346337	503.816763	-1.341370	25.989696	-0.915052	-5.158561	-0.266242
1.970	1.511972	1.348473	503.752227	-1.380296	26.040527	-0.924043	-5.169313	-0.274003
1.980	1.421762	1.349446	503.705623	-1.415572	26.094313	-0.930650	-5.180469	-0.281032
1.990	1.318898	1.347114	503.696773	-1.445965	26.153148	-0.934687	-5.192240	-0.287071
2.000	1.207784	1.341702	503.730693	-1.471160	26.217203	-0.936425	-5.204607	-0.292053
2.010	1.095375	1.334420	503.796777	-1.491399	26.284438	-0.936239	-5.217270	-0.296032
2.020	0.990209	1.326145	503.874719	-1.507055	26.351146	-0.934416	-5.229702	-0.299093
2.030	0.900974	1.317195	503.943013	-1.518405	26.413130	-0.931225	-5.241293	-0.301305
2.040	0.834691	1.308201	503.985839	-1.525619	26.467054	-0.927137	-5.251547	-0.302711
2.050	0.794795	1.301120	503.996315	-1.528837	26.511459	-0.922966	-5.260249	-0.303343
2.060	0.779825	1.299349	503.976293	-1.528229	26.547159	-0.919769	-5.267541	-0.303234
2.070	0.783467	1.306535	503.933675	-1.523964	26.576983	-0.918532	-5.273905	-0.302414
2.080	0.796245	1.324771	503.878468	-1.516155	26.604972	-0.919839	-5.280038	-0.300897
2.090	0.808413	1.353349	503.819552	-1.504949	26.635244	-0.923714	-5.286663	-0.298708
2.100	0.813139	1.388928	503.764294	-1.490773	26.670830	-0.929732	-5.294307	-0.295927
2.110	0.808818	1.426983	503.720858	-1.474479	26.712877	-0.937272	-5.303111	-0.292717
2.120	0.799567	1.463773	503.700170	-1.457185	26.760448	-0.945709	-5.312773	-0.289296
2.130	0.793519	1.497798	503.714338	-1.439869	26.811007	-0.954445	-5.322661	-0.285850
2.140	0.799384	1.530003	503.771397	-1.422982	26.861368	-0.962877	-5.332055	-0.282466
2.150	0.822445	1.562578	503.869493	-1.406302	26.908810	-0.970429	-5.340432	-0.279101
2.160	0.861628	1.596943	503.994205	-1.389163	26.951937	-0.976677	-5.347668	-0.275631
2.170	0.909015	1.632059	504.120859	-1.370931	26.991000	-0.981461	-5.354073	-0.271945
2.180	0.952193	1.663992	504.220962	-1.351420	27.027546	-0.984849	-5.360258	-0.268021
2.190	0.978471	1.687033	504.270136	-1.330912	27.063582	-0.986983	-5.366882	-0.263928
2.200	0.979207	1.695880	504.254729	-1.309821	27.100627	-0.987922	-5.374392	-0.259754
2.210	0.952624	1.687847	504.175255	-1.288408	27.139036	-0.987652	-5.382858	-0.255548
2.220	0.904300	1.664068	504.046068	-1.266880	27.177817	-0.986305	-5.391931	-0.251342
2.230	0.845458	1.629211	503.891632	-1.245747	27.214981	-0.984408	-5.400959	-0.247225
2.240	0.789754	1.589920	503.740507	-1.226085	27.248266	-0.982940	-5.409187	-0.243396
2.250	0.749463	1.552759	503.618491	-1.209494	27.275928	-0.983076	-5.415990	-0.240161
2.260	0.732114	1.522552	503.542400	-1.197747	27.297247	-0.985729	-5.421042	-0.237864
2.270	0.738709	1.501884	503.516056	-1.192294	27.312563	-0.991134	-5.424368	-0.236794
2.280	0.764165	1.491792	503.530188	-1.193755	27.322945	-0.998697	-5.426277	-0.237077
2.290	0.799645	1.492892	503.567210	-1.201494	27.329687	-1.007154	-5.427217	-0.238596
2.300	0.835661	1.505877	503.609593	-1.213430	27.333828	-1.014971	-5.427583	-0.240947
2.310	0.864824	1.530912	503.647973	-1.226259	27.335756	-1.020850	-5.427552	-0.243475
2.320	0.883557	1.566332	503.684610	-1.236145	27.334993	-1.024169	-5.427006	-0.245420
2.330	0.892409	1.607687	503.730344	-1.239667	27.330313	-1.025168	-5.425584	-0.246097
2.340	0.894912	1.647995	503.797016	-1.234639	27.320230	-1.024724	-5.422865	-0.245067
