Time[s]	Fx[N]	Fy[N]	Fz[N]	Mx[Nm]	My[Nm]	Mz[Nm]	COPx[cm]	COPy[cm]
0.010	4.235491	-0.769000	442.988020	1.594683	-6.871764	-0.289433	1.551230	0.359983
0.020	4.738578	-0.809282	441.884918	1.554017	-7.111294	-0.283517	1.609309	0.351679
0.030	5.202291	-0.844050	440.952207	1.513817	-7.343167	-0.276851	1.665298	0.343306
0.040	5.596381	-0.871585	440.318839	1.474346	-7.561374	-0.269015	1.717250	0.334836
0.050	5.905361	-0.895219	440.044800	1.435617	-7.762763	-0.260056	1.764085	0.326243
0.060	6.128253	-0.920747	440.113806	1.397456	-7.946972	-0.250546	1.805663	0.317521
0.070	6.274393	-0.952229	440.445884	1.359555	-8.115509	-0.241465	1.842567	0.308677
0.080	6.358351	-0.988988	440.923753	1.321463	-8.270652	-0.233884	1.875756	0.299703
0.090	6.396598	-1.025387	441.424405	1.282610	-8.414815	-0.228539	1.906287	0.290562
0.100	6.406763	-1.053141	441.846914	1.242457	-8.550397	-0.225501	1.935149	0.281196
0.110	6.408213	-1.064730	442.129208	1.200766	-8.679681	-0.224088	1.963155	0.271587
0.120	6.421745	-1.056293	442.250918	1.157890	-8.804363	-0.223035	1.990807	0.261817
0.130	6.466880	-1.028890	442.224788	1.114977	-8.924726	-0.220812	2.018142	0.252129
0.140	6.557247	-0.987831	442.082135	1.073970	-9.038886	-0.215996	2.044617	0.242935
0.150	6.696081	-0.940461	441.857786	1.037233	-9.142677	-0.207703	2.069145	0.234744
0.160	6.873977	-0.893219	441.579207	1.006872	-9.230394	-0.196000	2.090315	0.228016
0.170	7.069940	-0.849020	441.263498	0.983974	-9.296231	-0.182127	2.106730	0.222990
0.180	7.255458	-0.806119	440.922592	0.968026	-9.335915	-0.168368	2.117359	0.219546
0.190	7.400462	-0.759376	440.572448	0.956665	-9.348067	-0.157525	2.121800	0.217141
0.200	7.479795	-0.703780	440.239760	0.945932	-9.334830	-0.152132	2.120397	0.214868
0.210	7.478819	-0.638739	439.961094	0.931113	-9.301457	-0.153724	2.114154	0.211635
0.220	7.396975	-0.570798	439.773304	0.907974	-9.254799	-0.162420	2.104448	0.206464
0.230	7.248351	-0.512882	439.699134	0.873934	-9.201104	-0.176936	2.092591	0.198757
0.240	7.058713	-0.479738	439.735676	0.828705	-9.143857	-0.194954	2.079399	0.188455
0.250	6.859344	-0.481270	439.852279	0.774348	-9.082433	-0.213703	2.064882	0.176047
0.260	6.679269	-0.516892	439.998450	0.714980	-9.012013	-0.230627	2.048192	0.162496
0.270	6.538323	-0.573709	440.116792	0.656281	-8.924850	-0.244004	2.027837	0.149115
0.280	6.443302	-0.629429	440.155719	0.604631	-8.812496	-0.253299	2.002131	0.137368
0.290	6.387980	-0.658783	440.080156	0.565661	-8.668225	-0.259107	1.969692	0.128536
0.300	6.356216	-0.641110	439.880336	0.542338	-8.488779	-0.262687	1.929793	0.123292
0.310	6.326447	-0.566637	439.577571	0.533223	-8.274821	-0.265378	1.882449	0.121304
0.320	6.275938	-0.439557	439.223991	0.531668	-8.030159	-0.268182	1.828260	0.121047
0.330	6.183772	-0.277073	438.893886	0.526494	-7.760223	-0.271666	1.768132	0.119959
0.340	6.032389	-0.104999	438.667706	0.504101	-7.470504	-0.276088	1.702998	0.114916
0.350	5.808234	0.048333	438.613718	0.451505	-7.165489	-0.281609	1.633667	0.102939
0.360	5.502682	0.157799	438.774184	0.359435	-6.848430	-0.288391	1.560810	0.081918
0.370	5.114313	0.205379	439.160992	0.224550	-6.521968	-0.296484	1.485097	0.051132
0.380	4.652365	0.181798	439.760919	0.050027	-6.189356	-0.305498	1.407437	0.011376
0.390	4.139567	0.086219	440.545841	-0.155623	-5.855701	-0.314314	1.329192	-0.035325
0.400	3.611944	-0.075365	441.481021	-0.380934	-5.528475	-0.321145	1.252257	-0.086286
0.410	3.114273	-0.292271	442.526471	-0.614152	-5.216761	-0.324143	1.178858	-0.138783
0.420	2.691832	-0.551001	443.631545	-0.845386	-4.929331	-0.322308	1.111132	-0.190560
0.430	2.380686	-0.836370	444.728008	-1.067803	-4.672289	-0.316180	1.050595	-0.240102
0.440	2.199147	-1.131928	445.728294	-1.277811	-4.447307	-0.307869	0.997762	-0.286679
0.450	2.142647	-1.420112	446.533255	-1.474551	-4.251313	-0.300398	0.952071	-0.330222
0.460	2.183577	-1.682840	447.049639	-1.659163	-4.077830	-0.296656	0.912165	-0.371136
0.470	2.276899	-1.903200	447.213619	-1.834060	-3.919464	-0.298434	0.876419	-0.410108
0.480	2.370993	-2.068515	447.012909	-2.002129	-3.770569	-0.305836	0.843503	-0.447891
0.490	2.421242	-2.174103	446.497207	-2.165840	-3.629050	-0.317220	0.812782	-0.485073
0.500	2.402181	-2.226126	445.768625	-2.326419	-3.496637	-0.329639	0.784406	-0.521889
0.510	2.314064	-2.241618	444.952046	-2.483481	-3.377635	-0.339629	0.759101	-0.558146
0.520	2.181570	-2.244654	444.156242	-2.635274	-3.276776	-0.344123	0.737753	-0.593321
0.530	2.045230	-2.259425	443.442668	-2.779320	-3.197177	-0.341253	0.720990	-0.626760
0.540	1.948648	-2.302534	442.815788	-2.912922	-3.139211	-0.330850	0.708920	-0.657818
0.550	1.925651	-2.377426	442.238020	-3.033252	-3.100463	-0.314532	0.701085	-0.685887
0.560	1.990957	-2.473087	441.660300	-3.137179	-3.076298	-0.295273	0.696530	-0.710315
0.570	2.136549	-2.567584	441.053096	-3.221429	-3.060532	-0.276519	0.693915	-0.730395
0.580	2.334400	-2.635206	440.424989	-3.283388	-3.046027	-0.261109	0.691611	-0.745505
0.590	2.544677	-2.654683	439.823034	-3.322349	-3.025439	-0.250426	0.687876	-0.755383
0.600	2.727034	-2.615627	439.316490	-3.340414	-2.992272	-0.244104	0.681120	-0.760366
0.610	2.851439	-2.521283	438.971369	-3.342453	-2.942012	-0.240334	0.670206	-0.761429
0.620	2.904899	-2.387060	438.826555	-3.335109	-2.872751	-0.236607	0.654644	-0.760006
0.630	2.891920	-2.235803	438.881316	-3.325401	-2.784909	-0.230562	0.634547	-0.757699
0.640	2.829233	-2.091583	439.098326	-3.319582	-2.680209	-0.220715	0.610389	-0.756000
0.650	2.737731	-1.974062	439.418749	-3.322526	-2.560571	-0.206844	0.582718	-0.756118
0.660	2.635246	-1.895006	439.780720	-3.337571	-2.427502	-0.190012	0.551980	-0.758917
0.670	2.532557	-1.857552	440.132545	-3.366621	-2.281993	-0.172218	0.518479	-0.764911
0.680	2.432929	-1.857819	440.436711	-3.410386	-2.124584	-0.155849	0.482381	-0.774319
0.690	2.333893	-1.887664	440.667166	-3.468632	-1.955264	-0.143100	0.443705	-0.787132
0.700	2.229587	-1.937223	440.806173	-3.540320	-1.773301	-0.135558	0.402286	-0.803147
0.710	2.112742	-1.996472	440.846146	-3.623534	-1.577484	-0.134031	0.357831	-0.821950
0.720	1.976460	-2.056008	440.797211	-3.715333	-1.367142	-0.138572	0.310152	-0.842867
0.730	1.816394	-2.107628	440.696000	-3.811825	-1.143753	-0.148553	0.259533	-0.864956
0.740	1.633265	-2.144964	440.608621	-3.908639	-0.912332	-0.162676	0.207062	-0.887100
0.750	1.434583	-2.163948	440.622505	-4.001626	-0.681582	-0.178981	0.154686	-0.908176
0.760	1.234123	-2.162948	440.826995	-4.087511	-0.462405	-0.195068	0.104895	-0.927237
0.770	1.048627	-2.142763	441.288057	-4.164344	-0.265339	-0.208654	0.060128	-0.943679
0.780	0.892965	-2.106838	442.025624	-4.231791	-0.098140	-0.218375	0.022202	-0.957363
0.790	0.776256	-2.061736	443.001414	-4.291375	0.035417	-0.224433	-0.007995	-0.968705
0.800	0.701100	-2.017336	444.121135	-4.346669	0.135299	-0.228608	-0.030464	-0.978712
0.810	0.666208	-1.986059	445.249944	-4.403261	0.204113	-0.233417	-0.045842	-0.988941
0.820	0.670480	-1.980931	446.236107	-4.468177	0.245998	-0.240716	-0.055127	-1.001303
0.830	0.715706	-2.013015	446.936437	-4.548529	0.266043	-0.250492	-0.059526	-1.017713
0.840	0.806007	-2.089050	447.238593	-4.649635	0.270272	-0.260576	-0.060431	-1.039632
0.850	0.944268	-2.209818	447.078016	-4.773332	0.265825	-0.267521	-0.059458	-1.067673
0.860	1.127641	-2.369394	446.448187	-4.917366	0.260853	-0.268181	-0.058428	-1.101442
0.870	1.344506	-2.555518	445.401965	-5.076267	0.263790	-0.261230	-0.059225	-1.139705
0.880	1.574273	-2.751424	444.042555	-5.243334	0.282068	-0.247900	-0.063523	-1.180818
0.890	1.789993	-2.939196	442.506505	-5.412905	0.320757	-0.231614	-0.072486	-1.223237
0.900	1.962840	-3.103983	440.944594	-5.582056	0.381737	-0.216708	-0.086573	-1.265931
0.910	2.067332	-3.237794	439.505724	-5.751134	0.463695	-0.206850	-0.105504	-1.308546
0.920	2.086322	-3.341531	438.324749	-5.922879	0.562812	-0.203838	-0.128401	-1.351254
0.930	2.014869	-3.424493	437.511718	-6.100478	0.673795	-0.207228	-0.154006	-1.394358
0.940	1.861980	-3.501460	437.139968	-6.285476	0.791051	-0.214810	-0.180961	-1.437864
0.950	1.649174	-3.588287	437.233229	-6.476678	0.909994	-0.223645	-0.208126	-1.481287
0.960	1.405623	-3.697370	437.755112	-6.670590	1.028315	-0.231200	-0.234906	-1.523818
0.970	1.160884	-3.834407	438.606266	-6.863030	1.146804	-0.236095	-0.261465	-1.564736
0.980	0.937504	-3.997497	439.634495	-7.050827	1.269290	-0.238218	-0.288715	-1.603793
0.990	0.746108	-4.178837	440.660615	-7.232552	1.401552	-0.238268	-0.318057	-1.641298
1.000	0.584702	-4.368204	441.517567	-7.407946	1.549465	-0.237133	-0.350941	-1.677837
1.010	0.442104	-4.556590	442.093386	-7.576520	1.716834	-0.235511	-0.388342	-1.713783
1.020	0.303740	-4.738333	442.363591	-7.736284	1.903448	-0.233914	-0.430290	-1.748852
1.030	0.157337	-4.911016	442.399177	-7.883401	2.103954	-0.232859	-0.475578	-1.781966
1.040	-0.003334	-5.073610	442.344170	-8.012994	2.307980	-0.232938	-0.521761	-1.811484
1.050	-0.177258	-5.224029	442.368610	-8.120735	2.501663	-0.234646	-0.565516	-1.835739
1.060	-0.356990	-5.357431	442.613249	-8.204451	2.670273	-0.238098	-0.603297	-1.853639
1.070	-0.530585	-5.466304	443.145789	-8.265000	2.801244	-0.242922	-0.632127	-1.865075
1.080	-0.683953	-5.542658	443.943050	-8.306076	2.886716	-0.248405	-0.650245	-1.870978
1.090	-0.803344	-5.581559	444.901961	-8.333000	2.924784	-0.253820	-0.657400	-1.872997
1.100	-0.877727	-5.584308	445.871330	-8.350936	2.919091	-0.258758	-0.654694	-1.872948
1.110	-0.900523	-5.559570	446.690737	-8.363180	2.877040	-0.263279	-0.644079	-1.872253
1.120	-0.869940	-5.521704	447.223765	-8.370208	2.807350	-0.267815	-0.627728	-1.871593
1.130	-0.787693	-5.486832	447.377988	-8.369891	2.717899	-0.272838	-0.607517	-1.870877
1.140	-0.656920	-5.468012	447.110610	-8.358633	2.614565	-0.278505	-0.584769	-1.869478
1.150	-0.480812	-5.471102	446.423730	-8.332818	2.501310	-0.284453	-0.560299	-1.866571
1.160	-0.263272	-5.492673	445.355564	-8.289907	2.381164	-0.289905	-0.534666	-1.861413
1.170	-0.011871	-5.520954	443.973605	-8.228892	2.257368	-0.294070	-0.508446	-1.853464
1.180	0.258288	-5.539891	442.372588	-8.150121	2.133886	-0.296663	-0.482373	-1.842366
1.190	0.522486	-5.535063	440.675558	-8.054720	2.015026	-0.298259	-0.457258	-1.827812
1.200	0.748684	-5.498982	439.032923	-7.943918	1.904401	-0.300241	-0.433772	-1.809413
1.210	0.904856	-5.433407	437.613881	-7.818501	1.803775	-0.304276	-0.412184	-1.786621
1.220	0.969106	-5.347687	436.587679	-7.678690	1.712265	-0.311556	-0.392193	-1.758797
1.230	0.938525	-5.254174	436.097179	-7.524586	1.626191	-0.322156	-0.372897	-1.725438
1.240	0.832985	-5.163081	436.230700	-7.357044	1.539654	-0.334846	-0.352945	-1.686503
1.250	0.692152	-5.079354	436.998269	-7.178433	1.445692	-0.347448	-0.330823	-1.642669
1.260	0.566477	-5.002771	438.317590	-6.992665	1.337778	-0.357557	-0.305208	-1.595342
1.270	0.504811	-4.930391	440.015246	-6.804334	1.211350	-0.363341	-0.275297	-1.546386
1.280	0.542257	-4.859150	441.847644	-6.617302	1.065090	-0.364113	-0.241054	-1.497643
1.290	0.691703	-4.786805	443.541154	-6.433330	0.901625	-0.360519	-0.203279	-1.450447
1.300	0.941218	-4.711171	444.843850	-6.251254	0.727333	-0.354215	-0.163503	-1.405269
1.310	1.257796	-4.628893	445.576276	-6.066947	0.551123	-0.347142	-0.123688	-1.361596
1.320	1.596290	-4.535045	445.667871	-5.874086	0.382400	-0.340648	-0.085804	-1.318041
1.330	1.911137	-4.423961	445.168939	-5.665497	0.228684	-0.334868	-0.051370	-1.272662
1.340	2.167700	-4.290838	444.234417	-5.434692	0.093584	-0.328674	-0.021066	-1.223384
1.350	2.350093	-4.133345	443.083371	-5.177246	-0.024143	-0.320288	0.005449	-1.168459
1.360	2.463295	-3.952591	441.944834	-4.891769	-0.129874	-0.308255	0.029387	-1.106873
1.370	2.529058	-3.753250	441.004374	-4.580347	-0.230781	-0.292309	0.052331	-1.038617
1.380	2.577024	-3.542912	440.365905	-4.248347	-0.332728	-0.273678	0.075557	-0.964731
1.390	2.633871	-3.330900	440.039512	-3.903631	-0.437786	-0.254703	0.099488	-0.887109
1.400	2.713879	-3.126708	439.958536	-3.555263	-0.543481	-0.237992	0.123530	-0.808090
1.410	2.814052	-2.938283	440.019063	-3.211965	-0.643987	-0.225540	0.146354	-0.729960
1.420	2.915646	-2.770519	440.125814	-2.880744	-0.732605	-0.218188	0.166453	-0.654527
1.430	2.991727	-2.624377	440.225863	-2.566026	-0.804339	-0.215535	0.182710	-0.582889
1.440	3.017771	-2.496866	440.317961	-2.269391	-0.857476	-0.216165	0.194740	-0.515398
1.450	2.980929	-2.381663	440.437337	-1.989735	-0.893565	-0.218017	0.202881	-0.451763
1.460	2.884245	-2.269991	440.626521	-1.723595	-0.916026	-0.218789	0.207892	-0.391169
1.470	2.744616	-2.151536	440.907106	-1.465570	-0.928318	-0.216403	0.210547	-0.332399
1.480	2.586216	-2.015771	441.264581	-1.208907	-0.932702	-0.209564	0.211370	-0.273964
1.490	2.432888	-1.854241	441.650928	-0.946379	-0.930152	-0.198308	0.210608	-0.214282
1.500	2.302721	-1.663676	442.001039	-0.671564	-0.921255	-0.184284	0.208428	-0.151937
1.510	2.206172	-1.448642	442.252984	-0.380381	-0.907268	-0.170543	0.205147	-0.086010
1.520	2.147011	-1.221828	442.362086	-0.072504	-0.890469	-0.160741	0.201299	-0.016390
1.530	2.124267	-1.000929	442.305082	0.247910	-0.873406	-0.157989	0.197467	0.056050
1.540	2.133512	-0.802981	442.078350	0.572557	-0.857502	-0.163727	0.193971	0.129515
1.550	2.166839	-0.638740	441.696808	0.890449	-0.841921	-0.177079	0.190611	0.201597
1.560	2.212244	-0.509887	441.195911	1.190117	-0.823493	-0.194951	0.186650	0.269748
1.570	2.253835	-0.410178	440.633772	1.461811	-0.797935	-0.212920	0.181088	0.331752
1.580	2.273861	-0.329557	440.088977	1.698974	-0.761859	-0.226656	0.173115	0.386052
1.590	2.256232	-0.259065	439.652274	1.898699	-0.714687	-0.233424	0.162557	0.431864
1.600	2.190235	-0.194501	439.413557	2.061415	-0.659603	-0.233018	0.150110	0.469129
1.610	2.073097	-0.137545	439.447291	2.190287	-0.603137	-0.227729	0.137249	0.498419
1.620	1.910682	-0.094075	439.799464	2.290714	-0.553687	-0.221337	0.125895	0.520854
1.630	1.716437	-0.070531	440.478167	2.369922	-0.519679	-0.217612	0.117981	0.538034
1.640	1.509418	-0.069961	441.448851	2.436523	-0.508074	-0.218965	0.115092	0.551938
1.650	1.312341	-0.089525	442.634464	2.499919	-0.523559	-0.225843	0.118283	0.564782
1.660	1.149858	-0.120469	443.920027	2.569545	-0.568350	-0.237019	0.128030	0.578831
1.670	1.046343	-0.150371	445.161527	2.653918	-0.642308	-0.250525	0.144286	0.596170
1.680	1.022471	-0.166578	446.200434	2.759512	-0.743090	-0.264679	0.166537	0.618447
1.690	1.090890	-0.159581	446.885327	2.889640	-0.866315	-0.278715	0.193856	0.646618
1.700	1.252257	-0.125417	447.099010	3.043832	-1.005897	-0.292768	0.224983	0.680796
1.710	1.493120	-0.066562	446.784784	3.218177	-1.154692	-0.307312	0.258445	0.720297
1.720	1.786869	0.008823	445.962833	3.406662	-1.305404	-0.322402	0.292716	0.763889
1.730	2.098268	0.089140	444.729764	3.602983	-1.451581	-0.337177	0.326396	0.810151
1.740	2.390732	0.162540	443.240686	3.802053	-1.588525	-0.349921	0.358389	0.857785
1.750	2.633981	0.220254	441.680462	4.000770	-1.713955	-0.358688	0.388053	0.905806
1.760	2.809365	0.259268	440.233825	4.198061	-1.828234	-0.362222	0.415287	0.953598
1.770	2.911363	0.283699	439.061078	4.394550	-1.933966	-0.360764	0.440478	1.000897
1.780	2.945435	0.304314	438.280230	4.592138	-2.034887	-0.356381	0.464289	1.047763
1.790	2.923529	0.335952	437.953233	4.793575	-2.134320	-0.352612	0.487340	1.094540
1.800	2.858929	0.393277	438.076133	5.001950	-2.233721	-0.353484	0.509893	1.141799
1.810	2.762349	0.486215	438.576964	5.220058	-2.331884	-0.362238	0.531693	1.190226
1.820	2.640834	0.616805	439.325832	5.449798	-2.425119	-0.380308	0.552009	1.240491
1.830	2.499970	0.778833	440.157545	5.691745	-2.508287	-0.406948	0.569861	1.293115
1.840	2.348113	0.960439	440.902503	5.945017	-2.576346	-0.439578	0.584335	1.348374
1.850	2.199827	1.148592	441.419621	6.207348	-2.625812	-0.474552	0.594856	1.406224
1.860	2.075652	1.333441	441.625106	6.475294	-2.655632	-0.507939	0.601332	1.466242
1.870	1.997286	1.510777	441.511078	6.744430	-2.667280	-0.536113	0.604125	1.527579
1.880	1.980043	1.681991	441.148926	7.009484	-2.664295	-0.556159	0.603945	1.588916
1.890	2.026170	1.852151	440.674954	7.264479	-2.651698	-0.566232	0.601736	1.648489
1.900	2.122040	2.027211	440.260043	7.503156	-2.635503	-0.565915	0.598624	1.704256
1.910	2.240240	2.211147	440.069948	7.719802	-2.622266	-0.556484	0.595875	1.754222
1.920	2.345505	2.403696	440.226495	7.910181	-2.618410	-0.540956	0.594787	1.796843
1.930	2.402483	2.599314	440.779937	8.071997	-2.629283	-0.523731	0.596507	1.831299
1.940	2.383600	2.787719	441.698623	8.204588	-2.658272	-0.509733	0.601829	1.857508
1.950	2.276013	2.955818	442.876373	8.308110	-2.706552	-0.503140	0.611130	1.875943
1.960	2.086772	3.090365	444.153582	8.382814	-2.773711	-0.506070	0.624494	1.887368
1.970	1.844788	3.180670	445.346056	8.428844	-2.858866	-0.517762	0.641943	1.892650
1.980	1.597920	3.220818	446.275229	8.446504	-2.961433	-0.534684	0.663589	1.892667
1.990	1.404316	3.211041	446.794628	8.436639	-3.081044	-0.551596	0.689588	1.888259
2.000	1.319027	3.158089	446.809885	8.400824	-3.216808	-0.563153	0.719950	1.880179
2.010	1.379064	3.074610	446.292128	8.341298	-3.366595	-0.565473	0.754348	1.869022
2.020	1.591579	2.977321	445.285107	8.260688	-3.526937	-0.557144	0.792063	1.855146
2.030	1.929847	2.883708	443.904526	8.161656	-3.693698	-0.539437	0.832093	1.838606
2.040	2.339517	2.807497	442.325931	8.046652	-3.863182	-0.515756	0.873379	1.819168
2.050	2.753713	2.754226	440.758643	7.917963	-4.033155	-0.490526	0.915048	1.796440
2.060	3.111688	2.718969	439.408294	7.778033	-4.203279	-0.467903	0.956577	1.770115
2.070	3.374156	2.687888	438.436596	7.629788	-4.374686	-0.450715	0.997792	1.740226
2.080	3.530270	2.643590	437.929862	7.476809	-4.548867	-0.439975	1.038720	1.707307
2.090	3.595132	2.572251	437.885799	7.323303	-4.726394	-0.435039	1.079367	1.672423
2.100	3.600465	2.469287	438.222252	7.173853	-4.906068	-0.434202	1.119539	1.637035
2.110	3.582780	2.341013	438.804670	7.032830	-5.084776	-0.435349	1.158779	1.602725
2.120	3.573022	2.201730	439.483627	6.903516	-5.258006	-0.436403	1.196406	1.570824
2.130	3.590117	2.068017	440.131215	6.787249	-5.420791	-0.435495	1.231631	1.542097
2.140	3.639232	1.953264	440.666053	6.682970	-5.568788	-0.431038	1.263721	1.516561
2.150	3.714246	1.864936	441.060826	6.587313	-5.699282	-0.421939	1.292176	1.493516
2.160	3.802955	1.804910	441.332555	6.495039	-5.811881	-0.407983	1.316894	1.471688
2.170	3.892946	1.771081	441.522015	6.399461	-5.908761	-0.390166	1.338271	1.449409
2.180	3.976172	1.758063	441.672342	6.292657	-5.994335	-0.370632	1.357190	1.424734
2.190	4.051093	1.756237	441.815231	6.165648	-6.074360	-0.352083	1.374864	1.395526
2.200	4.122307	1.750209	441.967005	6.008969	-6.154646	-0.336880	1.392558	1.359597
2.210	4.198170	1.718549	442.130596	5.814061	-6.239650	-0.326259	1.411268	1.315010
2.220	4.287071	1.636263	442.298176	5.575334	-6.331368	-0.320021	1.431471	1.260537
2.230	4.393368	1.480218	442.452285	5.292085	-6.428884	-0.316783	1.453012	1.196080
2.240	4.514549	1.236225	442.566925	4.969306	-6.528716	-0.314651	1.475193	1.122837
2.250	4.641023	0.905246	442.610902	4.616869	-6.625801	-0.311974	1.496981	1.043099
2.260	4.758821	0.505827	442.553797	4.247302	-6.714710	-0.307885	1.517264	0.959726
2.270	4.854168	0.071031	442.372623	3.872868	-6.790663	-0.302451	1.535055	0.875476
2.280	4.918011	-0.359597	442.056897	3.502858	-6.850041	-0.296499	1.549584	0.792400
2.290	4.948455	-0.750088	441.611629	3.141982	-6.890399	-0.291275	1.560285	0.711481
2.300	4.949786	-1.076366	441.059463	2.790397	-6.910259	-0.288041	1.566741	0.632658
2.310	4.928287	-1.330171	440.443019	2.445336	-6.909076	-0.287678	1.568665	0.555199
2.320	4.886837	-1.518192	439.826315	2.103695	-6.887493	-0.290374	1.565957	0.478301
2.330	4.821139	-1.657941	439.291996	1.764612	-6.847735	-0.295501	1.558812	0.401695
2.340	4.719883	-1.772441	438.931122	1.431095	-6.793876	-0.301707	1.547823	0.326041
2.350	4.569589	-1.885218	438.825183	1.110164	-6.731762	-0.307227	1.534042	0.252985
2.360	4.362851	-2.016088	439.024381	0.811442	-6.668472	-0.310311	1.518930	0.184828
2.370	4.106652	-2.177680	439.529396	0.544676	-6.611273	-0.309652	1.504171	0.123922
2.380	3.826528	-2.373002	440.283735	0.317011	-6.566186	-0.304671	1.491353	0.072001
