Time[s]	Fx[N]	Fy[N]	Fz[N]	Mx[Nm]	My[Nm]	Mz[Nm]	COPx[cm]	COPy[cm]
0.010	6.756919	1.036945	501.820673	-0.722127	13.340923	-1.656577	-2.658504	-0.143901
0.020	6.702298	1.058000	502.311650	-0.765580	13.351428	-1.655879	-2.657997	-0.152411
0.030	6.651395	1.076800	502.749491	-0.805661	13.360909	-1.655893	-2.657568	-0.160251
0.040	6.606758	1.092046	503.081519	-0.840156	13.369130	-1.656675	-2.657448	-0.167002
0.050	6.569559	1.103173	503.264933	-0.868653	13.376788	-1.657341	-2.658001	-0.172603
0.060	6.540391	1.109962	503.275155	-0.892938	13.385183	-1.656680	-2.659615	-0.177425
0.070	6.520024	1.112076	503.112854	-0.916680	13.395536	-1.654082	-2.662531	-0.182202
0.080	6.509143	1.108718	502.805738	-0.944326	13.408287	-1.650101	-2.666693	-0.187811
0.090	6.507091	1.098509	502.403695	-0.979597	13.422812	-1.646286	-2.671718	-0.194982
0.100	6.510631	1.079764	501.969084	-1.024131	13.437718	-1.644442	-2.677001	-0.204023
0.110	6.513905	1.051254	501.565512	-1.076737	13.451556	-1.645783	-2.681914	-0.214675
0.120	6.509959	1.013100	501.247700	-1.133537	13.463588	-1.650411	-2.686015	-0.226143
0.130	6.493136	0.967247	501.053594	-1.189052	13.474284	-1.657267	-2.689190	-0.237310
0.140	6.461149	0.917337	500.999207	-1.237933	13.485426	-1.664545	-2.691706	-0.247093
0.150	6.415874	0.868253	501.077034	-1.276727	13.499744	-1.670344	-2.694145	-0.254797
0.160	6.362683	0.825638	501.259353	-1.304906	13.520150	-1.673308	-2.697237	-0.260325
0.170	6.308795	0.795205	501.506590	-1.324731	13.548744	-1.673000	-2.701608	-0.264150
0.180	6.261444	0.781535	501.778079	-1.340105	13.585967	-1.669898	-2.707565	-0.267071
0.190	6.226511	0.786406	502.040422	-1.355054	13.630300	-1.665106	-2.714981	-0.269909
0.200	6.207768	0.807287	502.270351	-1.372524	13.678619	-1.659958	-2.723358	-0.273264
0.210	6.206533	0.836964	502.453351	-1.393787	13.727006	-1.655699	-2.731996	-0.277396
0.220	6.221506	0.864930	502.581688	-1.418407	13.771659	-1.653321	-2.740183	-0.282224
0.230	6.248804	0.880372	502.653920	-1.444581	13.809726	-1.653511	-2.747363	-0.287391
0.240	6.282361	0.875768	502.675097	-1.469783	13.840000	-1.656624	-2.753269	-0.292392
0.250	6.314860	0.849681	502.655736	-1.491656	13.863318	-1.662583	-2.758014	-0.296755
0.260	6.339097	0.807482	502.608698	-1.508959	13.882332	-1.670749	-2.762056	-0.300225
0.270	6.349390	0.759630	502.544869	-1.522133	13.900593	-1.679886	-2.766040	-0.302885
0.280	6.342627	0.718260	502.469905	-1.533104	13.921325	-1.688341	-2.770579	-0.305114
0.290	6.318811	0.693451	502.384105	-1.544330	13.946537	-1.694414	-2.776071	-0.307400
0.300	6.281077	0.690440	502.285643	-1.557676	13.976839	-1.696819	-2.782648	-0.310118
0.310	6.235107	0.708528	502.175352	-1.573765	14.011807	-1.695053	-2.790222	-0.313390
0.320	6.187836	0.741768	502.060453	-1.592068	14.050463	-1.689556	-2.798560	-0.317107
0.330	6.145742	0.780947	501.955279	-1.611343	14.091551	-1.681587	-2.807332	-0.321013
0.340	6.113349	0.816152	501.878120	-1.629956	14.133596	-1.672831	-2.816141	-0.324771
0.350	6.092556	0.839153	501.844809	-1.645926	14.174975	-1.664853	-2.824573	-0.327975
0.360	6.082972	0.845081	501.861625	-1.656961	14.214126	-1.658617	-2.832280	-0.330163
0.370	6.082850	0.833249	501.921201	-1.660863	14.249870	-1.654284	-2.839065	-0.330901
0.380	6.089950	0.807236	502.003986	-1.656446	14.281707	-1.651435	-2.844939	-0.329967
0.390	6.101857	0.774281	502.085077	-1.644580	14.309999	-1.649566	-2.850114	-0.327550
0.400	6.115819	0.743725	502.143693	-1.628688	14.335990	-1.648555	-2.854958	-0.324347
0.410	6.128440	0.724429	502.171087	-1.614153	14.361647	-1.648827	-2.859911	-0.321435
0.420	6.135599	0.721811	502.173009	-1.606608	14.389236	-1.651133	-2.865394	-0.319931
0.430	6.132848	0.735833	502.165495	-1.609793	14.420701	-1.656131	-2.871703	-0.320570
0.440	6.116401	0.761101	502.166470	-1.623949	14.456991	-1.664004	-2.878924	-0.323389
0.450	6.084411	0.789157	502.187648	-1.645493	14.497609	-1.674272	-2.886891	-0.327665
0.460	6.037870	0.811840	502.230227	-1.668128	14.540631	-1.685834	-2.895212	-0.332144
0.470	5.980468	0.824160	502.285298	-1.684884	14.583290	-1.697227	-2.903388	-0.335444
0.480	5.917309	0.825583	502.337838	-1.690269	14.622859	-1.707001	-2.910961	-0.336481
0.490	5.853131	0.819522	502.372181	-1.681781	14.657435	-1.714066	-2.917645	-0.334768
0.500	5.791055	0.811557	502.377142	-1.660323	14.686351	-1.717896	-2.923372	-0.330493
0.510	5.732556	0.807158	502.349771	-1.629548	14.710242	-1.718508	-2.928287	-0.324385
0.520	5.678452	0.809634	502.296914	-1.594462	14.730823	-1.716289	-2.932692	-0.317434
0.530	5.629989	0.818941	502.233376	-1.559900	14.750409	-1.711814	-2.936963	-0.310593
0.540	5.589168	0.831826	502.176362	-1.529422	14.771224	-1.705791	-2.941442	-0.304559
0.550	5.558072	0.843452	502.138175	-1.504855	14.794686	-1.699108	-2.946338	-0.299689
0.560	5.537665	0.849770	502.120857	-1.486347	14.820820	-1.692853	-2.951644	-0.296014
0.570	5.526884	0.849361	502.115632	-1.472668	14.847966	-1.688185	-2.957081	-0.293293
0.580	5.522684	0.843764	502.107285	-1.461560	14.872878	-1.686077	-2.962092	-0.291085
0.590	5.521167	0.836365	502.080992	-1.450115	14.891353	-1.687044	-2.965926	-0.288821
0.600	5.519279	0.830751	502.028269	-1.435277	14.899317	-1.690980	-2.967824	-0.285896
0.610	5.516128	0.829469	501.949640	-1.414463	14.894090	-1.697188	-2.967248	-0.281794
0.620	5.513291	0.833558	501.853393	-1.386144	14.875318	-1.704539	-2.964076	-0.276205
0.630	5.514042	0.842688	501.751497	-1.350183	14.845086	-1.711726	-2.958653	-0.269094
0.640	5.521986	0.855523	501.654994	-1.307859	14.807085	-1.717509	-2.951647	-0.260709
0.650	5.539789	0.870140	501.571581	-1.261631	14.765185	-1.720945	-2.943784	-0.251536
0.660	5.568578	0.884599	501.506907	-1.214694	14.722128	-1.721531	-2.935578	-0.242209
0.670	5.608204	0.897816	501.468369	-1.170355	14.678882	-1.719245	-2.927180	-0.233386
0.680	5.658107	0.910451	501.467662	-1.131379	14.634806	-1.714455	-2.918395	-0.225614
0.690	5.718129	0.925051	501.518552	-1.099518	14.588340	-1.707765	-2.908834	-0.219238
0.700	5.788660	0.944965	501.629702	-1.075299	14.537770	-1.699841	-2.898108	-0.214361
0.710	5.869999	0.972388	501.796334	-1.058014	14.481800	-1.691268	-2.885992	-0.210845
0.720	5.961397	1.006739	501.996314	-1.045865	14.419911	-1.682435	-2.872513	-0.208341
0.730	6.060532	1.044456	502.194675	-1.036290	14.352597	-1.673454	-2.857975	-0.206352
0.740	6.163867	1.080324	502.355811	-1.026397	14.281515	-1.664211	-2.842908	-0.204317
0.750	6.267723	1.109396	502.457263	-1.013371	14.209497	-1.654572	-2.828001	-0.201683
0.760	6.369450	1.128462	502.497143	-0.994849	14.140291	-1.644629	-2.814004	-0.197981
0.770	6.467947	1.136639	502.491006	-0.969413	14.077980	-1.634817	-2.801638	-0.192921
0.780	6.563132	1.135273	502.460660	-0.937200	14.026194	-1.625833	-2.791501	-0.186522
0.790	6.654632	1.127510	502.421941	-0.900263	13.987388	-1.618408	-2.783992	-0.179185
0.800	6.740667	1.117766	502.378410	-0.862264	13.962468	-1.613102	-2.779273	-0.171636
0.810	6.818008	1.111161	502.323815	-0.827358	13.950853	-1.610188	-2.777263	-0.164706
0.820	6.882978	1.112805	502.250859	-0.798655	13.950837	-1.609653	-2.777663	-0.159015
0.830	6.932724	1.126869	502.160444	-0.777026	13.960014	-1.611244	-2.779991	-0.154737
0.840	6.966053	1.155507	502.066111	-0.760850	13.975604	-1.614548	-2.783618	-0.151544
0.850	6.983714	1.197846	501.991773	-0.746846	13.994692	-1.619066	-2.787833	-0.148777
0.860	6.988394	1.249480	501.964202	-0.731521	14.014508	-1.624263	-2.791934	-0.145732
0.870	6.984575	1.303000	502.003380	-0.712546	14.032828	-1.629589	-2.795365	-0.141941
0.880	6.978052	1.349819	502.114310	-0.689501	14.048416	-1.634461	-2.797852	-0.137320
0.890	6.974823	1.382812	502.283568	-0.663729	14.061313	-1.638311	-2.799477	-0.132142
0.900	6.979402	1.398648	502.482134	-0.637456	14.072809	-1.640750	-2.800658	-0.126861
0.910	6.993208	1.398751	502.673295	-0.612646	14.085048	-1.641780	-2.802028	-0.121878
0.920	7.013754	1.388461	502.822402	-0.590135	14.100421	-1.641898	-2.804255	-0.117365
0.930	7.034971	1.374786	502.905212	-0.569389	14.120921	-1.641941	-2.807869	-0.113220
0.940	7.048691	1.363777	502.912723	-0.548945	14.147717	-1.642760	-2.813155	-0.109153
0.950	7.047073	1.358722	502.851821	-0.527288	14.181014	-1.644952	-2.820118	-0.104859
0.960	7.025486	1.359867	502.742244	-0.503783	14.220186	-1.648848	-2.828524	-0.100207
0.970	6.984802	1.365517	502.610958	-0.479267	14.264119	-1.654698	-2.838004	-0.095355
0.980	6.931809	1.373704	502.484833	-0.455945	14.311696	-1.662762	-2.848185	-0.090738
0.990	6.877005	1.383448	502.382525	-0.436553	14.362241	-1.673142	-2.858826	-0.086897
1.000	6.830302	1.395026	502.307703	-0.423074	14.415707	-1.685430	-2.869896	-0.084226
1.010	6.796566	1.409352	502.247585	-0.415664	14.472497	-1.698496	-2.881546	-0.082761
1.020	6.773267	1.427046	502.179726	-0.412413	14.533087	-1.710673	-2.894001	-0.082125
1.030	6.751535	1.447771	502.085269	-0.410146	14.597723	-1.720280	-2.907419	-0.081688
1.040	6.720089	1.469959	501.962100	-0.405834	14.666323	-1.726239	-2.921799	-0.080850
1.050	6.670208	1.490739	501.830639	-0.397791	14.738518	-1.728486	-2.936951	-0.079268
1.060	6.599599	1.505951	501.728661	-0.386086	14.813716	-1.727966	-2.952535	-0.076951
1.070	6.513770	1.510584	501.696830	-0.372175	14.891186	-1.726204	-2.968164	-0.074183
1.080	6.424491	1.500035	501.761132	-0.358139	14.970186	-1.724636	-2.983528	-0.071376
1.090	6.345958	1.472093	501.920286	-0.345964	15.050148	-1.724046	-2.998514	-0.068928
1.100	6.290104	1.428697	502.144129	-0.337097	15.130813	-1.724384	-3.013241	-0.067132
1.110	6.262856	1.376269	502.383689	-0.332320	15.212232	-1.724977	-3.028011	-0.066149
1.120	6.262619	1.324118	502.588051	-0.331729	15.294615	-1.724926	-3.043171	-0.066004
1.130	6.281267	1.281489	502.720402	-0.334686	15.378091	-1.723467	-3.058975	-0.066575
1.140	6.306923	1.254514	502.767011	-0.339773	15.462494	-1.720157	-3.075479	-0.067581
1.150	6.327545	1.244357	502.736716	-0.345037	15.547321	-1.714950	-3.092537	-0.068632
1.160	6.334376	1.247311	502.652545	-0.348593	15.631935	-1.708234	-3.109889	-0.069351
1.170	6.324318	1.256751	502.539995	-0.349333	15.715951	-1.700825	-3.127303	-0.069513
1.180	6.300306	1.265941	502.417400	-0.347274	15.799561	-1.693833	-3.144708	-0.069121
1.190	6.269194	1.270431	502.292378	-0.343372	15.883590	-1.688352	-3.162220	-0.068361
1.200	6.237839	1.269199	502.165414	-0.338970	15.969169	-1.685063	-3.180062	-0.067502
1.210	6.209245	1.264380	502.038597	-0.335300	16.057172	-1.683969	-3.198394	-0.066788
1.220	6.180858	1.259829	501.924948	-0.333272	16.147641	-1.684415	-3.217143	-0.066399
1.230	6.146052	1.258899	501.852290	-0.333595	16.239446	-1.685356	-3.235902	-0.066473
1.240	6.098097	1.262161	501.856774	-0.337006	16.330352	-1.685678	-3.253986	-0.067152
1.250	6.034500	1.266178	501.966367	-0.344322	16.417542	-1.684486	-3.270646	-0.068595
1.260	5.959438	1.264261	502.181745	-0.356155	16.498442	-1.681296	-3.285353	-0.070922
1.270	5.883044	1.249151	502.465835	-0.372407	16.571496	-1.676141	-3.298034	-0.074116
1.280	5.817839	1.216335	502.749653	-0.391850	16.636613	-1.669547	-3.309125	-0.077941
1.290	5.773842	1.166352	502.953158	-0.412103	16.695121	-1.662387	-3.319419	-0.081937
1.300	5.754356	1.105087	503.012013	-0.430117	16.749303	-1.655672	-3.329802	-0.085508
1.310	5.754253	1.042141	502.899084	-0.442992	16.801725	-1.650354	-3.340974	-0.088088
1.320	5.761627	0.988047	502.633176	-0.448782	16.854599	-1.647162	-3.353260	-0.089286
1.330	5.762186	0.951280	502.273118	-0.446994	16.909304	-1.646468	-3.366556	-0.088994
1.340	5.744423	0.935923	501.899886	-0.438667	16.966157	-1.648199	-3.380387	-0.087401
1.350	5.703268	0.940659	501.592911	-0.426056	17.024445	-1.651850	-3.394076	-0.084941
1.360	5.640966	0.959417	501.408961	-0.411989	17.082769	-1.656626	-3.406953	-0.082166
1.370	5.565457	0.983480	501.370936	-0.399003	17.139640	-1.661700	-3.418555	-0.079582
1.380	5.487436	1.004362	501.468512	-0.388532	17.194134	-1.666459	-3.428756	-0.077479
1.390	5.417245	1.016393	501.666423	-0.380486	17.246271	-1.670579	-3.437797	-0.075844
1.400	5.362353	1.017970	501.914723	-0.373431	17.296878	-1.673877	-3.446179	-0.074401
1.410	5.325870	1.011008	502.159249	-0.365290	17.346997	-1.676113	-3.454481	-0.072744
1.420	5.306286	0.999028	502.353484	-0.354326	17.397200	-1.676942	-3.463139	-0.070533
1.430	5.298472	0.985138	502.470530	-0.340034	17.447224	-1.676086	-3.472288	-0.067673
1.440	5.295669	0.971085	502.509441	-0.323445	17.496050	-1.673608	-3.481736	-0.064366
1.450	5.291727	0.957673	502.490881	-0.306500	17.542337	-1.670040	-3.491076	-0.060996
1.460	5.282802	0.945820	502.443910	-0.290750	17.584944	-1.666287	-3.499882	-0.057867
1.470	5.268140	0.937375	502.391989	-0.276200	17.623364	-1.663332	-3.507891	-0.054977
1.480	5.250019	0.935269	502.345997	-0.261081	17.657922	-1.661932	-3.515092	-0.051972
1.490	5.232916	0.943021	502.306054	-0.242692	17.689639	-1.662450	-3.521685	-0.048316
1.500	5.221885	0.963747	502.267920	-0.218724	17.719768	-1.664841	-3.527951	-0.043547
1.510	5.220464	0.998860	502.228237	-0.188256	17.749196	-1.668755	-3.534090	-0.037484
1.520	5.228966	1.046943	502.186127	-0.151984	17.777969	-1.673645	-3.540115	-0.030264
1.530	5.244201	1.103473	502.142496	-0.111752	17.805167	-1.678872	-3.545840	-0.022255
1.540	5.261103	1.161783	502.099228	-0.069817	17.829150	-1.683799	-3.550922	-0.013905
1.550	5.275582	1.215072	502.058633	-0.028193	17.847982	-1.687885	-3.554960	-0.005616
1.560	5.286958	1.258683	502.022594	0.011790	17.859792	-1.690778	-3.557567	0.002348
1.570	5.298574	1.291746	501.991873	0.049711	17.862893	-1.692348	-3.558403	0.009903
1.580	5.316428	1.317398	501.966316	0.086071	17.855797	-1.692673	-3.557170	0.017147
1.590	5.346805	1.341313	501.945375	0.122111	17.837339	-1.691977	-3.553641	0.024328
1.600	5.394114	1.369144	501.927661	0.159451	17.807050	-1.690588	-3.547732	0.031768
1.610	5.459572	1.404121	501.909788	0.199609	17.765678	-1.688897	-3.539616	0.039770
1.620	5.540972	1.445958	501.886606	0.243520	17.715611	-1.687336	-3.529803	0.048521
1.630	5.633386	1.491397	501.854417	0.291195	17.660956	-1.686341	-3.519139	0.058024
1.640	5.730338	1.535949	501.815587	0.341677	17.607066	-1.686292	-3.508673	0.068088
1.650	5.824748	1.575820	501.780486	0.393311	17.559525	-1.687420	-3.499444	0.078383
1.660	5.909246	1.609109	501.764122	0.444226	17.522880	-1.689728	-3.492255	0.088533
1.670	5.976191	1.635869	501.779001	0.492849	17.499616	-1.692967	-3.487515	0.098220
1.680	6.018224	1.657456	501.828581	0.538280	17.489727	-1.696677	-3.485199	0.107264
1.690	6.030036	1.675774	501.904993	0.580450	17.490909	-1.700294	-3.484904	0.115649
1.700	6.011055	1.692737	501.991869	0.620043	17.499194	-1.703249	-3.485952	0.123517
1.710	5.967733	1.709858	502.070455	0.658161	17.509858	-1.705061	-3.487530	0.131089
1.720	5.913696	1.727984	502.125817	0.695837	17.518437	-1.705449	-3.488854	0.138578
1.730	5.866775	1.747381	502.150254	0.733641	17.521697	-1.704438	-3.489333	0.146100
1.740	5.843656	1.768141	502.142682	0.771590	17.518303	-1.702366	-3.488710	0.153660
1.750	5.854353	1.790583	502.105219	0.809340	17.508977	-1.699776	-3.487113	0.161189
1.760	5.899026	1.815170	502.040283	0.846413	17.495995	-1.697235	-3.484978	0.168595
1.770	5.968543	1.841853	501.951354	0.882362	17.482192	-1.695214	-3.482846	0.175786
1.780	6.048203	1.869295	501.847371	0.916896	17.469957	-1.694063	-3.481129	0.182704
1.790	6.122566	1.894773	501.746891	0.950029	17.460732	-1.694022	-3.479988	0.189344
1.800	6.179224	1.915228	501.676961	0.982160	17.455174	-1.695196	-3.479365	0.195775
1.810	6.210604	1.929028	501.664838	1.013921	17.453648	-1.697502	-3.479145	0.202111
1.820	6.214323	1.937378	501.725883	1.045766	17.456555	-1.700647	-3.479301	0.208434
1.830	6.193076	1.944387	501.854484	1.077451	17.464189	-1.704222	-3.479931	0.214694
1.840	6.154324	1.955587	502.023721	1.107665	17.476285	-1.707866	-3.481167	0.220640
1.850	6.109190	1.975439	502.194409	1.134029	17.491638	-1.711397	-3.483041	0.225815
1.860	6.070021	2.004866	502.328955	1.153566	17.508124	-1.714833	-3.485390	0.229643
1.870	6.047101	2.039966	502.403476	1.163536	17.523135	-1.718305	-3.487861	0.231594
1.880	6.045833	2.072804	502.413072	1.162350	17.534250	-1.721961	-3.490007	0.231353
1.890	6.065525	2.094297	502.368594	1.150162	17.539927	-1.725896	-3.491446	0.228948
1.900	6.099943	2.097984	502.287326	1.128915	17.540044	-1.730075	-3.492034	0.224755
1.910	6.139107	2.082862	502.183129	1.101823	17.536121	-1.734216	-3.491977	0.219407
1.920	6.171751	2.053887	502.061711	1.072469	17.531078	-1.737700	-3.491817	0.213613
1.930	6.187933	2.020038	501.923549	1.043826	17.528517	-1.739642	-3.492268	0.207965
1.940	6.181140	1.990948	501.772299	1.017536	17.531754	-1.739156	-3.493966	0.202788
1.950	6.149329	1.973549	501.622633	0.993673	17.542945	-1.735706	-3.497239	0.198092
1.960	6.094868	1.969958	501.501179	0.971035	17.562656	-1.729354	-3.502017	0.193626
1.970	6.023799	1.977169	501.438533	0.947786	17.589971	-1.720746	-3.507902	0.189013
1.980	5.944863	1.988383	501.456468	0.922186	17.622914	-1.710898	-3.514346	0.183902
1.990	5.868387	1.995263	501.557344	0.893223	17.658881	-1.700883	-3.520810	0.178090
2.000	5.804873	1.990220	501.720938	0.861018	17.694948	-1.691597	-3.526851	0.171613
2.010	5.763178	1.968003	501.909860	0.826752	17.728119	-1.683637	-3.532132	0.164721
2.020	5.748570	1.926277	502.081212	0.791868	17.755632	-1.677242	-3.536406	0.157717
2.030	5.761371	1.865364	502.199815	0.756762	17.775356	-1.672287	-3.539499	0.150689
2.040	5.796848	1.787596	502.247815	0.719751	17.786227	-1.668336	-3.541325	0.143306
2.050	5.846492	1.696758	502.227207	0.677246	17.788585	-1.664825	-3.541940	0.134849
2.060	5.900142	1.597816	502.155290	0.625312	17.784264	-1.661346	-3.541587	0.124526
2.070	5.948225	1.496608	502.056044	0.561857	17.776315	-1.657943	-3.540703	0.111911
2.080	5.983473	1.399111	501.951551	0.488263	17.768346	-1.655239	-3.539853	0.097273
2.090	6.001628	1.310358	501.856813	0.409517	17.763714	-1.654222	-3.539598	0.081600
2.100	6.001082	1.233747	501.779473	0.332715	17.764854	-1.655712	-3.540371	0.066307
2.110	5.982039	1.171235	501.723493	0.264559	17.772997	-1.659789	-3.542389	0.052730
2.120	5.946053	1.124021	501.693556	0.208998	17.788272	-1.665534	-3.545645	0.041658
2.130	5.896351	1.092765	501.696406	0.166077	17.809964	-1.671296	-3.549948	0.033103
2.140	5.838568	1.076911	501.737594	0.132408	17.836674	-1.675381	-3.554981	0.026390
2.150	5.781009	1.073753	501.815666	0.102846	17.866349	-1.676782	-3.560341	0.020495
2.160	5.733741	1.078349	501.917881	0.072482	17.896356	-1.675559	-3.565594	0.014441
2.170	5.706441	1.084780	502.020413	0.038111	17.923822	-1.672642	-3.570337	0.007591
2.180	5.705707	1.088112	502.093724	-0.001213	17.946270	-1.669225	-3.574287	-0.000242
2.190	5.732948	1.085923	502.111709	-0.044452	17.962294	-1.666145	-3.577350	-0.008853
2.200	5.783686	1.078624	502.061440	-0.089385	17.971940	-1.663623	-3.579630	-0.017804
2.210	5.848362	1.068646	501.949192	-0.133543	17.976607	-1.661433	-3.581360	-0.026605
2.220	5.914230	1.059126	501.799591	-0.174920	17.978545	-1.659285	-3.582814	-0.034858
2.230	5.967788	1.052705	501.648147	-0.212209	17.980124	-1.657091	-3.584210	-0.042302
2.240	5.997498	1.050767	501.530896	-0.244589	17.983041	-1.655014	-3.585630	-0.048768
2.250	5.996475	1.053167	501.475744	-0.271364	17.987717	-1.653359	-3.586957	-0.054113
2.260	5.964450	1.058448	501.497558	-0.291841	17.993183	-1.652464	-3.587890	-0.058194
2.270	5.908027	1.064423	501.595882	-0.305551	17.997690	-1.652641	-3.588086	-0.060916
2.280	5.838593	1.068919	501.753831	-0.312615	17.999863	-1.654164	-3.587389	-0.062304
2.290	5.768456	1.070491	501.939091	-0.313935	17.999798	-1.657234	-3.586052	-0.062544
2.300	5.706818	1.069045	502.109766	-0.310998	17.999426	-1.661931	-3.584759	-0.061938
2.310	5.657529	1.066259	502.225948	-0.305394	18.001839	-1.668111	-3.584410	-0.060808
2.320	5.619605	1.065576	502.263392	-0.298344	18.009847	-1.675308	-3.585737	-0.059400
2.330	5.590010	1.071609	502.222517	-0.290504	18.024381	-1.682690	-3.588923	-0.057844
2.340	5.566896	1.088976	502.127482	-0.282092	18.043496	-1.689171	-3.593409	-0.056179
2.350	5.551432	1.120819	502.015451	-0.273190	18.062507	-1.693659	-3.597998	-0.054419
