Time[s]	Fx[N]	Fy[N]	Fz[N]	Mx[Nm]	My[Nm]	Mz[Nm]	COPx[cm]	COPy[cm]
0.010	-1.687335	-2.473535	680.663708	4.460689	29.420315	0.166162	-4.322298	0.655344
0.020	-1.365827	-2.756103	681.982494	4.138021	29.587727	0.137339	-4.338488	0.606763
0.030	-1.109813	-3.012738	683.044418	3.832590	29.750325	0.110600	-4.355548	0.561104
0.040	-0.962382	-3.226655	683.655987	3.558497	29.902355	0.087313	-4.373889	0.520510
0.050	-0.935476	-3.393776	683.729833	3.325008	30.037810	0.067661	-4.393228	0.486304
0.060	-1.009563	-3.520578	683.284793	3.136073	30.151223	0.050949	-4.412688	0.458970
0.070	-1.144399	-3.617255	682.415977	2.991146	30.238597	0.036239	-4.431109	0.438317
0.080	-1.296269	-3.690158	681.255290	2.886779	30.298091	0.022864	-4.447392	0.423744
0.090	-1.434427	-3.737519	679.941992	2.818330	30.330036	0.010542	-4.460680	0.414496
0.100	-1.550042	-3.750304	678.611773	2.781227	30.336049	-0.000887	-4.470310	0.409841
0.110	-1.654323	-3.717318	677.399071	2.771519	30.317340	-0.011857	-4.475551	0.409141
0.120	-1.767054	-3.631880	676.439653	2.785723	30.272720	-0.023352	-4.475302	0.411821
0.130	-1.900675	-3.497308	675.862069	2.820211	30.197097	-0.036844	-4.467938	0.417276
0.140	-2.046661	-3.329301	675.764499	2.870500	30.081225	-0.053907	-4.451436	0.424778
0.150	-2.169956	-3.154296	676.182891	2.930820	29.913109	-0.075653	-4.423819	0.433436
0.160	-2.214177	-3.003822	677.063360	2.994334	29.680871	-0.102243	-4.383766	0.442253
0.170	-2.116510	-2.906118	678.253466	3.054251	29.376354	-0.132701	-4.331176	0.450311
0.180	-1.827785	-2.877562	679.520894	3.105706	28.998421	-0.165141	-4.267480	0.457044
0.190	-1.330954	-2.916812	680.597065	3.147732	28.554883	-0.197318	-4.195564	0.462496
0.200	-0.651173	-3.003678	681.233629	3.184467	28.062315	-0.227239	-4.119338	0.467456
0.210	0.146690	-3.103152	681.255712	3.224987	27.543600	-0.253564	-4.043063	0.473389
0.220	0.972718	-3.173474	680.597103	3.281725	27.023838	-0.275652	-3.970607	0.482183
0.230	1.733864	-3.175888	679.308136	3.368030	26.525878	-0.293354	-3.904837	0.495803
0.240	2.355963	-3.083256	677.536020	3.495679	26.066836	-0.306752	-3.847299	0.515940
0.250	2.799366	-2.885233	675.486711	3.672938	25.656496	-0.316022	-3.798224	0.543747
0.260	3.064329	-2.588895	673.382015	3.903292	25.297716	-0.321463	-3.756815	0.579655
0.270	3.185482	-2.215390	671.423268	4.184595	24.988315	-0.323602	-3.721693	0.623243
0.280	3.217752	-1.794551	669.766717	4.508569	24.723638	-0.323243	-3.691381	0.673155
0.290	3.218633	-1.359742	668.510773	4.860931	24.499041	-0.321370	-3.664719	0.727128
0.300	3.232767	-0.944245	667.693437	5.222641	24.311651	-0.318898	-3.641140	0.782191
0.310	3.283734	-0.579131	667.298201	5.572348	24.160942	-0.316374	-3.620711	0.835061
0.320	3.374818	-0.291710	667.266814	5.889542	24.048031	-0.313760	-3.603960	0.882637
0.330	3.496576	-0.103615	667.516461	6.157502	23.974215	-0.310459	-3.591554	0.922450
0.340	3.636219	-0.028104	667.957222	6.365185	23.939632	-0.305574	-3.584007	0.952933
0.350	3.783598	-0.067058	668.504898	6.507682	23.942835	-0.298291	-3.581550	0.973468
0.360	3.931020	-0.208964	669.086146	6.585522	23.981551	-0.288155	-3.584225	0.984256
0.370	4.067881	-0.429244	669.637830	6.603491	24.054233	-0.275073	-3.592126	0.986129
0.380	4.174186	-0.693531	670.107824	6.569639	24.161578	-0.259152	-3.605625	0.980385
0.390	4.218112	-0.963418	670.464912	6.494778	24.306991	-0.240637	-3.625393	0.968698
0.400	4.161236	-1.203399	670.718129	6.392264	24.495274	-0.220143	-3.652097	0.953048
0.410	3.971281	-1.387237	670.934790	6.277522	24.729671	-0.199039	-3.685853	0.935638
0.420	3.637627	-1.502091	671.241072	6.166637	25.008429	-0.179587	-3.725700	0.918692
0.430	3.182087	-1.549359	671.795122	6.073863	25.322490	-0.164558	-3.769377	0.904124
0.440	2.658721	-1.542008	672.737462	6.008785	25.655546	-0.156409	-3.813604	0.893184
0.450	2.141450	-1.499168	674.136920	5.974462	25.986612	-0.156461	-3.854797	0.886239
0.460	1.703793	-1.439644	675.954115	5.967637	26.294253	-0.164522	-3.889946	0.882846
0.470	1.398034	-1.376632	678.037349	5.981101	26.561065	-0.179068	-3.917345	0.882120
0.480	1.240739	-1.315477	680.152900	6.007119	26.776978	-0.197779	-3.936906	0.883201
0.490	1.208933	-1.254981	682.039765	6.040342	26.940344	-0.218063	-3.949967	0.885629
0.500	1.248042	-1.191371	683.471531	6.079061	27.056456	-0.237371	-3.958681	0.889439
0.510	1.289284	-1.123177	684.306214	6.124616	27.134140	-0.253312	-3.965204	0.895011
0.520	1.271115	-1.054980	684.509451	6.179523	27.181790	-0.263784	-3.970988	0.902767
0.530	1.157381	-0.998003	684.146887	6.245256	27.204293	-0.267270	-3.976382	0.912853
0.540	0.945983	-0.966526	683.353552	6.320650	27.201730	-0.263262	-3.980623	0.924946
0.550	0.665997	-0.971130	682.295012	6.401657	27.169891	-0.252535	-3.982133	0.938254
0.560	0.366103	-1.011962	681.134309	6.482619	27.102003	-0.237093	-3.978951	0.951739
0.570	0.099931	-1.075681	680.011839	6.558469	26.990707	-0.219771	-3.969153	0.964464
0.580	-0.086375	-1.138144	679.036966	6.626726	26.829552	-0.203675	-3.951118	0.975901
0.590	-0.161184	-1.172140	678.284417	6.688152	26.613771	-0.191589	-3.923689	0.986040
0.600	-0.108465	-1.157245	677.788643	6.745601	26.340655	-0.185414	-3.886264	0.995237
0.610	0.075266	-1.088073	677.535329	6.801554	26.009923	-0.185772	-3.838903	1.003867
0.620	0.384966	-0.977775	677.456522	6.855634	25.624333	-0.191953	-3.782432	1.011967
0.630	0.809361	-0.855207	677.438157	6.903479	25.190416	-0.202282	-3.718482	1.019057
0.640	1.330659	-0.756396	677.343095	6.937786	24.718990	-0.214744	-3.649405	1.024265
0.650	1.922809	-0.712947	677.043230	6.951193	24.225054	-0.227572	-3.578066	1.026699
0.660	2.550214	-0.741310	676.448428	6.939719	23.726856	-0.239561	-3.507563	1.025905
0.670	3.168445	-0.836573	675.522226	6.905148	23.244227	-0.250114	-3.440927	1.022194
0.680	3.727724	-0.972852	674.281757	6.855267	22.796555	-0.259150	-3.380865	1.016677
0.690	4.179170	-1.110227	672.786772	6.801714	22.400780	-0.266915	-3.329551	1.010976
0.700	4.483167	-1.206288	671.126332	6.756156	22.069728	-0.273667	-3.288461	1.006689
0.710	4.618140	-1.228938	669.410064	6.726216	21.811009	-0.279225	-3.258243	1.004798
0.720	4.586877	-1.166460	667.764989	6.712820	21.626700	-0.282597	-3.238669	1.005267
0.730	4.417224	-1.031503	666.333002	6.710086	21.513894	-0.281919	-3.228700	1.007017
0.740	4.155531	-0.857822	665.262598	6.707778	21.465948	-0.274858	-3.226688	1.008290
0.750	3.854390	-0.691169	664.692330	6.695254	21.474010	-0.259360	-3.230669	1.007271
0.760	3.559225	-0.577371	664.729653	6.665256	21.528345	-0.234538	-3.238662	1.002702
0.770	3.298989	-0.550794	665.432219	6.616214	21.619088	-0.201376	-3.248879	0.994273
0.780	3.083983	-0.625822	666.797411	6.552585	21.736379	-0.162955	-3.259817	0.982695
0.790	2.910341	-0.793264	668.762129	6.483507	21.870091	-0.123943	-3.270235	0.969479
0.800	2.767948	-1.022636	671.211373	6.420401	22.009506	-0.089458	-3.279072	0.956539
0.810	2.647878	-1.269979	673.992287	6.374344	22.143158	-0.063743	-3.285373	0.945759
0.820	2.546657	-1.489194	676.929973	6.353966	22.258945	-0.049162	-3.288220	0.938644
0.830	2.466861	-1.643618	679.842424	6.364297	22.344441	-0.045853	-3.286709	0.936143
0.840	2.415414	-1.714272	682.553412	6.406693	22.387418	-0.052053	-3.279951	0.938636
0.850	2.401480	-1.702294	684.902793	6.479581	22.376791	-0.064922	-3.267148	0.946058
0.860	2.435124	-1.625222	686.753332	6.579632	22.304124	-0.081540	-3.247764	0.958078
0.870	2.526563	-1.508953	687.993060	6.702931	22.165534	-0.099698	-3.221767	0.974273
0.880	2.684877	-1.378382	688.534077	6.845876	21.963296	-0.118195	-3.189863	0.994268
0.890	2.915063	-1.249683	688.311725	7.005702	21.706437	-0.136654	-3.153576	1.017809
0.900	3.213499	-1.126244	687.289387	7.180586	21.409828	-0.155077	-3.115111	1.044769
0.910	3.563502	-0.999236	685.471918	7.369405	21.091797	-0.173480	-3.076975	1.075085
0.920	3.933800	-0.852468	682.925569	7.571315	20.770825	-0.191731	-3.041448	1.108659
0.930	4.282236	-0.669854	679.796787	7.785379	20.462375	-0.209574	-3.010072	1.145251
0.940	4.564765	-0.442811	676.319055	8.010315	20.176896	-0.226677	-2.983340	1.184399
0.950	4.747098	-0.175087	672.797891	8.244253	19.919538	-0.242631	-2.960702	1.225368
0.960	4.814643	0.116393	669.570525	8.484413	19.691306	-0.256943	-2.940886	1.267142
0.970	4.776877	0.404807	666.947060	8.726832	19.490960	-0.269131	-2.922415	1.308474
0.980	4.664380	0.659894	665.149639	8.966324	19.316885	-0.278906	-2.904141	1.348016
0.990	4.519638	0.855790	664.269972	9.196672	19.168392	-0.286305	-2.885633	1.384478
1.000	4.384975	0.977721	664.260875	9.410957	19.046124	-0.291666	-2.867266	1.416756
1.010	4.291807	1.024934	664.964959	9.602007	18.951514	-0.295449	-2.850002	1.443987
1.020	4.254431	1.008456	666.168653	9.762996	18.885524	-0.298085	-2.834946	1.465544
1.030	4.269782	0.944768	667.660609	9.888177	18.847149	-0.299991	-2.822864	1.481018
1.040	4.322641	0.848741	669.275178	9.973599	18.832313	-0.301720	-2.813837	1.490209
1.050	4.394069	0.729547	670.910523	10.017655	18.833740	-0.304094	-2.807191	1.493143
1.060	4.469747	0.591388	672.520682	10.021392	18.842091	-0.308173	-2.801712	1.490124
1.070	4.544768	0.438066	674.088808	9.988566	18.848215	-0.315022	-2.796103	1.481788
1.080	4.623003	0.278133	675.594476	9.925393	18.845738	-0.325313	-2.789504	1.469135
1.090	4.711605	0.127095	676.989347	9.839897	18.832912	-0.338922	-2.781862	1.453479
1.100	4.813491	0.004938	678.191237	9.740941	18.812829	-0.354722	-2.773971	1.436312
1.110	4.921602	-0.069968	679.098360	9.637173	18.791889	-0.370733	-2.767182	1.419113
1.120	5.017821	-0.087617	679.617520	9.536221	18.777234	-0.384611	-2.762912	1.403175
1.130	5.077185	-0.050661	679.695465	9.444282	18.774218	-0.394231	-2.762151	1.389487
1.140	5.075715	0.025519	679.342153	9.366024	18.784776	-0.398089	-2.765142	1.378690
1.150	4.998876	0.116831	678.637358	9.304510	18.807122	-0.395428	-2.771307	1.371058
1.160	4.847591	0.196970	677.716889	9.260924	18.836598	-0.386201	-2.779420	1.366489
1.170	4.639637	0.244257	676.741267	9.234256	18.867113	-0.371064	-2.787936	1.364518
1.180	4.405834	0.246927	675.856448	9.221403	18.892602	-0.351428	-2.795357	1.364403
1.190	4.182251	0.205667	675.159653	9.217979	18.908173	-0.329443	-2.800548	1.365304
1.200	4.000923	0.132952	674.681519	9.219586	18.910886	-0.307775	-2.802935	1.366509
1.210	3.881918	0.049429	674.389622	9.222932	18.900164	-0.289153	-2.802559	1.367597
1.220	3.828890	-0.021809	674.211024	9.226342	18.877828	-0.275791	-2.799988	1.368465
1.230	3.829036	-0.061601	674.065408	9.229656	18.847765	-0.268841	-2.796133	1.369252
1.240	3.857063	-0.059775	673.896988	9.233718	18.815259	-0.268063	-2.792008	1.370197
1.250	3.881851	-0.017099	673.694288	9.239629	18.785979	-0.271911	-2.788502	1.371487
1.260	3.873956	0.056309	673.492222	9.247838	18.764705	-0.278043	-2.786180	1.373117
1.270	3.812242	0.144886	673.358198	9.257256	18.754004	-0.284112	-2.785145	1.374789
1.280	3.688651	0.231822	673.368933	9.264704	18.753270	-0.288501	-2.784992	1.375873
1.290	3.510696	0.302108	673.585647	9.264997	18.758536	-0.290750	-2.784878	1.375474
1.300	3.301188	0.344245	674.033497	9.251808	18.763262	-0.291511	-2.783728	1.372604
1.310	3.094410	0.351285	674.689439	9.219199	18.759994	-0.292074	-2.780538	1.366436
1.320	2.928307	0.321870	675.481908	9.163487	18.742385	-0.293657	-2.774669	1.356585
1.330	2.833888	0.261242	676.304336	9.084953	18.706833	-0.296818	-2.766038	1.343323
1.340	2.825134	0.181613	677.040641	8.988880	18.653160	-0.301246	-2.755102	1.327672
1.350	2.893689	0.101244	677.595284	8.885451	18.584131	-0.305982	-2.742659	1.311321
1.360	3.011227	0.041775	677.917200	8.788347	18.504085	-0.309900	-2.729549	1.296375
1.370	3.139042	0.023658	678.008761	8.712303	18.417243	-0.312208	-2.716372	1.284984
1.380	3.241059	0.060444	677.917363	8.670164	18.326250	-0.312766	-2.703316	1.278941
1.390	3.295103	0.153826	677.714249	8.670062	18.231457	-0.312112	-2.690139	1.279309
1.400	3.298414	0.291776	677.469179	8.713277	18.131108	-0.311197	-2.676300	1.286151
1.410	3.266187	0.451112	677.229533	8.793319	18.022302	-0.310923	-2.661181	1.298425
1.420	3.224794	0.603788	677.009651	8.896663	17.902291	-0.311740	-2.644319	1.314112
1.430	3.202991	0.724363	676.791722	9.005241	17.769635	-0.313506	-2.625569	1.330578
1.440	3.224120	0.795685	676.534841	9.100320	17.624909	-0.315657	-2.605174	1.345137
1.450	3.300863	0.811207	676.186808	9.166795	17.471005	-0.317500	-2.583754	1.355660
1.460	3.432583	0.774257	675.695619	9.196550	17.313214	-0.318391	-2.562280	1.361049
1.470	3.604786	0.695727	675.021889	9.189785	17.159207	-0.317748	-2.542022	1.361406
1.480	3.790707	0.591462	674.154446	9.154023	17.018616	-0.315049	-2.524439	1.357853
1.490	3.955612	0.479958	673.127614	9.101387	16.901751	-0.309986	-2.510928	1.352104
1.500	4.064043	0.380230	672.033670	9.045127	16.817306	-0.302783	-2.502450	1.345934
1.510	4.089017	0.309506	671.021632	8.996303	16.769637	-0.294448	-2.499120	1.340687
1.520	4.020608	0.280567	670.275715	8.961336	16.756684	-0.286715	-2.499969	1.336963
1.530	3.870704	0.299054	669.974178	8.940984	16.769524	-0.281606	-2.503010	1.334527
1.540	3.671603	0.361521	670.239701	8.930865	16.793942	-0.280804	-2.505662	1.332488
1.550	3.468405	0.455196	671.099802	8.923177	16.813616	-0.285110	-2.505382	1.329635
1.560	3.307568	0.560058	672.473935	8.908798	16.813837	-0.294153	-2.500296	1.324780
1.570	3.225372	0.652890	674.193006	8.879050	16.784382	-0.306443	-2.489551	1.316989
1.580	3.239678	0.712056	676.043577	8.826895	16.720524	-0.319707	-2.473291	1.305670
1.590	3.346904	0.721601	677.820412	8.747828	16.622098	-0.331422	-2.452286	1.290582
1.600	3.524622	0.673938	679.369966	8.640771	16.491394	-0.339375	-2.427454	1.271880
1.610	3.739254	0.571019	680.612309	8.508768	16.330893	-0.342065	-2.399441	1.250164
1.620	3.957302	0.424040	681.536863	8.358860	16.141596	-0.338870	-2.368411	1.226472
1.630	4.156997	0.251550	682.176294	8.200709	15.922367	-0.330028	-2.334055	1.202139
1.640	4.336011	0.075962	682.570914	8.044297	15.670430	-0.316593	-2.295795	1.178529
1.650	4.511577	-0.080981	682.739380	7.897648	15.382847	-0.300426	-2.253107	1.156759
1.660	4.712489	-0.202483	682.667292	7.765518	15.058433	-0.284147	-2.205823	1.137526
1.670	4.966451	-0.279299	682.315447	7.649423	14.699375	-0.270863	-2.154337	1.121098
1.680	5.288460	-0.310058	681.640322	7.548660	14.312011	-0.263509	-2.099643	1.107426
1.690	5.674842	-0.299700	680.615813	7.461506	13.906602	-0.263934	-2.043238	1.096287
1.700	6.104283	-0.256935	679.247447	7.385902	13.496319	-0.272102	-1.986952	1.087365
1.710	6.544082	-0.191580	677.575129	7.319503	13.095765	-0.285878	-1.932740	1.080250
1.720	6.958427	-0.112382	675.665782	7.259590	12.719359	-0.301632	-1.882493	1.074435
1.730	7.315940	-0.025823	673.601434	7.203389	12.379813	-0.315499	-1.837854	1.069384
1.740	7.595072	0.063939	671.469738	7.148911	12.086975	-0.324732	-1.800077	1.064666
1.750	7.786933	0.154215	669.360750	7.095795	11.847279	-0.328532	-1.769939	1.060085
1.760	7.895433	0.242631	667.367688	7.045476	11.663936	-0.328024	-1.747753	1.055711
1.770	7.934697	0.326222	665.585999	7.000338	11.537775	-0.325472	-1.733476	1.051756
1.780	7.924157	0.401295	664.107689	6.962260	11.468430	-0.323172	-1.726893	1.048363
1.790	7.882482	0.464200	663.012746	6.931378	11.455410	-0.322477	-1.727781	1.045437
1.800	7.822147	0.512736	662.361757	6.905690	11.498701	-0.323273	-1.736015	1.042586
1.810	7.746504	0.547338	662.192574	6.881556	11.598710	-0.324041	-1.751561	1.039208
1.820	7.650444	0.571223	662.521143	6.854615	11.755534	-0.322442	-1.774364	1.034626
1.830	7.524383	0.589112	663.343572	6.820703	11.967831	-0.316321	-1.804168	1.028231
1.840	7.359816	0.604899	664.635007	6.776612	12.231836	-0.304835	-1.840384	1.019599
1.850	7.153778	0.619300	666.342343	6.720780	12.541130	-0.289237	-1.882085	1.008608
1.860	6.909907	0.628707	668.372705	6.653808	12.887366	-0.272784	-1.928171	0.995524
1.870	6.635679	0.626020	670.585532	6.578474	13.261674	-0.259676	-1.977626	0.981005
1.880	6.337747	0.603182	672.798185	6.498884	13.656160	-0.253460	-2.029756	0.965948
1.890	6.018655	0.554194	674.809872	6.418749	14.064924	-0.255674	-2.084280	0.951194
1.900	5.677341	0.477120	676.439490	6.339372	14.484258	-0.265336	-2.141250	0.937168
1.910	5.313409	0.374131	677.565968	6.258295	14.911939	-0.279425	-2.200810	0.923644
1.920	4.932591	0.249803	678.158005	6.169465	15.345944	-0.294064	-2.262886	0.909739
1.930	4.549678	0.108917	678.282644	6.065013	15.783169	-0.305877	-2.326931	0.894172
1.940	4.186278	-0.044698	678.087643	5.937937	16.218908	-0.312991	-2.391860	0.875689
1.950	3.863437	-0.207542	677.761137	5.784464	16.647561	-0.315344	-2.456258	0.853466
1.960	3.592027	-0.374672	677.481352	5.605104	17.064330	-0.314325	-2.518790	0.827344
1.970	3.365224	-0.538499	677.374075	5.404133	17.466886	-0.312018	-2.578617	0.797806
1.980	3.156842	-0.689566	677.491890	5.187923	17.855778	-0.310416	-2.635571	0.765754
1.990	2.927241	-0.819264	677.818802	4.962993	18.233081	-0.310837	-2.689964	0.732200
2.000	2.635761	-0.923072	678.293021	4.734648	18.599947	-0.313623	-2.742170	0.698024
2.010	2.255946	-1.002541	678.835140	4.506673	18.954471	-0.318112	-2.792205	0.663883
2.020	1.788014	-1.065047	679.370196	4.281705	19.291048	-0.322842	-2.839549	0.630246
2.030	1.263090	-1.121524	679.837910	4.061394	19.601458	-0.325926	-2.883255	0.597406
2.040	0.736341	-1.183146	680.192274	3.845853	19.877052	-0.325566	-2.922270	0.565407
2.050	0.270433	-1.258209	680.396858	3.632917	20.111032	-0.320619	-2.955780	0.533941
2.060	-0.084940	-1.350269	680.423391	3.418167	20.300052	-0.311052	-2.983444	0.502359
2.070	-0.309321	-1.458213	680.257387	3.196120	20.444764	-0.298102	-3.005445	0.469840
2.080	-0.416582	-1.578255	679.907650	2.961979	20.549371	-0.283983	-3.022377	0.435644
2.090	-0.446801	-1.706856	679.411285	2.712967	20.620488	-0.271168	-3.035052	0.399311
2.100	-0.449236	-1.842995	678.826835	2.448663	20.665744	-0.261456	-3.044332	0.360720
2.110	-0.464627	-1.988474	678.215802	2.170609	20.692419	-0.255218	-3.051008	0.320047
2.120	-0.514417	-2.146215	677.622287	1.881739	20.706331	-0.251137	-3.055733	0.277697
2.130	-0.599882	-2.317806	677.064528	1.585933	20.711040	-0.246588	-3.058946	0.234237
2.140	-0.708806	-2.501886	676.546645	1.287520	20.707334	-0.238587	-3.060740	0.190308
2.150	-0.824176	-2.694172	676.086060	0.990617	20.692883	-0.224912	-3.060688	0.146522
2.160	-0.929950	-2.888740	675.739458	0.698528	20.662118	-0.204932	-3.057705	0.103372
2.170	-1.012179	-3.079465	675.606586	0.413656	20.606615	-0.179741	-3.050091	0.061227
2.180	-1.057138	-3.260691	675.801533	0.138177	20.516328	-0.151606	-3.035851	0.020446
2.190	-1.049680	-3.426908	676.400634	-0.124749	20.381682	-0.123153	-3.013256	-0.018443
2.200	-0.974424	-3.571836	677.392254	-0.369938	20.195965	-0.096736	-2.981428	-0.054612
2.210	-0.820198	-3.687732	678.655318	-0.590076	19.957133	-0.074261	-2.940688	-0.086948
2.220	-0.585568	-3.765672	679.979708	-0.776870	19.668249	-0.057337	-2.892476	-0.114249
2.230	-0.281882	-3.797280	681.121486	-0.922969	19.336332	-0.047462	-2.838896	-0.135507
2.240	0.068880	-3.777668	681.870303	-1.023747	18.970198	-0.045989	-2.782083	-0.150138
2.250	0.441235	-3.708404	682.101858	-1.078238	18.578356	-0.053777	-2.723692	-0.158076
2.260	0.815210	-3.598794	681.795719	-1.089113	18.167869	-0.070716	-2.664709	-0.159742
2.270	1.182968	-3.464295	681.014557	-1.062047	17.744489	-0.095373	-2.605596	-0.155951
2.280	1.549640	-3.322519	679.857728	-1.004886	17.313686	-0.124990	-2.546663	-0.147808
2.290	1.927439	-3.188715	678.412726	-0.926760	16.881871	-0.155890	-2.488437	-0.136607
2.300	2.325277	-3.072740	676.727220	-0.837029	16.457183	-0.184226	-2.431878	-0.123688
2.310	2.738810	-2.978496	674.813237	-0.744109	16.049615	-0.206859	-2.378379	-0.110269
2.320	3.146265	-2.905327	672.679282	-0.654460	15.670564	-0.222022	-2.329574	-0.097291
2.330	3.512957	-2.850180	670.373534	-0.572186	15.331860	-0.229514	-2.287062	-0.085353
2.340	3.803128	-2.809563	668.016833	-0.499403	15.044206	-0.230311	-2.252070	-0.074759
2.350	3.993985	-2.781115	665.809138	-0.437077	14.815082	-0.225833	-2.225124	-0.065646
2.360	4.085574	-2.764780	664.004565	-0.385694	14.646689	-0.217216	-2.205812	-0.058086
2.370	4.102031	-2.763239	662.862421	-0.345271	14.534880	-0.204982	-2.192745	-0.052088
