Time[s]	Fx[N]	Fy[N]	Fz[N]	Mx[Nm]	My[Nm]	Mz[Nm]	COPx[cm]	COPy[cm]
0.010	3.562021	-2.267194	717.248601	0.585469	8.737379	0.327670	-1.218180	0.081627
0.020	3.873781	-2.559952	716.725110	0.387846	8.652403	0.313288	-1.207214	0.054114
0.030	4.134176	-2.839604	716.249990	0.196897	8.571887	0.300067	-1.196773	0.027490
0.040	4.306279	-3.093799	715.862673	0.019578	8.499827	0.288555	-1.187354	0.002735
0.050	4.375664	-3.312870	715.589148	-0.138122	8.439146	0.278478	-1.179328	-0.019302
0.060	4.350775	-3.490537	715.441575	-0.272122	8.390785	0.268897	-1.172812	-0.038036
0.070	4.256402	-3.623743	715.419482	-0.381177	8.352809	0.258682	-1.167540	-0.053280
0.080	4.124030	-3.712169	715.510296	-0.467320	8.320113	0.247103	-1.162822	-0.065313
0.090	3.983202	-3.758465	715.690427	-0.535467	8.285206	0.234226	-1.157652	-0.074818
0.100	3.856363	-3.769325	715.929139	-0.592223	8.240120	0.220967	-1.150969	-0.082721
0.110	3.757326	-3.756346	716.194580	-0.644307	8.178826	0.208777	-1.141984	-0.089962
0.120	3.692119	-3.735219	716.458621	-0.697122	8.099160	0.199140	-1.130443	-0.097301
0.130	3.660950	-3.722750	716.698503	-0.753724	8.003357	0.193091	-1.116698	-0.105166
0.140	3.660589	-3.732469	716.896554	-0.814032	7.896897	0.190929	-1.101539	-0.113549
0.150	3.686684	-3.770470	717.040252	-0.874247	7.786198	0.192206	-1.085880	-0.121924
0.160	3.735537	-3.833083	717.123009	-0.926829	7.676247	0.195976	-1.070423	-0.129243
0.170	3.804811	-3.907354	717.144345	-0.961642	7.569240	0.201258	-1.055470	-0.134093
0.180	3.892936	-3.974395	717.108821	-0.968345	7.464706	0.207528	-1.040945	-0.135035
0.190	3.997623	-4.014717	717.024599	-0.939210	7.360824	0.214997	-1.026579	-0.130987
0.200	4.114539	-4.013717	716.902163	-0.871162	7.256108	0.224436	-1.012148	-0.121518
0.210	4.237095	-3.965186	716.752391	-0.766295	7.150582	0.236608	-0.997636	-0.106912
0.220	4.357369	-3.871460	716.583736	-0.630960	7.046010	0.251581	-0.983278	-0.088051
0.230	4.467338	-3.740613	716.400671	-0.474015	6.945419	0.268359	-0.969488	-0.066166
0.240	4.559571	-3.582584	716.206278	-0.304944	6.852413	0.285075	-0.956765	-0.042578
0.250	4.627276	-3.406534	716.008893	-0.132329	6.770571	0.299627	-0.945599	-0.018481
0.260	4.664253	-3.220509	715.828503	0.037052	6.702842	0.310409	-0.936375	0.005176
0.270	4.665529	-3.032726	715.697008	0.198591	6.650825	0.316756	-0.929279	0.027748
0.280	4.628933	-2.852701	715.649265	0.350004	6.614159	0.318944	-0.924218	0.048907
0.290	4.557159	-2.690721	715.707693	0.491532	6.590382	0.317854	-0.920820	0.068678
0.300	4.459214	-2.555456	715.868439	0.626112	6.575500	0.314531	-0.918535	0.087462
0.310	4.350020	-2.450812	716.097088	0.758990	6.565141	0.309862	-0.916795	0.105990
0.320	4.247424	-2.373799	716.336483	0.896237	6.555905	0.304462	-0.915199	0.125114
0.330	4.167065	-2.314821	716.522744	1.042232	6.546395	0.298734	-0.913634	0.145457
0.340	4.117110	-2.260563	716.602612	1.197081	6.537592	0.292977	-0.912304	0.167049
0.350	4.095479	-2.198308	716.546295	1.355321	6.532472	0.287425	-0.911661	0.189146
0.360	4.091222	-2.119885	716.353347	1.506791	6.535025	0.282153	-0.912263	0.210342
0.370	4.089546	-2.023809	716.052077	1.639450	6.549005	0.276958	-0.914599	0.228957
0.380	4.077972	-1.915090	715.693739	1.743062	6.576829	0.271374	-0.918945	0.243549
0.390	4.050574	-1.803121	715.342374	1.812300	6.619025	0.264871	-0.925295	0.253347
0.400	4.008492	-1.698719	715.062113	1.848198	6.674409	0.257150	-0.933403	0.258467
0.410	3.957039	-1.611418	714.905319	1.857602	6.740745	0.248335	-0.942886	0.259839
0.420	3.901578	-1.547672	714.904557	1.850950	6.815395	0.238916	-0.953329	0.258909
0.430	3.844950	-1.509961	715.068890	1.839157	6.895628	0.229460	-0.964331	0.257200
0.440	3.788098	-1.496583	715.382989	1.830538	6.978590	0.220282	-0.975504	0.255882
0.450	3.733167	-1.502211	715.807979	1.828623	7.061136	0.211299	-0.986457	0.255463
0.460	3.686429	-1.519422	716.284521	1.831534	7.139696	0.202217	-0.996768	0.255699
0.470	3.658408	-1.541212	716.739655	1.833098	7.210361	0.192908	-1.005994	0.255755
0.480	3.660601	-1.563867	717.098544	1.825244	7.269347	0.183752	-1.013717	0.254532
0.490	3.700417	-1.589030	717.300251	1.800767	7.313864	0.175709	-1.019638	0.251048
0.500	3.776690	-1.623914	717.313215	1.755508	7.343148	0.170115	-1.023702	0.244734
0.510	3.877610	-1.679338	717.143964	1.689412	7.359174	0.168304	-1.026178	0.235575
0.520	3.981943	-1.766181	716.834618	1.606381	7.366598	0.171234	-1.027657	0.224094
0.530	4.063556	-1.891350	716.450231	1.513198	7.371775	0.179192	-1.028931	0.211208
0.540	4.098142	-2.054447	716.061880	1.417891	7.381131	0.191632	-1.030795	0.198012
0.550	4.070047	-2.246091	715.732314	1.327986	7.399465	0.207169	-1.033831	0.185542
0.560	3.976754	-2.448469	715.507489	1.249078	7.428831	0.223756	-1.038260	0.174572
0.570	3.829439	-2.638120	715.412733	1.184019	7.468324	0.239063	-1.043918	0.165501
0.580	3.649613	-2.790433	715.450868	1.132805	7.514630	0.250987	-1.050335	0.158334
0.590	3.463310	-2.884928	715.602142	1.093183	7.562866	0.258156	-1.056854	0.152764
0.600	3.294914	-2.910049	715.828170	1.061846	7.607334	0.260194	-1.062732	0.148338
0.610	3.162465	-2.866167	716.080622	1.035840	7.642088	0.257671	-1.067211	0.144654
0.620	3.075543	-2.765888	716.311652	1.013498	7.661401	0.251825	-1.069563	0.141488
0.630	3.035765	-2.631563	716.481888	0.994347	7.660171	0.244262	-1.069137	0.138782
0.640	3.039122	-2.490737	716.564542	0.978051	7.634257	0.236758	-1.065397	0.136492
0.650	3.078952	-2.370675	716.547484	0.963094	7.580755	0.231125	-1.057956	0.134408
0.660	3.148516	-2.293208	716.435076	0.946112	7.498309	0.229052	-1.046614	0.132058
0.670	3.242468	-2.271018	716.249208	0.922402	7.387509	0.231847	-1.031416	0.128782
0.680	3.356801	-2.306063	716.027655	0.887458	7.251359	0.240167	-1.012720	0.123942
0.690	3.487411	-2.390198	715.818386	0.838778	7.095633	0.253886	-0.991262	0.117177
0.700	3.628090	-2.507554	715.669945	0.777071	6.928854	0.272178	-0.968163	0.108580
0.710	3.769149	-2.638095	715.619668	0.706267	6.761582	0.293728	-0.944857	0.098693
0.720	3.897512	-2.761751	715.683154	0.632274	6.604979	0.316893	-0.922891	0.088346
0.730	3.998498	-2.862264	715.848885	0.560976	6.468981	0.339691	-0.903680	0.078365
0.740	4.059036	-2.929767	716.080497	0.496324	6.360652	0.359695	-0.888259	0.069311
0.750	4.071647	-2.961469	716.327060	0.439352	6.283240	0.374070	-0.877147	0.061334
0.760	4.038039	-2.960662	716.539331	0.388444	6.236148	0.379946	-0.870315	0.054211
0.770	3.970612	-2.934930	716.687223	0.340536	6.215678	0.375181	-0.867279	0.047515
0.780	3.890467	-2.894424	716.771139	0.292618	6.216226	0.359239	-0.867254	0.040824
0.790	3.821934	-2.850436	716.820234	0.242930	6.231602	0.333773	-0.869340	0.033890
0.800	3.785487	-2.813957	716.876357	0.191439	6.256236	0.302479	-0.872708	0.026705
0.810	3.791991	-2.793940	716.970820	0.139413	6.286081	0.270187	-0.876756	0.019445
0.820	3.840533	-2.795542	717.106103	0.088245	6.319025	0.241501	-0.881184	0.012306
0.830	3.920186	-2.819159	717.251615	0.038148	6.354695	0.219569	-0.885979	0.005319
0.840	4.014241	-2.860961	717.354451	-0.012446	6.393764	0.205420	-0.891298	-0.001735
0.850	4.104832	-2.914889	717.359093	-0.066289	6.437065	0.198064	-0.897328	-0.009241
0.860	4.176384	-2.975305	717.227870	-0.125775	6.484984	0.195232	-0.904173	-0.017536
0.870	4.217322	-3.039146	716.955530	-0.191356	6.537453	0.194393	-0.911835	-0.026690
0.880	4.220408	-3.106639	716.574330	-0.260778	6.594506	0.193617	-0.920282	-0.036392
0.890	4.182624	-3.180165	716.148997	-0.329421	6.656921	0.191983	-0.929544	-0.045999
0.900	4.105310	-3.261680	715.762573	-0.391442	6.726282	0.189490	-0.939736	-0.054689
0.910	3.994494	-3.349820	715.495367	-0.441168	6.804115	0.186692	-0.950966	-0.061659
0.920	3.860694	-3.438032	715.401926	-0.474352	6.890465	0.184298	-0.963160	-0.066306
0.930	3.717566	-3.514758	715.493990	-0.489119	6.982799	0.182920	-0.975941	-0.068361
0.940	3.579515	-3.565961	715.736635	-0.486505	7.076006	0.182930	-0.988633	-0.067973
0.950	3.459059	-3.579373	716.059398	-0.470355	7.163662	0.184357	-1.000428	-0.065687
0.960	3.364707	-3.549067	716.377720	-0.446368	7.240015	0.186875	-1.010642	-0.062309
0.970	3.299733	-3.478540	716.616543	-0.420516	7.301838	0.189957	-1.018932	-0.058681
0.980	3.261902	-3.380701	716.728441	-0.397543	7.349373	0.193167	-1.025406	-0.055466
0.990	3.244231	-3.274247	716.701954	-0.380247	7.386089	0.196410	-1.030566	-0.053055
1.000	3.236770	-3.177716	716.559534	-0.369660	7.417499	0.199954	-1.035155	-0.051588
1.010	3.229046	-3.104055	716.347456	-0.365596	7.449562	0.204213	-1.039937	-0.051036
1.020	3.212490	-3.058279	716.121792	-0.366928	7.487066	0.209457	-1.045502	-0.051238
1.030	3.182240	-3.038701	715.934701	-0.371396	7.532369	0.215610	-1.052103	-0.051876
1.040	3.138064	-3.040065	715.823922	-0.375269	7.584849	0.222293	-1.059597	-0.052425
1.050	3.084302	-3.056321	715.806936	-0.373372	7.641396	0.229075	-1.067522	-0.052161
1.060	3.028692	-3.081630	715.880565	-0.359748	7.697799	0.235749	-1.075291	-0.050252
1.070	2.980094	-3.109611	716.025948	-0.328861	7.750375	0.242422	-1.082415	-0.045929
1.080	2.945588	-3.132039	716.216896	-0.277083	7.797051	0.249312	-1.088644	-0.038687
1.090	2.927946	-3.138542	716.427850	-0.204037	7.837486	0.256399	-1.093967	-0.028480
1.100	2.924504	-3.118202	716.637893	-0.113324	7.872442	0.263172	-1.098524	-0.015813
1.110	2.927953	-3.062721	716.829725	-0.012246	7.902947	0.268665	-1.102486	-0.001708
1.120	2.928735	-2.969869	716.985640	0.089554	7.929776	0.271775	-1.105988	0.012490
1.130	2.918079	-2.845655	717.084566	0.182156	7.953416	0.271687	-1.109132	0.025402
1.140	2.890579	-2.704021	717.103834	0.257500	7.974325	0.268202	-1.112018	0.035908
1.150	2.845591	-2.563686	717.026123	0.311008	7.993132	0.261867	-1.114762	0.043375
1.160	2.787193	-2.442966	716.847837	0.342345	8.010552	0.253904	-1.117469	0.047757
1.170	2.722796	-2.354448	716.583320	0.355192	8.026998	0.245939	-1.120177	0.049567
1.180	2.660876	-2.301613	716.261814	0.356130	8.042105	0.239572	-1.122788	0.049721
1.190	2.608731	-2.278592	715.918938	0.352904	8.054407	0.235883	-1.125045	0.049294
1.200	2.571146	-2.273038	715.587512	0.352428	8.061443	0.235111	-1.126549	0.049250
1.210	2.550278	-2.270965	715.292062	0.358970	8.060385	0.236697	-1.126866	0.050185
1.220	2.546230	-2.261784	715.048701	0.372989	8.049051	0.239696	-1.125665	0.052163
1.230	2.557425	-2.241751	714.869379	0.391052	8.026839	0.243284	-1.122840	0.054703
1.240	2.580414	-2.214745	714.767598	0.406990	7.995040	0.247049	-1.118551	0.056940
1.250	2.609522	-2.190353	714.761850	0.413939	7.956286	0.250909	-1.113138	0.057913
1.260	2.637139	-2.180168	714.873543	0.406506	7.913450	0.254853	-1.106972	0.056864
1.270	2.655109	-2.193711	715.118300	0.382221	7.868582	0.258789	-1.100319	0.053449
1.280	2.657007	-2.235459	715.493273	0.341812	7.822308	0.262653	-1.093275	0.047773
1.290	2.640613	-2.303921	715.966829	0.288339	7.773690	0.266658	-1.085761	0.040273
1.300	2.609692	-2.392815	716.477752	0.225681	7.720264	0.271475	-1.077530	0.031499
1.310	2.574306	-2.493535	716.947323	0.157036	7.658063	0.278130	-1.068149	0.021903
1.320	2.549278	-2.597694	717.301078	0.084034	7.581745	0.287667	-1.056982	0.011715
1.330	2.551068	-2.698776	717.491408	0.006689	7.485257	0.300715	-1.043254	0.000932
1.340	2.593938	-2.792524	717.510812	-0.075873	7.363285	0.317154	-1.026226	-0.010574
1.350	2.686574	-2.876409	717.389811	-0.164250	7.213299	0.336021	-1.005492	-0.022895
1.360	2.830112	-2.949057	717.181259	-0.257619	7.037430	0.355689	-0.981262	-0.035921
1.370	3.017733	-3.010291	716.939283	-0.353126	6.843236	0.374205	-0.954507	-0.049255
1.380	3.235474	-3.061748	716.702563	-0.446129	6.642770	0.389697	-0.926852	-0.062247
1.390	3.464169	-3.107124	716.488127	-0.531175	6.450088	0.400770	-0.900237	-0.074136
1.400	3.682890	-3.151213	716.296264	-0.603216	6.277942	0.406817	-0.876445	-0.084213
1.410	3.873695	-3.197792	716.122204	-0.658631	6.134693	0.408130	-0.856654	-0.091972
1.420	4.026224	-3.247395	715.967429	-0.695885	6.022500	0.405753	-0.841169	-0.097195
1.430	4.139983	-3.296282	715.844353	-0.715803	5.937438	0.401080	-0.829431	-0.099994
1.440	4.223136	-3.337340	715.772222	-0.721475	5.871455	0.395320	-0.820297	-0.100797
1.450	4.288387	-3.362565	715.767080	-0.717793	5.815262	0.389035	-0.812452	-0.100283
1.460	4.347818	-3.365846	715.831411	-0.710588	5.761031	0.381940	-0.804803	-0.099268
1.470	4.408567	-3.344697	715.948976	-0.705421	5.704066	0.373044	-0.796714	-0.098529
1.480	4.470557	-3.300439	716.088048	-0.706308	5.643161	0.361082	-0.788054	-0.098634
1.490	4.526752	-3.237152	716.212587	-0.714945	5.579870	0.345073	-0.779080	-0.099823
1.500	4.565897	-3.160120	716.296833	-0.730810	5.517233	0.324847	-0.770244	-0.102026
1.510	4.576963	-3.074550	716.336329	-0.751986	5.458516	0.301340	-0.762005	-0.104977
1.520	4.553931	-2.985228	716.349536	-0.776091	5.406294	0.276508	-0.754701	-0.108340
1.530	4.499317	-2.897224	716.369095	-0.800688	5.361935	0.252840	-0.748488	-0.111770
1.540	4.425071	-2.816788	716.427172	-0.823140	5.325522	0.232609	-0.743344	-0.114895
1.550	4.349972	-2.751232	716.541723	-0.840376	5.296180	0.217187	-0.739131	-0.117282
1.560	4.293632	-2.707319	716.708981	-0.849166	5.272697	0.206731	-0.735682	-0.118481
1.570	4.268957	-2.689060	716.904516	-0.847050	5.254097	0.200380	-0.732887	-0.118154
1.580	4.276610	-2.696243	717.092427	-0.833472	5.239909	0.196812	-0.730716	-0.116229
1.590	4.304745	-2.724295	717.239250	-0.810495	5.230095	0.194872	-0.729198	-0.113002
1.600	4.334566	-2.765199	717.326383	-0.782601	5.224862	0.194014	-0.728380	-0.109100
1.610	4.348927	-2.808997	717.355203	-0.755459	5.224548	0.194422	-0.728307	-0.105312
1.620	4.339578	-2.845672	717.343077	-0.734045	5.229594	0.196752	-0.729023	-0.102328
1.630	4.309801	-2.867254	717.312903	-0.721038	5.240470	0.201630	-0.730570	-0.100519
1.640	4.271886	-2.869732	717.280883	-0.716342	5.257409	0.209138	-0.732964	-0.099869
1.650	4.241492	-2.854170	717.247158	-0.717957	5.279985	0.218593	-0.736146	-0.100099
1.660	4.231950	-2.826502	717.192926	-0.723578	5.306785	0.228782	-0.739938	-0.100890
1.670	4.250671	-2.795976	717.086134	-0.731990	5.335561	0.238479	-0.744061	-0.102078
1.680	4.298015	-2.772853	716.894971	-0.743602	5.363976	0.246941	-0.748223	-0.103725
1.690	4.367773	-2.766154	716.604662	-0.760002	5.390666	0.254079	-0.752251	-0.106056
1.700	4.448376	-2.781969	716.230641	-0.782939	5.416157	0.260321	-0.756203	-0.109314
1.710	4.524616	-2.822453	715.821902	-0.813347	5.443279	0.266267	-0.760424	-0.113624
1.720	4.579974	-2.885523	715.451594	-0.850871	5.477020	0.272300	-0.765533	-0.118928
1.730	4.599489	-2.965300	715.197037	-0.894014	5.523868	0.278314	-0.772356	-0.125002
1.740	4.572811	-3.053319	715.116452	-0.940688	5.590693	0.283667	-0.781788	-0.131543
1.750	4.496811	-3.140324	715.231724	-0.988943	5.683210	0.287432	-0.794597	-0.138269
1.760	4.376867	-3.218231	715.523019	-1.037595	5.804155	0.288830	-0.811177	-0.145012
1.770	4.226033	-3.281779	715.934947	-1.086561	5.951597	0.287612	-0.831304	-0.151768
1.780	4.062012	-3.329515	716.389873	-1.136757	6.118064	0.284219	-0.854013	-0.158679
1.790	3.902924	-3.363895	716.803955	-1.189664	6.291108	0.279640	-0.877661	-0.165968
1.800	3.763344	-3.390519	717.103540	-1.246710	6.455552	0.275075	-0.900226	-0.173854
1.810	3.651783	-3.416526	717.240576	-1.308579	6.596954	0.271561	-0.919769	-0.182446
1.820	3.570212	-3.448323	717.204625	-1.374511	6.705290	0.269675	-0.934920	-0.191648
1.830	3.515468	-3.489147	717.027463	-1.441841	6.777614	0.269380	-0.945238	-0.201086
1.840	3.481674	-3.537328	716.776499	-1.506285	6.818757	0.270036	-0.951309	-0.210147
1.850	3.462498	-3.586090	716.536523	-1.563215	6.839817	0.270618	-0.954566	-0.218163
1.860	3.452590	-3.625238	716.384119	-1.609576	6.854920	0.270155	-0.956878	-0.224681
1.870	3.448299	-3.644552	716.362968	-1.645461	6.877264	0.268281	-0.960025	-0.229697
1.880	3.448030	-3.638155	716.469000	-1.674486	6.915524	0.265671	-0.965223	-0.233714
1.890	3.452369	-3.608451	716.651571	-1.702773	6.971601	0.264090	-0.972802	-0.237601
1.900	3.463738	-3.567738	716.831061	-1.737104	7.040454	0.265914	-0.982164	-0.242331
1.910	3.485042	-3.536041	716.926939	-1.783003	7.112215	0.273192	-0.992042	-0.248701
1.920	3.516901	-3.535262	716.885929	-1.843214	7.175966	0.286602	-1.000991	-0.257114
1.930	3.554108	-3.581590	716.699605	-1.916753	7.223782	0.304810	-1.007923	-0.267442
1.940	3.583344	-3.679092	716.404716	-1.998695	7.253468	0.324582	-1.012482	-0.278990
1.950	3.584515	-3.816952	716.066941	-2.081038	7.269024	0.341670	-1.015132	-0.290621
1.960	3.536446	-3.971377	715.756549	-2.154710	7.278879	0.352114	-1.016949	-0.301040
1.970	3.425058	-4.111490	715.527733	-2.212168	7.292826	0.353455	-1.019223	-0.309166
1.980	3.250203	-4.207349	715.409313	-2.249475	7.318921	0.345362	-1.023040	-0.314432
1.990	3.027472	-4.237752	715.406490	-2.266893	7.361366	0.329476	-1.028977	-0.316868
2.000	2.783669	-4.195754	715.507492	-2.267875	7.419832	0.308634	-1.037003	-0.316960
2.010	2.547956	-4.090399	715.688587	-2.257156	7.490089	0.285888	-1.046557	-0.315382
2.020	2.342929	-3.944226	715.915145	-2.238841	7.565485	0.263779	-1.056757	-0.312724
2.030	2.179698	-3.787396	716.141695	-2.215080	7.638766	0.244037	-1.066656	-0.309308
2.040	2.058542	-3.650266	716.316396	-2.185458	7.703781	0.227627	-1.075472	-0.305097
2.050	1.973617	-3.556359	716.392755	-2.147003	7.756642	0.214931	-1.082736	-0.299696
2.060	1.918403	-3.516967	716.345507	-2.094715	7.796027	0.205916	-1.088305	-0.292417
2.070	1.888998	-3.528123	716.182747	-2.022579	7.822556	0.200244	-1.092257	-0.282411
2.080	1.884273	-3.570619	715.946610	-1.925018	7.837566	0.197381	-1.094714	-0.268877
2.090	1.903830	-3.613716	715.700017	-1.798556	7.841945	0.196753	-1.095703	-0.251300
2.100	1.945489	-3.622354	715.504468	-1.643148	7.835639	0.197924	-1.095121	-0.229649
2.110	2.003828	-3.566344	715.399108	-1.462629	7.818016	0.200654	-1.092819	-0.204449
2.120	2.070517	-3.428815	715.390799	-1.264031	7.788763	0.204805	-1.088742	-0.176691
2.130	2.136395	-3.211212	715.458740	-1.056123	7.748687	0.210125	-1.083038	-0.147615
2.140	2.194431	-2.933343	715.569436	-0.847863	7.700012	0.216086	-1.076068	-0.118488
2.150	2.242059	-2.628627	715.693665	-0.647293	7.646036	0.221903	-1.068339	-0.090443
2.160	2.281328	-2.336056	715.818079	-0.461030	7.590394	0.226784	-1.060380	-0.064406
2.170	2.316335	-2.091161	715.947634	-0.294212	7.536239	0.230310	-1.052624	-0.041094
2.180	2.349106	-1.918613	716.099006	-0.150667	7.485641	0.232729	-1.045336	-0.021040
2.190	2.376416	-1.828563	716.288853	-0.033027	7.439328	0.234977	-1.038593	-0.004611
2.200	2.389859	-1.817433	716.523203	0.057392	7.396742	0.238389	-1.032310	0.008010
2.210	2.379629	-1.871933	716.793329	0.120979	7.356262	0.244244	-1.026274	0.016878
2.220	2.340275	-1.973991	717.079044	0.160275	7.315338	0.253335	-1.020158	0.022351
2.230	2.275634	-2.104622	717.355772	0.180095	7.270374	0.265731	-1.013496	0.025105
2.240	2.200727	-2.246085	717.600641	0.186983	7.216442	0.280813	-1.005635	0.026057
2.250	2.140039	-2.382807	717.795290	0.188083	7.147223	0.297485	-0.995719	0.026203
2.260	2.122849	-2.501673	717.925616	0.189906	7.055616	0.314385	-0.982778	0.026452
2.270	2.176879	-2.592008	717.979393	0.197371	6.935121	0.330030	-0.965922	0.027490
2.280	2.321714	-2.645407	717.942800	0.213185	6.781678	0.342957	-0.944599	0.029694
2.290	2.563661	-2.655687	717.798104	0.237429	6.595355	0.351962	-0.918832	0.033077
2.300	2.893491	-2.619256	717.525578	0.267418	6.381250	0.356370	-0.889341	0.037269
2.310	3.287655	-2.535917	717.111331	0.298095	6.149115	0.356187	-0.857484	0.041569
2.320	3.712394	-2.409843	716.559188	0.323143	5.911702	0.352047	-0.825012	0.045096
2.330	4.129522	-2.250148	715.901355	0.336739	5.682330	0.345042	-0.793731	0.047037
2.340	4.502665	-2.070531	715.201783	0.335520	5.472527	0.336528	-0.765172	0.046913
2.350	4.803036	-1.887812	714.548865	0.320098	5.290480	0.327980	-0.740394	0.044797
2.360	5.013985	-1.719667	714.038904	0.295486	5.140568	0.320831	-0.719928	0.041382
2.370	5.133484	-1.581951	713.755600	0.270085	5.023706	0.316249	-0.703841	0.037840
2.380	5.173821	-1.485851	713.751429	0.253468	4.937998	0.314903	-0.691837	0.035512
2.390	5.158171	-1.435429	714.035146	0.253708	4.879418	0.316823	-0.683358	0.035532
