Time[s]	Fx[N]	Fy[N]	Fz[N]	Mx[Nm]	My[Nm]	Mz[Nm]	COPx[cm]	COPy[cm]
0.010	14.255205	-0.441124	599.405278	-14.051614	-10.062094	0.796254	1.678680	-2.344259
0.020	14.407591	-0.459444	598.806874	-14.185280	-10.105372	0.805827	1.687584	-2.368924
0.030	14.519308	-0.481334	598.351342	-14.326428	-10.130904	0.815162	1.693136	-2.394317
0.040	14.560359	-0.512574	598.163269	-14.479632	-10.123250	0.824196	1.692389	-2.420682
0.050	14.515941	-0.560438	598.324637	-14.645481	-10.069873	0.832999	1.683012	-2.447748
0.060	14.386374	-0.631942	598.858282	-14.820505	-9.961900	0.841445	1.663482	-2.474793
0.070	14.182443	-0.730255	599.725869	-14.998662	-9.793961	0.848954	1.633073	-2.500920
0.080	13.919236	-0.850605	600.843397	-15.173885	-9.563548	0.854600	1.591687	-2.525431
0.090	13.611423	-0.978254	602.107097	-15.342700	-9.270326	0.857618	1.539647	-2.548168
0.100	13.271158	-1.090779	603.417335	-15.505805	-8.915543	0.858020	1.477509	-2.569665
0.110	12.907885	-1.165003	604.691823	-15.667901	-8.501397	0.856945	1.405906	-2.591056
0.120	12.528720	-1.186589	605.868842	-15.835802	-8.030380	0.856524	1.325432	-2.613734
0.130	12.138788	-1.158716	606.908599	-16.015545	-7.504942	0.859266	1.236585	-2.638873
0.140	11.741854	-1.105796	607.800169	-16.209464	-6.927990	0.867230	1.139847	-2.666907
0.150	11.341662	-1.069155	608.573417	-16.414235	-6.304315	0.881252	1.035917	-2.697166
0.160	10.943503	-1.094277	609.306754	-16.620747	-5.642438	0.900520	0.926042	-2.727813
0.170	10.554701	-1.213167	610.120061	-16.816107	-4.955777	0.922641	0.812263	-2.756196
0.180	10.182889	-1.428745	611.148595	-16.987198	-4.262153	0.944211	0.697400	-2.779553
0.190	9.832453	-1.708538	612.503094	-17.124606	-3.581310	0.961751	0.584701	-2.795840
0.200	9.501108	-1.991574	614.228396	-17.225477	-2.931165	0.972680	0.477211	-2.804409
0.210	9.179026	-2.206843	616.274856	-17.294178	-2.324129	0.975965	0.377125	-2.806244
0.220	8.851695	-2.296857	618.492882	-17.340393	-1.764789	0.972167	0.285337	-2.803653
0.230	8.505452	-2.237669	620.652701	-17.375301	-1.249516	0.962947	0.201323	-2.799521
0.240	8.132812	-2.047880	622.483352	-17.407343	-0.767747	0.950337	0.123336	-2.796435
0.250	7.734533	-1.783228	623.720732	-17.439204	-0.304360	0.936131	0.048797	-2.795996
0.260	7.317166	-1.518563	624.154891	-17.467082	0.157302	0.921510	-0.025202	-2.798517
0.270	6.887914	-1.323590	623.669425	-17.482437	0.632059	0.906889	-0.101345	-2.803158
0.280	6.450758	-1.240845	622.268053	-17.475623	1.129544	0.891979	-0.181520	-2.808375
0.290	6.007172	-1.273511	620.083943	-17.440212	1.651568	0.876077	-0.266346	-2.812557
0.300	5.561346	-1.387091	617.367722	-17.376410	2.191112	0.858509	-0.354912	-2.814597
0.310	5.126087	-1.523766	614.452696	-17.292172	2.733573	0.838971	-0.444879	-2.814240
0.320	4.724390	-1.623463	611.701310	-17.201455	3.260246	0.817593	-0.532980	-2.812068
0.330	4.383979	-1.643373	609.443262	-17.120381	3.753172	0.794783	-0.615836	-2.809184
0.340	4.126447	-1.569145	607.919690	-17.062978	4.199844	0.771054	-0.690855	-2.806782
0.350	3.956265	-1.415246	607.246625	-17.038241	4.596140	0.746988	-0.756882	-2.805819
0.360	3.855592	-1.216482	607.404815	-17.049431	4.946571	0.723297	-0.814378	-2.806930
0.370	3.787815	-1.015255	608.255167	-17.095296	5.262089	0.700876	-0.865112	-2.810547
0.380	3.708160	-0.849286	609.573469	-17.172046	5.556638	0.680758	-0.911562	-2.817059
0.390	3.576431	-0.743097	611.095909	-17.274813	5.843804	0.663953	-0.956283	-2.826858
0.400	3.367072	-0.704762	612.568010	-17.398029	6.134337	0.651164	-1.001413	-2.840179
0.410	3.074421	-0.727867	613.791876	-17.534983	6.434513	0.642438	-1.048322	-2.856829
0.420	2.713724	-0.797155	614.667020	-17.677415	6.744848	0.636897	-1.097317	-2.875934
0.430	2.319248	-0.895177	615.215799	-17.815870	7.058982	0.632718	-1.147399	-2.895873
0.440	1.939752	-1.006980	615.579991	-17.940943	7.363223	0.627494	-1.196144	-2.914478
0.450	1.630640	-1.121086	615.979106	-18.044850	7.637610	0.618871	-1.239914	-2.929458
0.460	1.442674	-1.227150	616.636259	-18.122541	7.859013	0.605239	-1.274497	-2.938935
0.470	1.409217	-1.312665	617.695221	-18.171983	8.005872	0.586244	-1.296088	-2.941901
0.480	1.536159	-1.361817	619.160244	-18.193829	8.063303	0.563042	-1.302297	-2.938468
0.490	1.799308	-1.358512	620.882600	-18.190923	8.026846	0.538189	-1.292812	-2.929849
0.500	2.151789	-1.293069	622.598251	-18.167918	7.903383	0.515129	-1.269419	-2.918081
0.510	2.539506	-1.169332	624.000063	-18.130933	7.708824	0.497333	-1.235388	-2.905598
0.520	2.918420	-1.007969	624.816174	-18.087098	7.463510	0.487443	-1.194513	-2.894787
0.530	3.266148	-0.843154	624.868072	-18.043889	7.187332	0.486752	-1.150216	-2.887632
0.540	3.583275	-0.713130	624.094238	-18.008294	6.896476	0.495206	-1.105038	-2.885509
0.550	3.884915	-0.648492	622.540574	-17.985833	6.602651	0.511726	-1.060598	-2.889102
0.560	4.187419	-0.663247	620.330734	-17.979480	6.314205	0.534528	-1.017877	-2.898370
0.570	4.496521	-0.752137	617.634088	-17.988752	6.037722	0.561227	-0.977556	-2.912526
0.580	4.801825	-0.894417	614.644849	-18.009526	5.778734	0.588788	-0.940174	-2.930070
0.590	5.079522	-1.061668	611.575628	-18.035042	5.540976	0.613623	-0.906016	-2.948947
0.600	5.302080	-1.226385	608.658304	-18.057921	5.324575	0.632081	-0.874805	-2.966840
0.610	5.450978	-1.368503	606.140061	-18.072357	5.124236	0.641319	-0.845388	-2.981548
0.620	5.527316	-1.478093	604.265402	-18.075629	4.928581	0.640176	-0.815632	-2.991339
0.630	5.555942	-1.553839	603.243597	-18.068488	4.721372	0.629600	-0.782664	-2.995222
0.640	5.581426	-1.598568	603.209580	-18.054548	4.484580	0.612417	-0.743453	-2.993080
0.650	5.657254	-1.614275	604.189499	-18.039032	4.202623	0.592573	-0.695580	-2.985658
0.660	5.831662	-1.599212	606.080311	-18.027325	3.866623	0.574219	-0.637972	-2.974412
0.670	6.134103	-1.548304	608.649313	-18.023765	3.477499	0.560965	-0.571347	-2.961273
0.680	6.566154	-1.456296	611.556043	-18.031002	3.047035	0.555437	-0.498243	-2.948381
0.690	7.099625	-1.321900	614.394830	-18.049969	2.596610	0.559114	-0.422629	-2.937845
0.700	7.682506	-1.151224	616.751342	-18.080172	2.154031	0.572330	-0.349254	-2.931517
0.710	8.250392	-0.959513	618.262523	-18.119922	1.749342	0.594402	-0.282945	-2.930781
0.720	8.739236	-0.770725	618.667846	-18.166381	1.410703	0.623836	-0.228023	-2.936371
0.730	9.095722	-0.614802	617.842422	-18.215618	1.161164	0.658571	-0.187939	-2.948263
0.740	9.283817	-0.522860	615.809118	-18.263001	1.016629	0.696196	-0.165088	-2.965692
0.750	9.288145	-0.521071	612.733959	-18.304133	0.984689	0.734092	-0.160704	-2.987289
0.760	9.115351	-0.624460	608.910960	-18.336307	1.063837	0.769544	-0.174711	-3.011328
0.770	8.793699	-0.832059	604.737843	-18.360044	1.243060	0.799909	-0.205554	-3.036034
0.780	8.369735	-1.124755	600.678719	-18.380083	1.502608	0.822904	-0.250152	-3.059886
0.790	7.900402	-1.466944	597.210646	-18.405258	1.816711	0.837008	-0.304199	-3.081870
0.800	7.440649	-1.812512	594.759003	-18.447170	2.158104	0.841844	-0.362853	-3.101621
0.810	7.029946	-2.114622	593.635903	-18.517905	2.502937	0.838310	-0.421628	-3.119405
0.820	6.683553	-2.337101	593.999199	-18.627303	2.834258	0.828382	-0.477148	-3.135914
0.830	6.393245	-2.463768	595.843289	-18.780399	3.142841	0.814686	-0.527461	-3.151902
0.840	6.137500	-2.501987	599.019789	-18.975813	3.425488	0.800029	-0.571849	-3.167811
0.850	5.896096	-2.478597	603.273774	-19.205600	3.682029	0.786957	-0.610341	-3.183563
0.860	5.661849	-2.429504	608.277579	-19.456583	3.912746	0.777409	-0.643250	-3.198636
0.870	5.443860	-2.387017	613.651654	-19.712629	4.117509	0.772546	-0.670985	-3.212348
0.880	5.261086	-2.370047	618.976127	-19.957184	4.296843	0.772775	-0.694186	-3.224225
0.890	5.130041	-2.381043	623.807426	-20.175484	4.453911	0.777902	-0.713988	-3.234249
0.900	5.053551	-2.410453	627.713852	-20.356044	4.595677	0.787292	-0.732129	-3.242886
0.910	5.016761	-2.445888	630.333004	-20.491289	4.731848	0.799947	-0.750690	-3.250867
0.920	4.992460	-2.481047	631.439688	-20.577479	4.871440	0.814497	-0.771481	-3.258819
0.930	4.952660	-2.519887	631.003252	-20.614108	5.018206	0.829070	-0.795274	-3.266878
0.940	4.880444	-2.574163	629.212399	-20.602952	5.166873	0.841133	-0.821165	-3.274403
0.950	4.776780	-2.655579	626.453184	-20.546926	5.301914	0.847495	-0.846338	-3.279882
0.960	4.660309	-2.766163	623.238993	-20.449088	5.399648	0.844768	-0.866385	-3.281099
0.970	4.561432	-2.891491	620.106461	-20.312135	5.433261	0.830400	-0.876182	-3.275588
0.980	4.513637	-3.000420	617.504454	-20.138637	5.379271	0.803978	-0.871131	-3.261294
0.990	4.544959	-3.052298	615.708719	-19.931952	5.223383	0.768159	-0.848353	-3.237237
1.000	4.671709	-3.009159	614.787757	-19.697238	4.963820	0.728596	-0.807404	-3.203909
1.010	4.895764	-2.848145	614.626928	-19.441764	4.611147	0.692575	-0.750235	-3.163181
1.020	5.205601	-2.569187	614.996106	-19.174011	4.184896	0.666807	-0.680475	-3.117745
1.030	5.579994	-2.195104	615.632340	-18.902002	3.708464	0.655243	-0.602383	-3.070339
1.040	5.992385	-1.764624	616.308886	-18.631940	3.204075	0.657897	-0.519881	-3.023150
1.050	6.414322	-1.321669	616.873169	-18.368033	2.689162	0.671136	-0.435934	-2.977603
1.060	6.817994	-0.905159	617.250859	-18.113486	2.174735	0.689228	-0.352326	-2.934542
1.070	7.179213	-0.542556	617.424876	-17.871723	1.665654	0.706394	-0.269774	-2.894558
1.080	7.481596	-0.248259	617.404142	-17.646769	1.162352	0.718491	-0.188264	-2.858220
1.090	7.720698	-0.025856	617.196560	-17.442494	0.663306	0.723796	-0.107471	-2.826084
1.100	7.905609	0.127937	616.795229	-17.261332	0.167443	0.722830	-0.027147	-2.798552
1.110	8.056560	0.219835	616.179535	-17.103456	-0.324225	0.717549	0.052619	-2.775726
1.120	8.199474	0.258383	615.327043	-16.966985	-0.808146	0.710302	0.131336	-2.757393
1.130	8.360027	0.254152	614.228762	-16.849097	-1.278827	0.702947	0.208200	-2.743131
1.140	8.559097	0.220481	612.899136	-16.747441	-1.729931	0.696403	0.282254	-2.732495
1.150	8.809642	0.172986	611.374356	-16.661206	-2.155058	0.690749	0.352494	-2.725205
1.160	9.113898	0.126930	609.699581	-16.591476	-2.547686	0.685762	0.417859	-2.721254
1.170	9.460625	0.093086	607.914285	-16.540831	-2.900448	0.681566	0.477115	-2.720915
1.180	9.823849	0.073912	606.048173	-16.512457	-3.204568	0.679010	0.528765	-2.724611
1.190	10.165338	0.061903	604.134001	-16.509192	-3.450344	0.679542	0.571122	-2.732704
1.200	10.442033	0.041195	602.232442	-16.532946	-3.629034	0.684659	0.602597	-2.745277
1.210	10.617149	-0.007730	600.455680	-16.584684	-3.735685	0.695234	0.622142	-2.762016
1.220	10.671197	-0.101725	598.975137	-16.664707	-3.771816	0.711049	0.629712	-2.782203
1.230	10.608297	-0.249213	598.004364	-16.772716	-3.746641	0.730735	0.626524	-2.804782
1.240	10.454718	-0.446874	597.757669	-16.907306	-3.675968	0.752115	0.614960	-2.828455
1.250	10.250052	-0.679628	598.394880	-17.064924	-3.578845	0.772791	0.598074	-2.851783
1.260	10.034771	-0.923745	599.969547	-17.238831	-3.473007	0.790698	0.578864	-2.873284
1.270	9.839167	-1.152380	602.399596	-17.418864	-3.370752	0.804426	0.559554	-2.891580
1.280	9.677350	-1.342270	605.473238	-17.592589	-3.276827	0.813249	0.541201	-2.905593
1.290	9.547368	-1.479660	608.889633	-17.747802	-3.189090	0.816984	0.523755	-2.914781
1.300	9.436140	-1.563281	612.320178	-17.875512	-3.101591	0.815878	0.506531	-2.919308
1.310	9.326610	-1.603192	615.470767	-17.972089	-3.008676	0.810555	0.488841	-2.920056
1.320	9.204521	-1.616090	618.128971	-18.039506	-2.908515	0.802013	0.470535	-2.918405
1.330	9.063148	-1.619072	620.187747	-18.083487	-2.804929	0.791609	0.452271	-2.915809
1.340	8.905596	-1.624169	621.644395	-18.110497	-2.707270	0.780997	0.435501	-2.913321
1.350	8.745143	-1.635473	622.578113	-18.125078	-2.628745	0.771990	0.422235	-2.911294
1.360	8.603963	-1.649694	623.112249	-18.128684	-2.583817	0.766326	0.414663	-2.909377
1.370	8.509921	-1.659606	623.369728	-18.120180	-2.585274	0.765410	0.414726	-2.906811
1.380	8.491028	-1.658522	623.432961	-18.097320	-2.641544	0.770071	0.423709	-2.902849
1.390	8.568253	-1.643608	623.320309	-18.058297	-2.754858	0.780411	0.441965	-2.897113
1.400	8.748820	-1.616747	622.986949	-18.002653	-2.920714	0.795735	0.468824	-2.889732
1.410	9.022594	-1.583197	622.348855	-17.931350	-3.128725	0.814570	0.502729	-2.881238
1.420	9.363218	-1.549350	621.319134	-17.846188	-3.364407	0.834829	0.541494	-2.872306
1.430	9.733742	-1.520956	619.841590	-17.749040	-3.611159	0.854208	0.582594	-2.863480
1.440	10.094539	-1.502439	617.909537	-17.641269	-3.851794	0.870787	0.623359	-2.854992
1.450	10.410342	-1.496906	615.566198	-17.523468	-4.069330	0.883567	0.661071	-2.846724
1.460	10.654113	-1.505892	612.892182	-17.395511	-4.247299	0.892599	0.692993	-2.838266
1.470	10.807487	-1.528418	609.991133	-17.256931	-4.370275	0.898550	0.716449	-2.829046
1.480	10.859410	-1.559947	606.983851	-17.107730	-4.425289	0.902021	0.729062	-2.818482
1.490	10.805203	-1.592378	604.013921	-16.949617	-4.404295	0.903073	0.729171	-2.806163
1.500	10.647444	-1.615702	601.258060	-16.787273	-4.306863	0.901272	0.716308	-2.792025
1.510	10.398226	-1.620838	598.927898	-16.628853	-4.141607	0.896161	0.691503	-2.776437
1.520	10.080556	-1.602373	597.250478	-16.484989	-3.924882	0.887813	0.657158	-2.760147
1.530	9.725973	-1.559991	596.423555	-16.366147	-3.676293	0.877083	0.616390	-2.744048
1.540	9.367002	-1.498250	596.555733	-16.279060	-3.412125	0.865328	0.571971	-2.728841
1.550	9.026468	-1.425185	597.614128	-16.223615	-3.139110	0.853723	0.525274	-2.714731
1.560	8.708644	-1.350538	599.405510	-16.191671	-2.851215	0.842549	0.475674	-2.701288
1.570	8.397172	-1.284078	601.607163	-16.168695	-2.531034	0.830892	0.420712	-2.687584
1.580	8.061334	-1.233876	603.843899	-16.137948	-2.155482	0.816937	0.356960	-2.672536
1.590	7.667857	-1.204156	605.787478	-16.085969	-1.703735	0.798763	0.281243	-2.655382
1.600	7.193125	-1.192994	607.244678	-16.007508	-1.164647	0.775279	0.191792	-2.636089
1.610	6.631459	-1.191362	608.205694	-15.908204	-0.541324	0.746910	0.089003	-2.615596
1.620	5.997728	-1.185242	608.840214	-15.803870	0.148241	0.715699	-0.024348	-2.595734
1.630	5.324633	-1.161132	609.444987	-15.716150	0.874160	0.684706	-0.143435	-2.578764
1.640	4.655894	-1.112898	610.358620	-15.665574	1.600011	0.656891	-0.262143	-2.566618
1.650	4.036941	-1.046325	611.866791	-15.664216	2.288980	0.633907	-0.374098	-2.560070
1.660	3.505196	-0.977985	614.123690	-15.710703	2.909324	0.615371	-0.473736	-2.558231
1.670	3.082442	-0.927612	617.110328	-15.789497	3.438118	0.598985	-0.557132	-2.558618
1.680	2.771453	-0.906927	620.637233	-15.874694	3.862817	0.581555	-0.622395	-2.557806
1.690	2.557910	-0.910551	624.384297	-15.936870	4.180773	0.560522	-0.669583	-2.552414
1.700	2.417097	-0.914323	627.961750	-15.950650	4.397283	0.535381	-0.700247	-2.540067
1.710	2.323302	-0.882933	630.975816	-15.900613	4.522895	0.508369	-0.716810	-2.520004
1.720	2.258769	-0.784246	633.087384	-15.783829	4.570565	0.484087	-0.721949	-2.493152
1.730	2.219080	-0.604254	634.057418	-15.608505	4.553121	0.468216	-0.718093	-2.461686
1.740	2.213157	-0.355865	633.776234	-15.389542	4.481260	0.465818	-0.707073	-2.428230
1.750	2.258244	-0.077078	632.275259	-15.142896	4.362293	0.479834	-0.689936	-2.394985
1.760	2.372160	0.181424	629.720802	-14.880940	4.199727	0.510189	-0.666919	-2.363101
1.770	2.565993	0.374565	626.390653	-14.610312	3.993646	0.553678	-0.637565	-2.332460
1.780	2.840030	0.479716	622.636199	-14.332400	3.741593	0.604551	-0.600928	-2.301890
1.790	3.184242	0.505365	618.834745	-14.045463	3.439676	0.655585	-0.555831	-2.269663
1.800	3.582677	0.488467	615.337968	-13.747118	3.083818	0.699383	-0.501158	-2.234076
1.810	4.019452	0.481752	612.423046	-13.436255	2.671207	0.729736	-0.436170	-2.193950
1.820	4.483434	0.535870	610.254159	-13.114106	2.201901	0.742919	-0.360817	-2.148958
1.830	4.969527	0.682825	608.863408	-12.784591	1.680239	0.738675	-0.275963	-2.099747
1.840	5.476344	0.926351	608.158724	-12.454202	1.115533	0.720493	-0.183428	-2.047854
1.850	6.001956	1.242121	607.959444	-12.131482	0.521624	0.694831	-0.085799	-1.995443
1.860	6.540299	1.586938	608.050240	-11.826042	-0.084692	0.669353	0.013929	-1.944912
1.870	7.080115	1.912949	608.236554	-11.547197	-0.685915	0.650740	0.112771	-1.898471
1.880	7.606710	2.181534	608.383879	-11.302518	-1.265967	0.642924	0.208087	-1.857794
1.890	8.105282	2.372220	608.429824	-11.096729	-1.811548	0.646417	0.297742	-1.823830
1.900	8.563747	2.484408	608.369265	-10.931256	-2.312440	0.658875	0.380105	-1.796813
1.910	8.973470	2.532684	608.223440	-10.804551	-2.760915	0.676493	0.453931	-1.776411
1.920	9.327686	2.538662	608.008607	-10.713007	-3.150699	0.695498	0.518200	-1.761983
1.930	9.618730	2.522822	607.717277	-10.652101	-3.476002	0.713223	0.571977	-1.752805
1.940	9.835559	2.498950	607.317731	-10.617368	-3.731097	0.728478	0.614357	-1.748239
1.950	9.962899	2.472179	606.769537	-10.605049	-3.910607	0.741335	0.644496	-1.747789
1.960	9.983035	2.440111	606.047574	-10.612530	-4.010408	0.752543	0.661732	-1.751105
1.970	9.880402	2.395773	605.165957	-10.638591	-4.028868	0.762875	0.665746	-1.757963
1.980	9.647806	2.331088	604.195156	-10.683317	-3.968171	0.772627	0.656770	-1.768190
1.990	9.292022	2.239859	603.268089	-10.747505	-3.835533	0.781375	0.635792	-1.781547
2.000	8.836511	2.119816	602.572601	-10.831793	-3.643948	0.788009	0.604732	-1.797591
2.010	8.320008	1.973620	602.328698	-10.936027	-3.412024	0.791025	0.566472	-1.815624
2.020	7.790973	1.808823	602.750867	-11.059309	-3.162513	0.788957	0.524680	-1.834806
2.030	7.299000	1.636721	604.000196	-11.200667	-2.919467	0.780816	0.483355	-1.854415
2.040	6.885196	1.470331	606.136788	-11.359783	-2.704525	0.766461	0.446191	-1.874129
2.050	6.574160	1.322008	609.086132	-11.537158	-2.533256	0.746955	0.415911	-1.894175
2.060	6.370092	1.201126	612.631287	-11.733459	-2.412651	0.724781	0.393818	-1.915256
2.070	6.258438	1.111837	616.436002	-11.948167	-2.340461	0.703666	0.379676	-1.938266
2.080	6.212425	1.051091	620.094717	-12.177861	-2.306481	0.687768	0.371956	-1.963871
2.090	6.201948	1.007732	623.197459	-12.414783	-2.295320	0.680374	0.368313	-1.992111
2.100	6.201475	0.964104	625.394902	-12.646580	-2.289942	0.682692	0.366159	-2.022175
2.110	6.194535	0.900963	626.451445	-12.857902	-2.275195	0.693329	0.363188	-2.052498
2.120	6.174070	0.804700	626.278664	-13.033662	-2.240671	0.708717	0.357775	-2.081128
2.130	6.139566	0.673978	624.944856	-13.162919	-2.182414	0.724305	0.349217	-2.106253
2.140	6.092557	0.522271	622.659330	-13.241968	-2.103171	0.736036	0.337772	-2.126679
2.150	6.032125	0.374524	619.734176	-13.275533	-2.011224	0.741572	0.324530	-2.142133
2.160	5.951977	0.259099	616.531570	-13.275579	-1.918147	0.740871	0.311119	-2.153268
2.170	5.840657	0.198490	613.408640	-13.258104	-1.836207	0.735929	0.299345	-2.161382
2.180	5.685656	0.202372	610.671927	-13.239055	-1.776267	0.729901	0.290871	-2.167949
2.190	5.480638	0.265062	608.548719	-13.230853	-1.746848	0.726013	0.287051	-2.174165
2.200	5.233202	0.367620	607.175628	-13.240674	-1.754396	0.726695	0.288944	-2.180699
2.210	4.969651	0.483421	606.599299	-13.270588	-1.804084	0.733147	0.297409	-2.187702
2.220	4.733593	0.585359	606.782744	-13.318770	-1.900108	0.745335	0.313145	-2.194982
2.230	4.577142	0.652715	607.613667	-13.380839	-2.044788	0.762274	0.336528	-2.202195
2.240	4.546633	0.675879	608.916019	-13.450927	-2.236718	0.782387	0.367328	-2.208995
2.250	4.667699	0.657630	610.469296	-13.522585	-2.469025	0.803823	0.404447	-2.215113
2.260	4.935675	0.610611	612.038868	-13.589710	-2.728991	0.824712	0.445885	-2.220400
2.270	5.315514	0.551938	613.414817	-13.647601	-2.999703	0.843373	0.489017	-2.224857
2.280	5.751390	0.496961	614.450427	-13.694068	-3.263542	0.858450	0.531132	-2.228669
2.290	6.182264	0.454420	615.089035	-13.730197	-3.506484	0.868902	0.570077	-2.232229
2.300	6.557906	0.424553	615.370686	-13.760185	-3.721783	0.873935	0.604803	-2.236081
2.310	6.850447	0.400704	615.415626	-13.789945	-3.911655	0.872969	0.635612	-2.240753
2.320	7.058544	0.373689	615.387446	-13.824930	-4.086229	0.865754	0.664009	-2.246541
2.330	7.203675	0.337071	615.443926	-13.868165	-4.260018	0.852624	0.692186	-2.253360
2.340	7.320421	0.290947	615.688199	-13.919419	-4.446989	0.834757	0.722279	-2.260790
