Time[s]	Fx[N]	Fy[N]	Fz[N]	Mx[Nm]	My[Nm]	Mz[Nm]	COPx[cm]	COPy[cm]
0.010	-0.253764	-0.785937	471.384267	-1.460372	3.343442	0.173264	-0.709282	-0.309805
0.020	-0.426673	-0.779955	471.636119	-1.595484	3.625657	0.165609	-0.768740	-0.338287
0.030	-0.596126	-0.788284	471.713516	-1.728876	3.900043	0.159092	-0.826782	-0.366510
0.040	-0.756436	-0.823322	471.488908	-1.858357	4.159548	0.154365	-0.882215	-0.394146
0.050	-0.899020	-0.892763	470.913368	-1.981840	4.398777	0.151416	-0.934095	-0.420850
0.060	-1.011363	-0.998798	470.026329	-2.097988	4.614217	0.149727	-0.981693	-0.446355
0.070	-1.077782	-1.138470	468.939055	-2.206690	4.804301	0.148674	-1.024504	-0.470571
0.080	-1.082922	-1.304773	467.797890	-2.308881	4.969440	0.147950	-1.062305	-0.493564
0.090	-1.017509	-1.487857	466.741509	-2.405608	5.111963	0.147792	-1.095245	-0.515405
0.100	-0.884335	-1.675812	465.868139	-2.496824	5.235809	0.148848	-1.123882	-0.535951
0.110	-0.701602	-1.855136	465.223005	-2.580588	5.345872	0.151717	-1.149099	-0.554699
0.120	-0.501208	-2.011573	464.806642	-2.653113	5.447057	0.156418	-1.171897	-0.570799
0.130	-0.321465	-2.132005	464.596123	-2.709587	5.543251	0.162080	-1.193133	-0.583213
0.140	-0.196365	-2.207333	464.567517	-2.745268	5.636509	0.167087	-1.213281	-0.590930
0.150	-0.145540	-2.235345	464.709363	-2.756319	5.726708	0.169595	-1.232320	-0.593128
0.160	-0.169046	-2.221994	465.022362	-2.740093	5.811753	0.168181	-1.249779	-0.589239
0.170	-0.249017	-2.179718	465.507433	-2.695003	5.888261	0.162312	-1.264912	-0.578939
0.180	-0.357174	-2.122803	466.150075	-2.620252	5.952468	0.152440	-1.276942	-0.562105
0.190	-0.464794	-2.061597	466.910636	-2.515583	6.000989	0.139837	-1.285254	-0.538772
0.200	-0.550982	-1.998306	467.726378	-2.381054	6.031185	0.126328	-1.289469	-0.509070
0.210	-0.606270	-1.926332	468.524197	-2.216837	6.041189	0.114068	-1.289408	-0.473153
0.220	-0.630935	-1.833217	469.236594	-2.023193	6.029879	0.105300	-1.285040	-0.431167
0.230	-0.629735	-1.705630	469.811916	-1.800826	5.997056	0.101935	-1.276480	-0.383308
0.240	-0.606025	-1.534377	470.214253	-1.551549	5.943748	0.104937	-1.264051	-0.329966
0.250	-0.557957	-1.317901	470.415937	-1.278961	5.872308	0.113739	-1.248323	-0.271879
0.260	-0.478258	-1.063483	470.390799	-0.988734	5.786034	0.126064	-1.230048	-0.210194
0.270	-0.357458	-0.785993	470.115229	-0.688350	5.688373	0.138390	-1.209995	-0.146422
0.280	-0.188895	-0.504609	469.577879	-0.386313	5.582080	0.146965	-1.188744	-0.082268
0.290	0.026951	-0.238365	468.792516	-0.090954	5.468774	0.149002	-1.166566	-0.019402
0.300	0.281033	-0.001662	467.806397	0.191131	5.349139	0.143624	-1.143451	0.040857
0.310	0.558077	0.199139	466.699081	0.456735	5.223684	0.132175	-1.119283	0.097865
0.320	0.841648	0.367133	465.571247	0.707200	5.093696	0.117740	-1.094074	0.151899
0.330	1.119400	0.513768	464.527312	0.948285	4.961877	0.104035	-1.068156	0.204140
0.340	1.385751	0.655383	463.657634	1.188463	4.832360	0.094156	-1.042226	0.256323
0.350	1.640563	0.808441	463.024908	1.436244	4.710160	0.089750	-1.017259	0.310187
0.360	1.884647	0.985181	462.656248	1.697659	4.600395	0.090861	-0.994344	0.366937
0.370	2.114836	1.191135	462.540555	1.974819	4.507636	0.096343	-0.974539	0.426950
0.380	2.321833	1.424837	462.631580	2.265859	4.435559	0.104513	-0.958767	0.489776
0.390	2.492252	1.678948	462.857643	2.566000	4.386937	0.113759	-0.947794	0.554382
0.400	2.613423	1.941887	463.136803	2.869131	4.363949	0.122889	-0.942259	0.619500
0.410	2.677788	2.199593	463.393105	3.169185	4.368654	0.131181	-0.942753	0.683909
0.420	2.684327	2.437566	463.569575	3.460734	4.403254	0.138173	-0.949858	0.746540
0.430	2.636792	2.643216	463.636664	3.738698	4.469760	0.143380	-0.964065	0.806385
0.440	2.540653	2.808151	463.597151	3.997677	4.568950	0.146188	-0.985543	0.862317
0.450	2.401106	2.929743	463.487799	4.231650	4.699028	0.146047	-1.013841	0.913001
0.460	2.223394	3.011396	463.376324	4.434519	4.854701	0.142840	-1.047680	0.957002
0.470	2.015073	3.061270	463.351550	4.601361	5.027214	0.137189	-1.084968	0.993060
0.480	1.788475	3.089542	463.505987	4.729881	5.205375	0.130453	-1.123044	1.020457
0.490	1.561041	3.104847	463.913350	4.821458	5.377212	0.124381	-1.159098	1.039301
0.500	1.352039	3.111152	464.607408	4.881269	5.531768	0.120542	-1.190633	1.050622
0.510	1.176410	3.106511	465.570144	4.917408	5.660655	0.119796	-1.215854	1.056212
0.520	1.039007	3.084475	466.734241	4.939321	5.759011	0.122090	-1.233895	1.058273
0.530	0.933079	3.037801	467.998676	4.956107	5.825585	0.126638	-1.244787	1.059000
0.540	0.844719	2.963030	469.250278	4.975086	5.861940	0.132298	-1.249214	1.060220
0.550	0.761206	2.863931	470.382177	5.000789	5.871111	0.137897	-1.248158	1.063133
0.560	0.678753	2.752125	471.303691	5.034482	5.856267	0.142339	-1.242568	1.068203
0.570	0.605695	2.644450	471.942776	5.074283	5.819821	0.144637	-1.233162	1.075190
0.580	0.559828	2.558150	472.246449	5.115862	5.763146	0.144025	-1.220368	1.083303
0.590	0.561351	2.505851	472.183740	5.153569	5.686878	0.140218	-1.204378	1.091433
0.600	0.624419	2.492186	471.751707	5.181766	5.591535	0.133646	-1.185271	1.098410
0.610	0.750576	2.512964	470.981515	5.196059	5.478191	0.125446	-1.163144	1.103241
0.620	0.926765	2.556727	469.940395	5.194230	5.348897	0.117137	-1.138208	1.105295
0.630	1.129048	2.607810	468.726217	5.176699	5.206711	0.110137	-1.110821	1.104419
0.640	1.330786	2.649987	467.453539	5.146443	5.055381	0.105372	-1.081472	1.100953
0.650	1.511672	2.669937	466.233101	5.108294	4.898936	0.103123	-1.050748	1.095652
0.660	1.663301	2.659985	465.150233	5.067773	4.741465	0.103087	-1.019341	1.089492
0.670	1.788759	2.619611	464.250025	5.029837	4.587158	0.104516	-0.988079	1.083433
0.680	1.897122	2.555413	463.535836	4.997931	4.440402	0.106394	-0.957942	1.078219
0.690	1.996389	2.479484	462.982409	4.973636	4.305646	0.107694	-0.929980	1.074260
0.700	2.088665	2.406388	462.557996	4.956901	4.186927	0.107682	-0.905168	1.071628
0.710	2.169493	2.349205	462.245498	4.946590	4.087242	0.106135	-0.884215	1.070122
0.720	2.230818	2.315578	462.053142	4.940973	4.008018	0.103315	-0.867437	1.069352
0.730	2.265379	2.305186	462.010519	4.937857	3.948832	0.099739	-0.854706	1.068776
0.740	2.270097	2.309865	462.153132	4.934430	3.907407	0.095912	-0.845479	1.067704
0.750	2.246943	2.316493	462.503793	4.927156	3.879871	0.092235	-0.838884	1.065322
0.760	2.201428	2.311428	463.059434	4.912157	3.861321	0.089137	-0.833872	1.060805
0.770	2.140083	2.284637	463.787897	4.886123	3.846655	0.087241	-0.829400	1.053525
0.780	2.068533	2.232183	464.634148	4.847367	3.831428	0.087317	-0.824612	1.043265
0.790	1.991076	2.156790	465.531951	4.796492	3.812422	0.089968	-0.818939	1.030325
0.800	1.911687	2.066872	466.415937	4.736317	3.787806	0.095223	-0.812109	1.015471
0.810	1.835511	1.974347	467.230108	4.671096	3.756920	0.102313	-0.804084	0.999742
0.820	1.769597	1.891444	467.931394	4.605302	3.719904	0.109842	-0.794968	0.984183
0.830	1.722110	1.827093	468.489342	4.542432	3.677319	0.116271	-0.784931	0.969591
0.840	1.700207	1.784059	468.883804	4.484329	3.629806	0.120498	-0.774138	0.956384
0.850	1.707608	1.757908	469.102161	4.431232	3.577742	0.122195	-0.762679	0.944620
0.860	1.743061	1.738102	469.137410	4.382401	3.520904	0.121781	-0.750506	0.934140
0.870	1.800416	1.710784	468.988089	4.336804	3.458293	0.120099	-0.737395	0.924715
0.880	1.870315	1.662552	468.659839	4.293506	3.388293	0.117975	-0.722975	0.916124
0.890	1.942914	1.584434	468.167332	4.251682	3.309169	0.115850	-0.706835	0.908154
0.900	2.010834	1.474926	467.535718	4.210442	3.219700	0.113656	-0.688653	0.900560
0.910	2.071428	1.340950	466.801845	4.168643	3.119738	0.111024	-0.668322	0.893022
0.920	2.127570	1.196280	466.014996	4.124833	3.010642	0.107710	-0.646040	0.885129
0.930	2.186597	1.058112	465.235000	4.077400	2.895493	0.103966	-0.622372	0.876417
0.940	2.257688	0.943070	464.525542	4.025059	2.778957	0.100578	-0.598236	0.866488
0.950	2.348429	0.863588	463.943279	3.967571	2.666639	0.098532	-0.574777	0.855185
0.960	2.461446	0.825084	463.526815	3.906364	2.564040	0.098539	-0.553159	0.842748
0.970	2.592039	0.824391	463.290378	3.844649	2.475494	0.100712	-0.534329	0.829857
0.980	2.727771	0.850203	463.224678	3.786951	2.403523	0.104562	-0.518868	0.817519
0.990	2.850708	0.886003	463.303991	3.738283	2.348762	0.109256	-0.506959	0.806875
1.000	2.941942	0.914868	463.496294	3.703227	2.310266	0.113933	-0.498443	0.798977
1.010	2.986797	0.924471	463.773252	3.684987	2.285860	0.117928	-0.492883	0.794567
1.020	2.978605	0.910491	464.117617	3.684579	2.272408	0.120855	-0.489619	0.793889
1.030	2.919888	0.877261	464.526069	3.700416	2.266120	0.122559	-0.487835	0.796600
1.040	2.821144	0.835515	465.005607	3.728655	2.263110	0.123034	-0.486685	0.801852
1.050	2.698230	0.798252	465.563186	3.764419	2.260097	0.122386	-0.485454	0.808573
1.060	2.569168	0.776524	466.192143	3.803609	2.254883	0.120857	-0.483681	0.815889
1.070	2.450831	0.776861	466.862323	3.844571	2.246369	0.118824	-0.481163	0.823491
1.080	2.355908	0.800997	467.519649	3.888684	2.234154	0.116687	-0.477874	0.831769
1.090	2.290731	0.847298	468.095643	3.939332	2.217939	0.114690	-0.473822	0.841566
1.100	2.254615	0.912684	468.522594	3.999713	2.197011	0.112819	-0.468923	0.853686
1.110	2.241068	0.993955	468.748671	4.070652	2.169943	0.110881	-0.462923	0.868408
1.120	2.240623	1.088126	468.748757	4.149644	2.134635	0.108721	-0.455390	0.885260
1.130	2.244450	1.192028	468.529454	4.231534	2.088622	0.106430	-0.445782	0.903152
1.140	2.247637	1.301632	468.129038	4.310404	2.029502	0.104365	-0.433535	0.920773
1.150	2.251137	1.411360	467.613164	4.381689	1.955254	0.102965	-0.418135	0.937033
1.160	2.261720	1.513731	467.065215	4.443620	1.864418	0.102498	-0.399177	0.951392
1.170	2.289775	1.599996	466.570045	4.497473	1.756277	0.102898	-0.376423	0.963944
1.180	2.345388	1.662313	466.193906	4.546660	1.631196	0.103790	-0.349897	0.975272
1.190	2.433968	1.696915	465.968289	4.595169	1.491076	0.104696	-0.319995	0.986155
1.200	2.553168	1.706433	465.885335	4.646125	1.339551	0.105325	-0.287528	0.997268
1.210	2.692600	1.699673	465.906274	4.701085	1.181555	0.105809	-0.253604	1.009019
1.220	2.836604	1.688756	465.977470	4.760196	1.022190	0.106719	-0.219365	1.021551
1.230	2.968955	1.685280	466.046645	4.822938	0.865365	0.108786	-0.185682	1.034862
1.240	3.077509	1.697472	466.074650	4.888988	0.712877	0.112384	-0.152954	1.048971
1.250	3.156990	1.729230	466.041948	4.958821	0.564379	0.117067	-0.121101	1.064029
1.260	3.209084	1.780642	465.950947	5.033738	0.418121	0.121507	-0.089735	1.080315
1.270	3.240315	1.849085	465.824966	5.115279	0.271986	0.123960	-0.058388	1.098112
1.280	3.259055	1.930270	465.703426	5.204330	0.124256	0.123017	-0.026681	1.117520
1.290	3.273096	2.019124	465.632664	5.300394	-0.026201	0.118182	0.005627	1.138321
1.300	3.288615	2.110539	465.653526	5.401420	-0.180218	0.109952	0.038702	1.159966
1.310	3.310604	2.200060	465.789204	5.504235	-0.338718	0.099445	0.072719	1.181701
1.320	3.344080	2.284630	466.037566	5.605389	-0.502784	0.087896	0.107885	1.202776
1.330	3.394953	2.363328	466.370369	5.701989	-0.673361	0.076344	0.144383	1.222631
1.340	3.469631	2.437693	466.738541	5.792139	-0.850780	0.065604	0.182282	1.240982
1.350	3.573303	2.511189	467.080635	5.874801	-1.034357	0.056399	0.221452	1.257770
1.360	3.707692	2.587915	467.332025	5.949315	-1.222183	0.049437	0.261523	1.273038
1.370	3.869348	2.671006	467.434294	6.014975	-1.411150	0.045310	0.301893	1.286807
1.380	4.049272	2.761197	467.345072	6.070906	-1.597321	0.044216	0.341786	1.299020
1.390	4.234234	2.855913	467.047467	6.116136	-1.776650	0.045706	0.380400	1.309532
1.400	4.409685	2.949369	466.556244	6.149701	-1.945883	0.048666	0.417074	1.318105
1.410	4.563576	3.034122	465.917522	6.170704	-2.103258	0.051692	0.451423	1.324420
1.420	4.690049	3.103706	465.200633	6.178453	-2.248690	0.053743	0.483381	1.328126
1.430	4.791730	3.154978	464.483785	6.172757	-2.383356	0.054736	0.513119	1.328950
1.440	4.879435	3.188571	463.837863	6.154246	-2.508850	0.055720	0.540889	1.326810
1.450	4.968681	3.207111	463.313832	6.124429	-2.626203	0.058468	0.566830	1.321875
1.460	5.073615	3.212528	462.937608	6.085295	-2.735067	0.064695	0.590807	1.314496
1.470	5.200504	3.204495	462.712396	6.038562	-2.833343	0.075336	0.612334	1.305036
1.480	5.343672	3.181105	462.625317	5.984975	-2.917450	0.090207	0.630629	1.293698
1.490	5.486024	3.141123	462.654954	5.924045	-2.983256	0.108094	0.644812	1.280446
1.500	5.604359	3.085886	462.777678	5.854406	-3.027479	0.127134	0.654197	1.265058
1.510	5.677480	3.019138	462.971715	5.774556	-3.049055	0.145273	0.658584	1.247281
1.520	5.693773	2.944832	463.218779	5.683567	-3.049892	0.160696	0.658413	1.226973
1.530	5.655155	2.864706	463.503871	5.581515	-3.034525	0.172156	0.654692	1.204200
1.540	5.575953	2.777699	463.813723	5.469618	-3.008678	0.179109	0.648682	1.179270
1.550	5.477522	2.681782	464.134243	5.350181	-2.977287	0.181647	0.641471	1.152723
1.560	5.381051	2.577014	464.447926	5.226392	-2.942848	0.180313	0.633623	1.125291
1.570	5.301480	2.467918	464.732808	5.102033	-2.904763	0.175971	0.625039	1.097842
1.580	5.244620	2.363754	464.963910	4.981116	-2.859861	0.169744	0.615072	1.071291
1.590	5.207947	2.276363	465.116864	4.867364	-2.803754	0.162941	0.602806	1.046482
1.600	5.183804	2.216261	465.172708	4.763435	-2.732441	0.156832	0.587403	1.024014
1.610	5.162908	2.188465	465.122899	4.669948	-2.643499	0.152329	0.568344	1.004025
1.620	5.136487	2.189798	464.973439	4.584599	-2.536484	0.149727	0.545512	0.985992
1.630	5.096769	2.208953	464.746546	4.501813	-2.412557	0.148704	0.519113	0.968660
1.640	5.036633	2.229543	464.478409	4.413313	-2.273709	0.148612	0.489519	0.950165
1.650	4.949476	2.235129	464.213037	4.309661	-2.122001	0.148948	0.457118	0.928380
1.660	4.829897	2.214273	463.994249	4.182505	-1.959130	0.149749	0.422232	0.901413
1.670	4.675304	2.163342	463.858823	4.026957	-1.786441	0.151652	0.385126	0.868143
1.680	4.488138	2.085761	463.833242	3.843355	-1.605338	0.155518	0.346102	0.828607
1.690	4.277898	1.988418	463.934863	3.637612	-1.417902	0.161837	0.305625	0.784078
1.700	4.061615	1.877707	464.175943	3.419777	-1.227418	0.170261	0.264429	0.736742
1.710	3.861324	1.757493	464.566606	3.201336	-1.038507	0.179544	0.223543	0.689102
1.720	3.698131	1.629472	465.112829	2.992391	-0.856703	0.187937	0.184192	0.643369
1.730	3.584527	1.494802	465.809224	2.799792	-0.687584	0.193856	0.147611	0.601060
1.740	3.518441	1.355721	466.630558	2.626658	-0.535806	0.196507	0.114825	0.562899
1.750	3.482551	1.216557	467.527125	2.473126	-0.404381	0.196220	0.086494	0.528980
1.760	3.450256	1.084178	468.426887	2.337767	-0.294418	0.194298	0.062852	0.499068
1.770	3.396332	0.967869	469.244390	2.218941	-0.205385	0.192446	0.043769	0.472875
1.780	3.307566	0.878325	469.894366	2.115391	-0.135809	0.192041	0.028902	0.450184
1.790	3.188402	0.825459	470.306906	2.025773	-0.084128	0.193575	0.017888	0.430734
1.800	3.059221	0.815247	470.441070	1.947541	-0.049285	0.196479	0.010476	0.413982
1.810	2.948556	0.846700	470.293796	1.876104	-0.030774	0.199350	0.006544	0.398922
1.820	2.883138	0.910380	469.900590	1.805047	-0.028201	0.200448	0.006002	0.384134
1.830	2.880019	0.989549	469.325722	1.727490	-0.040725	0.198321	0.008677	0.368079
1.840	2.943480	1.063892	468.643962	1.638024	-0.066764	0.192350	0.014246	0.349524
1.850	3.066773	1.114654	467.920775	1.534374	-0.104036	0.183015	0.022234	0.327913
1.860	3.236467	1.129494	467.198805	1.418117	-0.149681	0.171769	0.032038	0.303536
1.870	3.436541	1.105546	466.494871	1.294171	-0.200197	0.160625	0.042915	0.277424
1.880	3.650609	1.049555	465.806795	1.169238	-0.251292	0.151625	0.053948	0.251013
1.890	3.862730	0.974787	465.126012	1.049864	-0.297978	0.146372	0.064064	0.225716
1.900	4.058154	0.895821	464.450553	0.940948	-0.335105	0.145677	0.072151	0.202594
1.910	4.224667	0.823636	463.793333	0.845176	-0.358150	0.149386	0.077222	0.182231
1.920	4.354082	0.763350	463.183138	0.763327	-0.363834	0.156429	0.078551	0.164800
1.930	4.443024	0.715301	462.659110	0.694956	-0.350266	0.165119	0.075707	0.150209
1.940	4.492686	0.678085	462.261823	0.639003	-0.316630	0.173594	0.068496	0.138234
1.950	4.507759	0.651286	462.023991	0.594070	-0.262736	0.180247	0.056866	0.128580
1.960	4.494941	0.636429	461.962661	0.558379	-0.188723	0.184033	0.040852	0.120871
1.970	4.461375	0.636130	462.074040	0.529595	-0.095006	0.184629	0.020561	0.114613
1.980	4.413301	0.652378	462.332282	0.504814	0.017688	0.182460	-0.003826	0.109189
1.990	4.355303	0.684962	462.693566	0.480974	0.148386	0.178569	-0.032070	0.103951
2.000	4.290301	0.730688	463.105352	0.455614	0.296086	0.174320	-0.063935	0.098382
2.010	4.219904	0.783604	463.518385	0.427551	0.460036	0.171005	-0.099249	0.092240
2.020	4.144417	0.836210	463.897688	0.396972	0.639941	0.169472	-0.137949	0.085573
2.030	4.062191	0.881352	464.229380	0.364746	0.836010	0.169949	-0.180086	0.078570
2.040	3.968834	0.914197	464.521858	0.331284	1.048741	0.172079	-0.225768	0.071317
2.050	3.857371	0.933456	464.801182	0.295621	1.278346	0.175145	-0.275031	0.063602
2.060	3.720186	0.941284	465.101415	0.255298	1.523865	0.178375	-0.327642	0.054891
2.070	3.552468	0.941901	465.451989	0.207193	1.782276	0.181212	-0.382913	0.044514
2.080	3.355652	0.939569	465.865949	0.148890	2.048099	0.183453	-0.439633	0.031960
2.090	3.138899	0.936813	466.333753	0.079962	2.313961	0.185173	-0.496203	0.017147
2.100	2.917438	0.933603	466.825578	0.002503	2.572076	0.186480	-0.550972	0.000536
2.110	2.708152	0.927696	467.300923	-0.079411	2.816106	0.187212	-0.602632	-0.016994
2.120	2.524187	0.915786	467.720727	-0.161237	3.042482	0.186801	-0.650491	-0.034473
2.130	2.370862	0.894735	468.057045	-0.239888	3.250565	0.184398	-0.694481	-0.051252
2.140	2.244550	0.862297	468.297857	-0.315228	3.441665	0.179249	-0.734931	-0.067314
2.150	2.134931	0.817243	468.446793	-0.390452	3.617596	0.171167	-0.772253	-0.083350
2.160	2.029660	0.759379	468.518546	-0.471207	3.779600	0.160839	-0.806713	-0.100574
2.170	1.919602	0.689856	468.531689	-0.563975	3.928120	0.149805	-0.838389	-0.120371
2.180	1.802594	0.611372	468.501704	-0.674388	4.063304	0.140042	-0.867297	-0.143946
2.190	1.684449	0.527455	468.436867	-0.805887	4.185717	0.133338	-0.893550	-0.172037
2.200	1.577195	0.440637	468.337755	-0.958898	4.296734	0.130722	-0.917444	-0.204745
2.210	1.495700	0.350524	468.199003	-1.130643	4.398365	0.132194	-0.939422	-0.241488
2.220	1.454210	0.253205	468.011207	-1.315692	4.492735	0.136835	-0.959963	-0.281124
2.230	1.463737	0.142737	467.762060	-1.507120	4.581604	0.143218	-0.979473	-0.322198
2.240	1.530042	0.014303	467.437667	-1.697900	4.666231	0.149916	-0.998257	-0.363236
2.250	1.651516	-0.132268	467.026018	-1.882125	4.747630	0.155935	-1.016566	-0.403002
2.260	1.817124	-0.290349	466.523248	-2.055727	4.827051	0.160979	-1.034686	-0.440648
2.270	2.005805	-0.446988	465.940507	-2.216433	4.906403	0.165495	-1.053011	-0.475690
2.280	2.188767	-0.586129	465.307643	-2.362909	4.988413	0.170488	-1.072068	-0.507816
2.290	2.334794	-0.693425	464.671372	-2.493459	5.076488	0.177113	-1.092490	-0.536607
2.300	2.417127	-0.760718	464.088635	-2.605139	5.174311	0.186110	-1.114940	-0.561345
2.310	2.419630	-0.788285	463.617527	-2.694022	5.285193	0.197264	-1.139990	-0.581087
2.320	2.340131	-0.783947	463.308078	-2.756634	5.411321	0.209186	-1.167975	-0.594989
2.330	2.189883	-0.759598	463.194499	-2.791699	5.553134	0.219626	-1.198877	-0.602706
2.340	1.989573	-0.726672	463.289944	-2.801188	5.709159	0.226269	-1.232308	-0.604630
2.350	1.763405	-0.692199	463.585118	-2.790148	5.876403	0.227598	-1.267600	-0.601863
2.360	1.533113	-0.656748	464.052563	-2.765514	6.051038	0.223355	-1.303955	-0.595948
2.370	1.313580	-0.614956	464.657037	-2.734382	6.228983	0.214425	-1.340555	-0.588473
2.380	1.111335	-0.558587	465.367835	-2.702377	6.406173	0.202364	-1.376583	-0.580697
2.390	0.926360	-0.480987	466.165338	-2.672679	6.578542	0.188918	-1.411204	-0.573333
2.400	0.756189	-0.381090	467.036531	-2.646065	6.741837	0.175746	-1.443535	-0.566565
2.410	0.600042	-0.265239	467.962035	-2.621786	6.891356	0.164285	-1.472631	-0.560256
2.420	0.460729	-0.146073	468.903475	-2.598681	7.021814	0.155588	-1.497497	-0.554204
2.430	0.343706	-0.038902	469.799730	-2.575878	7.127593	0.150097	-1.517156	-0.548293
