Time[s]	Fx[N]	Fy[N]	Fz[N]	Mx[Nm]	My[Nm]	Mz[Nm]	COPx[cm]	COPy[cm]
0.010	6.110789	-1.506895	660.146723	5.446130	-16.369067	0.006686	2.479610	0.824988
0.020	6.242489	-1.477417	658.921801	5.506775	-16.412407	0.006728	2.490797	0.835725
0.030	6.358319	-1.442325	657.672622	5.565058	-16.448637	0.004182	2.501037	0.846174
0.040	6.445059	-1.396497	656.398070	5.618167	-16.470902	-0.002334	2.509286	0.855908
0.050	6.494507	-1.336341	655.137371	5.663001	-16.472325	-0.012427	2.514332	0.864399
0.060	6.504840	-1.260197	653.972501	5.697152	-16.446946	-0.024243	2.514929	0.871161
0.070	6.480331	-1.169143	653.016631	5.720070	-16.390815	-0.035449	2.510015	0.875945
0.080	6.429281	-1.068573	652.390934	5.733649	-16.302677	-0.044339	2.498912	0.878867
0.090	6.360671	-0.969843	652.195009	5.741755	-16.183806	-0.050489	2.481437	0.880374
0.100	6.280712	-0.890228	652.479115	5.748688	-16.036962	-0.054670	2.457851	0.881053
0.110	6.190562	-0.849705	653.227684	5.757157	-15.864952	-0.058175	2.428702	0.881340
0.120	6.086034	-0.864849	654.360738	5.766694	-15.669482	-0.062041	2.394624	0.881271
0.130	5.959141	-0.942244	655.752987	5.773360	-15.450826	-0.066566	2.356196	0.880417
0.140	5.800496	-1.074671	657.263607	5.770931	-15.208471	-0.071289	2.313907	0.878024
0.150	5.601501	-1.242162	658.767107	5.752940	-14.942474	-0.075309	2.268248	0.873289
0.160	5.356056	-1.417677	660.177733	5.714627	-14.655037	-0.077773	2.219862	0.865619
0.170	5.062256	-1.575148	661.462909	5.654123	-14.351626	-0.078341	2.169680	0.854791
0.180	4.724291	-1.696918	662.643309	5.572761	-14.041157	-0.077450	2.118962	0.840990
0.190	4.353920	-1.778237	663.779046	5.474743	-13.735159	-0.076215	2.069237	0.824784
0.200	3.970314	-1.827826	664.944728	5.366377	-13.446281	-0.075924	2.022165	0.807041
0.210	3.597515	-1.864877	666.199599	5.254966	-13.186631	-0.077374	1.979381	0.788798
0.220	3.259970	-1.913575	667.560774	5.147404	-12.966235	-0.080423	1.942330	0.771076
0.230	2.977741	-1.996410	668.987138	5.048675	-12.791775	-0.084049	1.912111	0.754674
0.240	2.763299	-2.127565	670.378850	4.960728	-12.665728	-0.086862	1.889339	0.739989
0.250	2.620891	-2.307842	671.592694	4.882225	-12.586122	-0.087751	1.874071	0.726962
0.260	2.548257	-2.522629	672.468474	4.809508	-12.547014	-0.086270	1.865814	0.715202
0.270	2.539461	-2.743929	672.859347	4.738665	-12.539606	-0.082640	1.863630	0.704258
0.280	2.587457	-2.936462	672.659919	4.668004	-12.553644	-0.077445	1.866269	0.693962
0.290	2.685480	-3.066633	671.827693	4.599837	-12.578792	-0.071311	1.872324	0.684675
0.300	2.826924	-3.112019	670.394606	4.540628	-12.605820	-0.064756	1.880358	0.677307
0.310	3.003939	-3.068309	668.466617	4.499247	-12.627637	-0.058286	1.889045	0.673070
0.320	3.205347	-2.951032	666.210993	4.484007	-12.640139	-0.052551	1.897318	0.673061
0.330	3.414917	-2.790984	663.832975	4.499793	-12.642643	-0.048361	1.904492	0.677850
0.340	3.611239	-2.624563	661.546011	4.546563	-12.637541	-0.046483	1.910304	0.687263
0.350	3.770187	-2.482284	659.541936	4.619803	-12.629130	-0.047325	1.914833	0.700456
0.360	3.870089	-2.379701	657.967369	4.712555	-12.621964	-0.050717	1.918327	0.716229
0.370	3.898336	-2.314132	656.909919	4.817956	-12.619282	-0.055908	1.921006	0.733427
0.380	3.856782	-2.268264	656.394367	4.931098	-12.622020	-0.061740	1.922932	0.751240
0.390	3.762897	-2.218831	656.387086	5.049569	-12.628694	-0.066914	1.923970	0.769297
0.400	3.645024	-2.146449	656.806854	5.172752	-12.636063	-0.070321	1.923863	0.787561
0.410	3.533001	-2.042462	657.540121	5.300563	-12.640170	-0.071371	1.922342	0.806120
0.420	3.447972	-1.910605	658.458001	5.432347	-12.637206	-0.070253	1.919212	0.825010
0.430	3.395764	-1.764074	659.432103	5.566352	-12.623914	-0.068001	1.914361	0.844113
0.440	3.366413	-1.620416	660.348035	5.699717	-12.597663	-0.066294	1.907731	0.863138
0.450	3.339563	-1.496666	661.117431	5.828792	-12.556599	-0.067015	1.899299	0.881658
0.460	3.293132	-1.405962	661.689320	5.949690	-12.500157	-0.071691	1.889128	0.899167
0.470	3.211782	-1.355674	662.059239	6.059161	-12.429840	-0.080987	1.877451	0.915199
0.480	3.092099	-1.346638	662.271439	6.155732	-12.349837	-0.094429	1.864770	0.929488
0.490	2.942893	-1.373212	662.409133	6.240675	-12.266986	-0.110404	1.851875	0.942118
0.500	2.781195	-1.424322	662.571728	6.318217	-12.189814	-0.126451	1.839773	0.953590
0.510	2.626398	-1.485574	662.845084	6.394761	-12.126751	-0.139784	1.829500	0.964744
0.520	2.495245	-1.541904	663.275898	6.477485	-12.084030	-0.147922	1.821871	0.976590
0.530	2.398896	-1.579688	663.860138	6.572928	-12.064103	-0.149302	1.817266	0.990107
0.540	2.341814	-1.587550	664.548646	6.685939	-12.065361	-0.143694	1.815572	1.006087
0.550	2.321849	-1.556269	665.265632	6.819079	-12.083397	-0.132300	1.816327	1.025016
0.560	2.331447	-1.479092	665.931815	6.972418	-12.113333	-0.117505	1.819005	1.047017
0.570	2.360169	-1.353543	666.484147	7.143667	-12.152244	-0.102279	1.823336	1.071843
0.580	2.398042	-1.184530	666.887332	7.328619	-12.200811	-0.089323	1.829516	1.098929
0.590	2.438375	-0.987054	667.137022	7.521931	-12.263685	-0.080160	1.838256	1.127494
0.600	2.478628	-0.786151	667.257807	7.718312	-12.348515	-0.074487	1.850636	1.156721
0.610	2.519177	-0.612540	667.298369	7.914063	-12.463942	-0.070067	1.867821	1.185986
0.620	2.561456	-0.494444	667.322850	8.108578	-12.617237	-0.063302	1.890725	1.215091
0.630	2.607499	-0.448219	667.395789	8.305084	-12.812416	-0.050439	1.919763	1.244402
0.640	2.661804	-0.471547	667.560717	8.510054	-13.049439	-0.029115	1.954794	1.274798
0.650	2.734456	-0.542075	667.818222	8.731225	-13.324507	0.000293	1.995230	1.307425
0.660	2.843031	-0.622308	668.113443	8.974839	-13.630972	0.034178	2.040218	1.343311
0.670	3.010916	-0.669294	668.341104	9.243116	-13.960409	0.066392	2.088815	1.382994
0.680	3.261527	-0.646010	668.368402	9.532981	-14.303620	0.089864	2.140080	1.426306
0.690	3.610496	-0.530745	668.067544	9.836586	-14.651581	0.098495	2.193129	1.472394
0.700	4.059550	-0.321418	667.346017	10.143330	-14.996245	0.088655	2.247147	1.519951
0.710	4.594969	-0.033774	666.165228	10.442308	-15.331033	0.059976	2.301386	1.567525
0.720	5.190904	0.305114	664.544343	10.723975	-15.650821	0.015390	2.355121	1.613734
0.730	5.815345	0.664949	662.552188	10.980556	-15.951448	-0.039480	2.407576	1.657312
0.740	6.435941	1.018800	660.293193	11.205682	-16.228989	-0.097458	2.457846	1.697077
0.750	7.024052	1.346381	657.892921	11.394111	-16.479123	-0.151297	2.504834	1.731910
0.760	7.556903	1.633969	655.485808	11.542014	-16.696896	-0.195169	2.547255	1.760834
0.770	8.018513	1.872248	653.204992	11.647565	-16.876994	-0.225823	2.583721	1.783141
0.780	8.399887	2.053850	651.173060	11.711225	-17.014403	-0.243060	2.612885	1.798481
0.790	8.698443	2.172002	649.493179	11.735322	-17.105081	-0.249369	2.633604	1.806843
0.800	8.916289	2.220911	648.241403	11.723058	-17.146347	-0.248781	2.645056	1.808440
0.810	9.057312	2.197640	647.462105	11.677532	-17.136967	-0.245328	2.646791	1.803585
0.820	9.123881	2.104672	647.168495	11.601400	-17.077063	-0.241651	2.638735	1.792640
0.830	9.114811	1.952069	647.347850	11.497326	-16.967896	-0.238320	2.621140	1.776066
0.840	9.025982	1.758199	647.967971	11.368802	-16.811418	-0.234123	2.594483	1.754531
0.850	8.853569	1.548286	648.980668	11.220750	-16.609523	-0.227181	2.559325	1.728981
0.860	8.598028	1.350547	650.321260	11.059581	-16.363208	-0.216355	2.516173	1.700633
0.870	8.266264	1.190326	651.907315	10.892801	-16.072019	-0.202247	2.465384	1.670913
0.880	7.870422	1.083457	653.641330	10.728330	-15.734142	-0.187305	2.407152	1.641318
0.890	7.423717	1.030771	655.419851	10.573489	-15.347274	-0.174972	2.341594	1.613239
0.900	6.935424	1.016017	657.147512	10.433586	-14.910114	-0.168250	2.268914	1.587708
0.910	6.407720	1.008794	658.751139	10.310412	-14.424033	-0.168398	2.189603	1.565145
0.920	5.836229	0.972613	660.188310	10.201489	-13.894288	-0.174395	2.104595	1.545239
0.930	5.214241	0.876113	661.447499	10.100810	-13.330119	-0.183442	2.015295	1.527077
0.940	4.538510	0.703765	662.541103	10.001112	-12.743568	-0.192241	1.923438	1.509508
0.950	3.813792	0.461925	663.495475	9.896793	-12.147573	-0.198401	1.830845	1.491614
0.960	3.054232	0.177549	664.342526	9.786228	-11.554383	-0.201225	1.739221	1.473070
0.970	2.281657	-0.110274	665.115854	9.672480	-10.975174	-0.201489	1.650115	1.454255
0.980	1.522301	-0.363130	665.851589	9.562079	-10.420982	-0.200350	1.565061	1.436068
0.990	0.803722	-0.556054	666.591129	9.462390	-9.904166	-0.198010	1.485793	1.419519
1.000	0.152753	-0.685865	667.381425	9.378722	-9.439186	-0.192906	1.414362	1.405302
1.010	-0.405559	-0.771772	668.269545	9.312528	-9.041825	-0.181945	1.353021	1.393529
1.020	-0.848419	-0.847272	669.291210	9.261514	-8.726786	-0.161822	1.303885	1.383779
1.030	-1.155684	-0.945773	670.456007	9.221526	-8.504499	-0.130896	1.268465	1.375411
1.040	-1.310844	-1.085537	671.734039	9.189156	-8.378439	-0.090741	1.247285	1.367975
1.050	-1.303316	-1.260552	673.049205	9.163770	-8.344172	-0.046615	1.239757	1.361531
1.060	-1.132145	-1.441435	674.282871	9.148114	-8.390550	-0.006493	1.244367	1.356717
1.070	-0.809940	-1.585600	675.288304	9.147381	-8.502567	0.021033	1.259102	1.354589
1.080	-0.364548	-1.651737	675.912540	9.167244	-8.664714	0.029292	1.281928	1.356277
1.090	0.164097	-1.612525	676.020286	9.211652	-8.863591	0.015530	1.311143	1.362629
1.100	0.732495	-1.461390	675.514527	9.281157	-9.088938	-0.018344	1.345484	1.373939
1.110	1.304448	-1.212266	674.350317	9.372240	-9.332942	-0.066457	1.383990	1.389818
1.120	1.858639	-0.894047	672.541163	9.477791	-9.588390	-0.120731	1.425696	1.409251
1.130	2.388387	-0.542689	670.159879	9.588694	-9.846812	-0.173005	1.469323	1.430807
1.140	2.893607	-0.193823	667.335750	9.696150	-10.097821	-0.216849	1.513155	1.452964
1.150	3.370155	0.122400	664.247605	9.793946	-10.330273	-0.248598	1.555184	1.474442
1.160	3.803528	0.383898	661.110895	9.879713	-10.534851	-0.267469	1.593507	1.494411
1.170	4.170953	0.577369	658.157370	9.954597	-10.706807	-0.274945	1.626785	1.512495
1.180	4.450350	0.698141	655.607948	10.021576	-10.847350	-0.273817	1.654548	1.528593
1.190	4.630518	0.749776	653.641967	10.083372	-10.962764	-0.267238	1.677182	1.542644
1.200	4.716645	0.743422	652.368881	10.141012	-11.061394	-0.257937	1.695574	1.554490
1.210	4.728182	0.696448	651.810485	10.193504	-11.149746	-0.247679	1.710581	1.563875
1.220	4.690236	0.630059	651.900563	10.238375	-11.229387	-0.237015	1.722561	1.570542
1.230	4.622793	0.565901	652.503920	10.272532	-11.296004	-0.225502	1.731178	1.574325
1.240	4.532999	0.522141	653.450014	10.293155	-11.340945	-0.212374	1.735549	1.575202
1.250	4.413989	0.509899	654.571047	10.298587	-11.354373	-0.197417	1.734628	1.573334
1.260	4.250536	0.531190	655.733022	10.289182	-11.328570	-0.181562	1.727619	1.569112
1.270	4.028837	0.579263	656.852057	10.267821	-11.260083	-0.166858	1.714250	1.563186
1.280	3.746074	0.641221	657.894630	10.239623	-11.150234	-0.155837	1.694836	1.556423
1.290	3.415464	0.701725	658.865785	10.210605	-11.004310	-0.150526	1.670190	1.549725
1.300	3.064392	0.746231	659.791059	10.185500	-10.830136	-0.151460	1.641449	1.543746
1.310	2.726232	0.762862	660.697258	10.165506	-10.636532	-0.157097	1.609895	1.538603
1.320	2.429201	0.743119	661.596654	10.147070	-10.431920	-0.163969	1.576779	1.533725
1.330	2.186917	0.682237	662.479349	10.122572	-10.223296	-0.167696	1.543187	1.527983
1.340	1.994742	0.579815	663.317068	10.082849	-10.015937	-0.164525	1.509977	1.520065
1.350	1.833613	0.440601	664.077050	10.020525	-9.814056	-0.152749	1.477849	1.508940
1.360	1.679919	0.274774	664.739711	9.932738	-9.622174	-0.133386	1.447510	1.494230
1.370	1.517136	0.097117	665.311712	9.822301	-9.446587	-0.109828	1.419874	1.476346
1.380	1.344096	-0.074977	665.827576	9.697059	-9.296134	-0.086618	1.396177	1.456392
1.390	1.176328	-0.224094	666.336999	9.567805	-9.181627	-0.067843	1.377925	1.435881
1.400	1.040232	-0.335180	666.880834	9.445451	-9.113792	-0.055733	1.366630	1.416363
1.410	0.963060	-0.397292	667.464934	9.338229	-9.100331	-0.050007	1.363417	1.399059
1.420	0.963259	-0.405022	668.044599	9.249776	-9.143298	-0.048202	1.368666	1.384605
1.430	1.045092	-0.359959	668.529478	9.178613	-9.238029	-0.046793	1.381843	1.372956
1.440	1.199114	-0.271915	668.809573	9.119085	-9.374189	-0.042610	1.401623	1.363480
1.450	1.407319	-0.159002	668.792121	9.063326	-9.538608	-0.033954	1.426244	1.355178
1.460	1.649875	-0.045570	668.433100	9.003634	-9.718840	-0.021032	1.453973	1.346976
1.470	1.910466	0.042407	667.749627	8.934546	-9.906183	-0.005626	1.483518	1.338008
1.480	2.178720	0.083799	666.809261	8.853889	-10.097100	0.009727	1.514241	1.327799
1.490	2.449858	0.068432	665.703815	8.762428	-10.292530	0.022660	1.546112	1.316265
1.500	2.722449	-0.000003	664.521631	8.662338	-10.495450	0.031607	1.579399	1.303545
1.510	2.995441	-0.106010	663.329933	8.555363	-10.707841	0.036041	1.614256	1.289760
1.520	3.265696	-0.228657	662.171027	8.441612	-10.928430	0.036354	1.650394	1.274839
1.530	3.527126	-0.349479	661.068953	8.319459	-11.152058	0.033543	1.686973	1.258486
1.540	3.771711	-0.458535	660.040099	8.186344	-11.370664	0.028813	1.722723	1.240280
1.550	3.991547	-0.556358	659.102114	8.039908	-11.575292	0.023193	1.756221	1.219827
1.560	4.180553	-0.651517	658.278612	7.878916	-11.758365	0.017256	1.786229	1.196897
1.570	4.334982	-0.755351	657.600276	7.703725	-11.915475	0.011029	1.811963	1.171491
1.580	4.452968	-0.876511	657.104053	7.516343	-12.046173	0.004139	1.833221	1.143859
1.590	4.533982	-1.017697	656.830491	7.320196	-12.153583	-0.003830	1.850338	1.114473
1.600	4.578866	-1.175699	656.817193	7.119695	-12.243108	-0.012931	1.864005	1.083969
1.610	4.590285	-1.343994	657.087107	6.919626	-12.320735	-0.022610	1.875054	1.053076
1.620	4.572855	-1.515881	657.634579	6.724506	-12.391427	-0.031794	1.884242	1.022529
1.630	4.532339	-1.686148	658.415931	6.538233	-12.457892	-0.039310	1.892101	0.993025
1.640	4.474068	-1.850545	659.350705	6.364168	-12.519954	-0.044472	1.898831	0.965217
1.650	4.401470	-2.003894	660.334920	6.205437	-12.574695	-0.047558	1.904290	0.939741
1.660	4.315671	-2.138465	661.262445	6.065046	-12.617424	-0.049957	1.908081	0.917192
1.670	4.216689	-2.243950	662.047413	5.945588	-12.643304	-0.053885	1.909728	0.898061
1.680	4.105890	-2.309346	662.640438	5.848738	-12.649155	-0.061768	1.908902	0.882641
1.690	3.988707	-2.326062	663.033981	5.774896	-12.634852	-0.075496	1.905612	0.870980
1.700	3.876219	-2.290980	663.256608	5.723233	-12.603813	-0.095778	1.900292	0.862899
1.710	3.784277	-2.208172	663.359939	5.692034	-12.562457	-0.121800	1.893762	0.858061
1.720	3.729734	-2.088581	663.403535	5.679079	-12.518846	-0.151325	1.887064	0.856052
1.730	3.724807	-1.947805	663.441371	5.681854	-12.480945	-0.181243	1.881243	0.856421
1.740	3.771869	-1.802863	663.511193	5.697478	-12.454911	-0.208379	1.877122	0.858686
1.750	3.861062	-1.668971	663.627272	5.722477	-12.443812	-0.230250	1.875121	0.862303
1.760	3.971964	-1.557048	663.777570	5.752657	-12.447088	-0.245489	1.875190	0.866654
1.770	4.078893	-1.472310	663.926424	5.783386	-12.460956	-0.253884	1.876858	0.871088
1.780	4.157952	-1.414195	664.023170	5.810266	-12.479648	-0.256174	1.879400	0.875009
1.790	4.193435	-1.377711	664.015962	5.829883	-12.497143	-0.253731	1.882055	0.877973
1.800	4.181581	-1.355862	663.868356	5.840220	-12.508928	-0.248196	1.884248	0.879726
1.810	4.130720	-1.342394	663.574659	5.840580	-12.513323	-0.241117	1.885745	0.880169
1.820	4.058057	-1.333852	663.169018	5.831263	-12.512033	-0.233667	1.886703	0.879303
1.830	3.984418	-1.330129	662.723412	5.813364	-12.509818	-0.226527	1.887638	0.877193
1.840	3.928904	-1.333138	662.332411	5.788894	-12.513376	-0.219928	1.889289	0.874016
1.850	3.905076	-1.344054	662.088121	5.761105	-12.529714	-0.213796	1.892454	0.870142
1.860	3.919284	-1.360412	662.054122	5.734649	-12.564436	-0.207909	1.897796	0.866190
1.870	3.970752	-1.374735	662.248122	5.715221	-12.620395	-0.202037	1.905690	0.863003
1.880	4.052846	-1.375768	662.638747	5.708546	-12.697079	-0.196035	1.916139	0.861487
1.890	4.155187	-1.352054	663.155098	5.718877	-12.790817	-0.189886	1.928782	0.862374
1.900	4.266311	-1.296433	663.703077	5.747424	-12.895694	-0.183690	1.942991	0.865963
1.910	4.376257	-1.209511	664.182459	5.791345	-13.004758	-0.177567	1.958010	0.871951
1.920	4.478295	-1.100483	664.502069	5.843917	-13.111107	-0.171516	1.973072	0.879443
1.930	4.569411	-0.984727	664.592842	5.896101	-13.208591	-0.165326	1.987471	0.887175
1.940	4.649678	-0.879193	664.417637	5.939055	-13.292196	-0.158621	2.000578	0.893874
1.950	4.721020	-0.797680	663.975021	5.966576	-13.358277	-0.150976	2.011864	0.898614
1.960	4.785965	-0.747749	663.295491	5.976477	-13.404702	-0.142022	2.020925	0.901028
1.970	4.846701	-0.729834	662.432440	5.970450	-13.430844	-0.131517	2.027504	0.901292
1.980	4.904321	-0.738299	661.452737	5.952525	-13.437378	-0.119474	2.031495	0.899917
1.990	4.957953	-0.763948	660.430312	5.926799	-13.425971	-0.106276	2.032913	0.897415
2.000	5.003992	-0.797447	659.441958	5.895383	-13.399001	-0.092647	2.031870	0.893996
2.010	5.036161	-0.832706	658.562394	5.857604	-13.359281	-0.079389	2.028552	0.889453
2.020	5.047034	-0.868866	657.857384	5.810948	-13.309634	-0.067092	2.023179	0.883314
2.030	5.030735	-0.909758	657.376771	5.753191	-13.252278	-0.056031	2.015933	0.875174
2.040	4.985577	-0.960826	657.149706	5.684358	-13.188211	-0.046325	2.006881	0.865002
2.050	4.915133	-1.024877	657.182330	5.607214	-13.116903	-0.038168	1.995931	0.853220
2.060	4.826770	-1.098814	657.456481	5.525999	-13.036357	-0.031910	1.982847	0.840512
2.070	4.728219	-1.173287	657.928965	5.444212	-12.943464	-0.027928	1.967304	0.827477
2.080	4.624018	-1.235957	658.533716	5.362677	-12.834490	-0.026338	1.948950	0.814336
2.090	4.513706	-1.277186	659.190910	5.278905	-12.705758	-0.026761	1.927478	0.800816
2.100	4.392321	-1.295354	659.825097	5.188149	-12.554608	-0.028298	1.902718	0.786292
2.110	4.252612	-1.298808	660.388778	5.085811	-12.380539	-0.029829	1.874735	0.770124
2.120	4.088144	-1.303128	660.881611	4.970163	-12.186182	-0.030486	1.843928	0.752050
2.130	3.896591	-1.324818	661.354069	4.844029	-11.977672	-0.030062	1.811083	0.732441
2.140	3.682209	-1.374239	661.890224	4.714554	-11.764128	-0.029110	1.777353	0.712286
2.150	3.456272	-1.450733	662.574694	4.591207	-11.556292	-0.028632	1.744149	0.692934
2.160	3.234949	-1.541791	663.456997	4.483060	-11.364666	-0.029532	1.712947	0.675712
2.170	3.035388	-1.626414	664.527775	4.396627	-11.197700	-0.032121	1.685061	0.661617
2.180	2.871531	-1.681210	665.715175	4.334943	-11.060454	-0.035878	1.661439	0.651171
2.190	2.751091	-1.686992	666.900288	4.297870	-10.953987	-0.039563	1.642523	0.644455
2.200	2.674402	-1.633909	667.943378	4.283132	-10.875532	-0.041665	1.628212	0.641242
2.210	2.635163	-1.523996	668.711143	4.287524	-10.819346	-0.041093	1.617940	0.641162
2.220	2.622624	-1.370653	669.098543	4.307897	-10.778022	-0.037820	1.610827	0.643836
2.230	2.624610	-1.195280	669.043151	4.341647	-10.743937	-0.033124	1.605866	0.648934
2.240	2.630604	-1.022090	668.532698	4.386555	-10.710602	-0.029210	1.602106	0.656147
2.250	2.633874	-0.872832	667.607160	4.440007	-10.673707	-0.028361	1.598801	0.665063
2.260	2.631828	-0.762943	666.356248	4.498011	-10.631724	-0.031964	1.595502	0.675016
2.270	2.624587	-0.699862	664.911868	4.554727	-10.586004	-0.039838	1.592091	0.685012
2.280	2.612932	-0.683407	663.433850	4.603147	-10.540363	-0.050141	1.588759	0.693837
2.290	2.597036	-0.707647	662.087806	4.636918	-10.500253	-0.059896	1.585931	0.700348
2.300	2.576639	-0.763439	661.017474	4.652620	-10.471619	-0.065938	1.584167	0.703857
2.310	2.552113	-0.840768	660.318526	4.651438	-10.459710	-0.065910	1.584040	0.704423
2.320	2.525374	-0.930425	660.023125	4.639353	-10.468114	-0.058959	1.586022	0.702908
2.330	2.500034	-1.024955	660.101723	4.625640	-10.498206	-0.045875	1.590392	0.700747
2.340	2.480779	-1.118887	660.481283	4.620223	-10.549156	-0.028713	1.597192	0.699524
2.350	2.472204	-1.208165	661.071592	4.630896	-10.618512	-0.010127	1.606258	0.700514
2.360	2.477306	-1.288850	661.788776	4.661410	-10.703206	0.007298	1.617315	0.704365
2.370	2.496179	-1.355786	662.568325	4.711010	-10.800579	0.021619	1.630108	0.711022
