Time[s]	Fx[N]	Fy[N]	Fz[N]	Mx[Nm]	My[Nm]	Mz[Nm]	COPx[cm]	COPy[cm]
0.010	1.779366	-3.988525	711.800529	8.712832	12.742863	0.165600	-1.790229	1.224055
0.020	1.786722	-3.945336	711.733550	8.780247	12.808973	0.129161	-1.799687	1.233642
0.030	1.824214	-3.906448	711.705991	8.846966	12.870521	0.099357	-1.808404	1.243065
0.040	1.909625	-3.873424	711.756305	8.913249	12.924628	0.080632	-1.815878	1.252289
0.050	2.040949	-3.844217	711.910652	8.981003	12.970775	0.074085	-1.821967	1.261535
0.060	2.197367	-3.812850	712.176650	9.053052	13.010112	0.077436	-1.826810	1.271181
0.070	2.348013	-3.770699	712.538446	9.131706	13.043875	0.086095	-1.830620	1.281574
0.080	2.464739	-3.709301	712.955411	9.217420	13.071944	0.094803	-1.833487	1.292847
0.090	2.533307	-3.623920	713.365861	9.308146	13.092404	0.099277	-1.835300	1.304821
0.100	2.558176	-3.516618	713.695050	9.399631	13.102233	0.097427	-1.835831	1.317037
0.110	2.559059	-3.397558	713.865585	9.486501	13.098547	0.089862	-1.834876	1.328892
0.120	2.561394	-3.283649	713.809547	9.563714	13.079592	0.079559	-1.832364	1.339813
0.130	2.585574	-3.194426	713.482830	9.627859	13.044994	0.070783	-1.828354	1.349417
0.140	2.639905	-3.146150	712.880848	9.677785	12.995402	0.067555	-1.822942	1.357560
0.150	2.719793	-3.146173	712.050951	9.714322	12.932090	0.072130	-1.816175	1.364273
0.160	2.812185	-3.190066	711.094345	9.739226	12.857097	0.083999	-1.808072	1.369611
0.170	2.901908	-3.263025	710.151994	9.753973	12.774013	0.099812	-1.798772	1.373505
0.180	2.976631	-3.345058	709.374934	9.759175	12.688909	0.114349	-1.788745	1.375743
0.190	3.028897	-3.417579	708.886523	9.755044	12.610483	0.122283	-1.778914	1.376108
0.200	3.055678	-3.468619	708.749101	9.742692	12.548695	0.120131	-1.770541	1.374632
0.210	3.057025	-3.494876	708.947490	9.725447	12.511912	0.107615	-1.764857	1.371815
0.220	3.035518	-3.500349	709.395676	9.709277	12.503490	0.087805	-1.762555	1.368669
0.230	2.997348	-3.492564	709.963481	9.701782	12.519343	0.065920	-1.763378	1.366518
0.240	2.954279	-3.478183	710.512814	9.710068	12.547922	0.047332	-1.766037	1.366628
0.250	2.924256	-3.459824	710.931942	9.738491	12.573113	0.035731	-1.768540	1.369820
0.260	2.928199	-3.435264	711.159618	9.787361	12.579200	0.032215	-1.768829	1.376254
0.270	2.982500	-3.399050	711.194464	9.853184	12.556067	0.035516	-1.765490	1.385442
0.280	3.089944	-3.345644	711.087781	9.930205	12.502626	0.042966	-1.758239	1.396481
0.290	3.234104	-3.272831	710.921860	10.012485	12.427111	0.051611	-1.748028	1.408381
0.300	3.381718	-3.184215	710.781204	10.095563	12.343990	0.059061	-1.736679	1.420347
0.310	3.493928	-3.089837	710.727435	10.177135	12.268481	0.063954	-1.726187	1.431932
0.320	3.542396	-3.004261	710.786572	10.256762	12.210696	0.066098	-1.717913	1.443016
0.330	3.523051	-2.942092	710.950516	10.334972	12.171679	0.066336	-1.712029	1.453684
0.340	3.461003	-2.912131	711.187543	10.412249	12.142875	0.066135	-1.707408	1.464065
0.350	3.404277	-2.912595	711.454149	10.488269	12.109022	0.066927	-1.702010	1.474202
0.360	3.408768	-2.930047	711.703438	10.561725	12.053121	0.069349	-1.693559	1.484006
0.370	3.519751	-2.943291	711.890082	10.630736	11.961613	0.072731	-1.680261	1.493311
0.380	3.756047	-2.931195	711.974775	10.693462	11.828246	0.075147	-1.661329	1.501944
0.390	4.102128	-2.881410	711.930856	10.748368	11.655820	0.074136	-1.637212	1.509749
0.400	4.511116	-2.796309	711.753189	10.793852	11.455733	0.067825	-1.609509	1.516516
0.410	4.917988	-2.693399	711.465996	10.827583	11.245726	0.055948	-1.580641	1.521869
0.420	5.258423	-2.599820	711.124604	10.846182	11.046473	0.040203	-1.553381	1.525215
0.430	5.486734	-2.543164	710.807791	10.845730	10.877694	0.023733	-1.530328	1.525832
0.440	5.587062	-2.542310	710.601183	10.823040	10.754417	0.009898	-1.513425	1.523082
0.450	5.574801	-2.601675	710.575338	10.777263	10.684067	0.000887	-1.503580	1.516695
0.460	5.488620	-2.710524	710.764112	10.711253	10.664935	-0.003148	-1.500489	1.507005
0.470	5.376504	-2.846882	711.149911	10.632044	10.686485	-0.004027	-1.502705	1.495050
0.480	5.281128	-2.983993	711.661711	10.549905	10.731595	-0.004621	-1.507963	1.482433
0.490	5.229706	-3.096848	712.188673	10.475967	10.780371	-0.007612	-1.513696	1.470954
0.500	5.231087	-3.167108	712.607571	10.419179	10.814604	-0.014490	-1.517610	1.462120
0.510	5.279716	-3.186028	712.817322	10.383844	10.821614	-0.025113	-1.518147	1.456733
0.520	5.363503	-3.155667	712.769841	10.368711	10.796466	-0.037863	-1.514720	1.454707
0.530	5.471521	-3.088378	712.485431	10.367874	10.742125	-0.050260	-1.507698	1.455170
0.540	5.597948	-3.004098	712.045538	10.372960	10.667827	-0.059778	-1.498194	1.456783
0.550	5.740684	-2.925302	711.564948	10.375721	10.586424	-0.064629	-1.487766	1.458155
0.560	5.896084	-2.870754	711.154521	10.370235	10.511655	-0.064257	-1.478111	1.458225
0.570	6.053481	-2.850355	710.888987	10.354163	10.455932	-0.059414	-1.470825	1.456509
0.580	6.193388	-2.863309	710.790661	10.328885	10.428844	-0.051827	-1.467217	1.453154
0.590	6.291297	-2.900429	710.831725	10.298704	10.436242	-0.043604	-1.468173	1.448824
0.600	6.326019	-2.949298	710.949915	10.269540	10.479804	-0.036589	-1.474057	1.444482
0.610	6.288998	-2.999471	711.068959	10.247510	10.557046	-0.031845	-1.484673	1.441141
0.620	6.189971	-3.045078	711.117040	10.237719	10.661929	-0.029357	-1.499321	1.439667
0.630	6.055288	-3.084136	711.041618	10.243562	10.786256	-0.027956	-1.516965	1.440642
0.640	5.918411	-3.116016	710.822049	10.266598	10.921834	-0.025498	-1.536507	1.444328
0.650	5.806235	-3.139316	710.479588	10.306803	11.062829	-0.019383	-1.557093	1.450682
0.660	5.727843	-3.151346	710.080183	10.362785	11.207344	-0.007425	-1.578321	1.459382
0.670	5.671641	-3.148894	709.724819	10.431710	11.357422	0.011108	-1.600257	1.469825
0.680	5.612591	-3.129369	709.526214	10.509001	11.517369	0.034754	-1.623248	1.481129
0.690	5.525757	-3.091832	709.576377	10.588236	11.691122	0.059844	-1.647620	1.492191
0.700	5.398982	-3.037988	709.914195	10.661699	11.879967	0.081408	-1.673437	1.501829
0.710	5.238307	-2.972903	710.504660	10.721647	12.081722	0.094765	-1.700442	1.509019
0.720	5.063799	-2.904778	711.239973	10.761825	12.291706	0.097203	-1.728208	1.513107
0.730	4.898346	-2.843249	711.965820	10.778563	12.504842	0.089073	-1.756382	1.513916
0.740	4.755217	-2.796608	712.525001	10.771175	12.717653	0.073748	-1.784871	1.511691
0.750	4.630617	-2.769297	712.801555	10.741864	12.929106	0.056398	-1.813844	1.506992
0.760	4.505315	-2.761106	712.748969	10.695486	13.139985	0.042058	-1.843564	1.500597
0.770	4.355247	-2.768444	712.395530	10.639166	13.351335	0.033810	-1.874146	1.493435
0.780	4.166255	-2.786579	711.830329	10.581406	13.563001	0.031816	-1.905370	1.486507
0.790	3.945305	-2.811102	711.177988	10.530474	13.773070	0.033499	-1.936656	1.480709
0.800	3.721473	-2.837753	710.569558	10.492462	13.978453	0.034735	-1.967218	1.476627
0.810	3.534835	-2.861357	710.115211	10.469948	14.176232	0.031574	-1.996328	1.474401
0.820	3.417695	-2.875426	709.883450	10.462015	14.365082	0.021867	-2.023583	1.473765
0.830	3.377360	-2.873520	709.890988	10.465496	14.546076	0.006207	-2.049058	1.474240
0.840	3.389877	-2.852116	710.105384	10.476591	14.722457	-0.012207	-2.073278	1.475357
0.850	3.409029	-2.813472	710.458772	10.491930	14.898445	-0.028721	-2.097018	1.476782
0.860	3.386768	-2.766518	710.867505	10.508686	15.077586	-0.038951	-2.121012	1.478290
0.870	3.294978	-2.724615	711.251481	10.524017	15.261440	-0.040366	-2.145717	1.479648
0.880	3.137696	-2.700623	711.548226	10.534460	15.449271	-0.033187	-2.171219	1.480498
0.890	2.947875	-2.701309	711.719642	10.535952	15.639047	-0.020336	-2.197361	1.480352
0.900	2.770404	-2.723752	711.752321	10.524694	15.829399	-0.006575	-2.224004	1.478702
0.910	2.639675	-2.755733	711.654204	10.498374	16.021569	0.002837	-2.251314	1.475207
0.920	2.562508	-2.780406	711.450041	10.456864	16.220215	0.003586	-2.279881	1.469796
0.930	2.514620	-2.783601	711.176418	10.401658	16.432482	-0.006481	-2.310606	1.462599
0.940	2.452174	-2.760873	710.876067	10.334205	16.665645	-0.026599	-2.344381	1.453728
0.950	2.332558	-2.721340	710.591891	10.254130	16.924312	-0.053018	-2.381720	1.443041
0.960	2.134284	-2.686400	710.361768	10.158610	17.208353	-0.079819	-2.422477	1.430062
0.970	1.866835	-2.683343	710.214404	10.043474	17.512267	-0.100606	-2.465772	1.414147
0.980	1.566553	-2.736024	710.165757	9.905529	17.826134	-0.110661	-2.510137	1.394819
0.990	1.281429	-2.856155	710.217229	9.744960	18.137682	-0.108779	-2.553822	1.372110
1.000	1.052440	-3.038621	710.358229	9.566655	18.434681	-0.097898	-2.595125	1.346737
1.010	0.899898	-3.262582	710.573378	9.379877	18.706885	-0.084135	-2.632646	1.320043
1.020	0.819807	-3.497684	710.850155	9.196387	18.947001	-0.074495	-2.665400	1.293717
1.030	0.789970	-3.712598	711.181227	9.027727	19.150628	-0.074179	-2.692791	1.269399
1.040	0.781507	-3.882592	711.559034	8.882649	19.315415	-0.084620	-2.714520	1.248336
1.050	0.770466	-3.993977	711.965852	8.765541	19.439896	-0.103046	-2.730453	1.231174
1.060	0.745633	-4.045065	712.366433	8.676130	19.522430	-0.123691	-2.740504	1.217931
1.070	0.711031	-4.044533	712.709538	8.610235	19.560635	-0.140096	-2.744545	1.208099
1.080	0.683562	-4.008454	712.939398	8.561163	19.551500	-0.147474	-2.742379	1.200826
1.090	0.687326	-3.956922	713.012183	8.521355	19.492198	-0.144180	-2.733782	1.195121
1.100	0.746492	-3.910684	712.910054	8.483873	19.381313	-0.131807	-2.718620	1.190034
1.110	0.878558	-3.887801	712.647606	8.443261	19.220022	-0.114102	-2.696988	1.184774
1.120	1.089499	-3.900390	712.269797	8.395739	19.012777	-0.095339	-2.669322	1.178730
1.130	1.371503	-3.951981	711.843440	8.339222	18.767371	-0.078883	-2.636446	1.171497
1.140	1.703330	-4.036466	711.444725	8.273755	18.494545	-0.066363	-2.599576	1.162951
1.150	2.053278	-4.139324	711.144640	8.202382	18.207254	-0.057566	-2.560274	1.153406
1.160	2.385011	-4.241006	710.993975	8.131634	17.919416	-0.050912	-2.520333	1.143699
1.170	2.665905	-4.321572	711.010270	8.070652	17.643981	-0.044320	-2.481537	1.135096
1.180	2.875933	-4.365305	711.169963	8.028704	17.390553	-0.036212	-2.445344	1.128943
1.190	3.013586	-4.363941	711.409255	8.011989	17.163399	-0.026337	-2.412591	1.126214
1.200	3.095424	-4.317731	711.636175	8.021353	16.960917	-0.016074	-2.383369	1.127170
1.210	3.148352	-4.234542	711.753596	8.052161	16.777210	-0.007975	-2.357165	1.131313
1.220	3.197399	-4.127989	711.688584	8.096352	16.605493	-0.004604	-2.333253	1.137626
1.230	3.254395	-4.015297	711.418530	8.145576	16.442084	-0.007133	-2.311169	1.144977
1.240	3.312938	-3.914700	710.982350	8.194011	16.289190	-0.014352	-2.291082	1.152491
1.250	3.352275	-3.841910	710.469275	8.239907	16.154996	-0.022713	-2.273849	1.159784
1.260	3.348560	-3.805972	709.988239	8.285634	16.050706	-0.027536	-2.260700	1.167010
1.270	3.288399	-3.805982	709.631733	8.336360	15.985690	-0.024909	-2.252674	1.174745
1.280	3.178357	-3.830494	709.451087	8.397609	15.962973	-0.013400	-2.250046	1.183677
1.290	3.045802	-3.860614	709.452436	8.472243	15.977178	0.005230	-2.252044	1.194195
1.300	2.930275	-3.876245	709.609838	8.557926	16.015729	0.026557	-2.256977	1.206004
1.310	2.868714	-3.863541	709.884247	8.646344	16.062608	0.044976	-2.262708	1.217994
1.320	2.880657	-3.820887	710.238579	8.724839	16.102943	0.055509	-2.267258	1.228438
1.330	2.959985	-3.760815	710.645040	8.779952	16.126737	0.055337	-2.269310	1.235490
1.340	3.077173	-3.706475	711.085091	8.801509	16.130600	0.044617	-2.268449	1.237758
1.350	3.191156	-3.683347	711.544318	8.785765	16.117204	0.026343	-2.265102	1.234746
1.360	3.265165	-3.709070	712.005744	8.736659	16.093036	0.005227	-2.260240	1.227049
1.370	3.279047	-3.785345	712.445440	8.664921	16.065520	-0.014052	-2.254982	1.216222
1.380	3.233022	-3.895456	712.832939	8.585338	16.040506	-0.028577	-2.250248	1.204397
1.390	3.143032	-4.009025	713.136472	8.512982	16.020745	-0.038159	-2.246519	1.193738
1.400	3.032091	-4.092564	713.330331	8.459571	16.005454	-0.045021	-2.243765	1.185926
1.410	2.922784	-4.121633	713.400310	8.431132	15.990754	-0.052338	-2.241484	1.181823
1.420	2.833592	-4.089445	713.344783	8.427679	15.970628	-0.062342	-2.238837	1.181431
1.430	2.778420	-4.008403	713.172533	8.444772	15.938199	-0.074978	-2.234831	1.184113
1.440	2.767076	-3.904236	712.900137	8.475950	15.887271	-0.087832	-2.228541	1.188939
1.450	2.805050	-3.805549	712.550127	8.514802	15.813897	-0.097309	-2.219338	1.194976
1.460	2.892665	-3.733451	712.149368	8.555902	15.717445	-0.100440	-2.207043	1.201420
1.470	3.024696	-3.695494	711.727545	8.594754	15.600668	-0.096331	-2.191944	1.207590
1.480	3.191174	-3.685850	711.316610	8.627582	15.468681	-0.086488	-2.174655	1.212903
1.490	3.379049	-3.690748	710.951290	8.651759	15.327303	-0.073902	-2.155887	1.216927
1.500	3.573818	-3.696051	710.669087	8.666937	15.181458	-0.061447	-2.136220	1.219546
1.510	3.760609	-3.693277	710.507169	8.676015	15.034186	-0.050519	-2.115979	1.221102
1.520	3.924902	-3.681591	710.494515	8.684903	14.886512	-0.040585	-2.095232	1.222374
1.530	4.053634	-3.665613	710.640716	8.700865	14.738059	-0.029810	-2.073911	1.224369
1.540	4.137429	-3.651076	710.926766	8.730281	14.587980	-0.016326	-2.051967	1.228014
1.550	4.173942	-3.640923	711.304173	8.777030	14.435622	0.000507	-2.029458	1.233935
1.560	4.171183	-3.633379	711.704933	8.842166	14.280487	0.019472	-2.006518	1.242392
1.570	4.148723	-3.622112	712.058807	8.924632	14.121637	0.037730	-1.983212	1.253356
1.580	4.134739	-3.597977	712.310952	9.022212	13.957179	0.051804	-1.959422	1.266611
1.590	4.158460	-3.551892	712.433739	9.132042	13.784650	0.058887	-1.934868	1.281809
1.600	4.240082	-3.478489	712.429577	9.250507	13.602604	0.057981	-1.909326	1.298445
1.610	4.382112	-3.379654	712.324948	9.372989	13.412716	0.050478	-1.882949	1.315831
1.620	4.566133	-3.266273	712.158689	9.494108	13.221053	0.039981	-1.856476	1.333145
1.630	4.757007	-3.156493	711.969412	9.608802	13.037339	0.031354	-1.831166	1.349609
1.640	4.913616	-3.070148	711.786836	9.713941	12.872147	0.029198	-1.808427	1.364726
1.650	5.002564	-3.021032	711.628960	9.809578	12.733157	0.036222	-1.789297	1.378468
1.660	5.009760	-3.010184	711.503235	9.898894	12.622268	0.052151	-1.774028	1.391265
1.670	4.945204	-3.023364	711.408758	9.986632	12.535008	0.073686	-1.761998	1.403783
1.680	4.838806	-3.034358	711.338728	10.076724	12.462488	0.095587	-1.751977	1.416586
1.690	4.728896	-3.013448	711.284453	10.170323	12.394829	0.112468	-1.742598	1.429853
1.700	4.648262	-2.938183	711.241083	10.265241	12.324390	0.120565	-1.732801	1.443286
1.710	4.613459	-2.802416	711.212503	10.357150	12.247447	0.118818	-1.722052	1.456267
1.720	4.621440	-2.619924	711.211375	10.442062	12.163919	0.108943	-1.710310	1.468208
1.730	4.654283	-2.420755	711.252000	10.518874	12.075663	0.094618	-1.697804	1.478924
1.740	4.689275	-2.241309	711.338566	10.590631	11.984448	0.080212	-1.684774	1.488831
1.750	4.709551	-2.111659	711.456300	10.663691	11.890678	0.069480	-1.671315	1.498854
1.760	4.710666	-2.044844	711.572963	10.745068	11.793429	0.064564	-1.657374	1.510044
1.770	4.700776	-2.032224	711.651534	10.839191	11.691553	0.065502	-1.642876	1.523104
1.780	4.695207	-2.046665	711.666897	10.945662	11.585070	0.070363	-1.627878	1.538032
1.790	4.708447	-2.052282	711.616762	11.059073	11.476018	0.075960	-1.612668	1.554077
1.800	4.747113	-2.017026	711.521342	11.170814	11.368422	0.078922	-1.597763	1.569990
1.810	4.806467	-1.923611	711.412962	11.271873	11.267491	0.076752	-1.583819	1.584435
1.820	4.871597	-1.775312	711.321312	11.355378	11.178454	0.068521	-1.571506	1.596378
1.830	4.922968	-1.595188	711.261176	11.418044	11.105403	0.055023	-1.561368	1.605324
1.840	4.944513	-1.419306	711.227925	11.460342	11.050392	0.038444	-1.553706	1.611346
1.850	4.931158	-1.285970	711.202394	11.485666	11.012857	0.021691	-1.548484	1.614965
1.860	4.892488	-1.224048	711.162283	11.498925	10.989490	0.007490	-1.545286	1.616920
1.870	4.850715	-1.244051	711.094301	11.504902	10.974744	-0.002545	-1.543360	1.617915
1.880	4.833327	-1.335114	711.001249	11.506721	10.962143	-0.008576	-1.541790	1.618383
1.890	4.862765	-1.469109	710.901041	11.504765	10.946202	-0.012542	-1.539765	1.618336
1.900	4.946805	-1.610435	710.819046	11.496463	10.924378	-0.017384	-1.536872	1.617354
1.910	5.073661	-1.727824	710.778880	11.477150	10.898281	-0.025809	-1.533287	1.614729
1.920	5.214509	-1.803906	710.796990	11.441745	10.873560	-0.039186	-1.529770	1.609706
1.930	5.333237	-1.839334	710.882080	11.386542	10.858204	-0.057100	-1.527427	1.601748
1.940	5.399826	-1.850469	711.035740	11.310233	10.859605	-0.077689	-1.527294	1.590670
1.950	5.401871	-1.862046	711.250407	11.213682	10.881430	-0.098496	-1.529901	1.576615
1.960	5.349257	-1.897993	711.505164	11.098637	10.921811	-0.117418	-1.535029	1.559881
1.970	5.269778	-1.973863	711.763871	10.966190	10.973929	-0.133322	-1.541793	1.540706
1.980	5.197354	-2.093258	711.979817	10.815954	11.028956	-0.146112	-1.549055	1.519138
1.990	5.157628	-2.248690	712.107012	10.646607	11.080030	-0.156291	-1.555950	1.495085
2.000	5.156897	-2.425525	712.114141	10.457758	11.125311	-0.164297	-1.562293	1.468551
2.010	5.179040	-2.606662	711.995964	10.252258	11.168571	-0.170058	-1.568628	1.439932
2.020	5.192006	-2.775981	711.778306	10.037530	11.216973	-0.173050	-1.575908	1.410205
2.030	5.161685	-2.920086	711.514393	9.824807	11.277112	-0.172832	-1.584945	1.380830
2.040	5.067853	-3.029143	711.271536	9.626203	11.351220	-0.169663	-1.595905	1.353379
2.050	4.915527	-3.097849	711.110197	9.450735	11.435424	-0.164746	-1.608109	1.329011
2.060	4.736153	-3.126758	711.062530	9.301096	11.520959	-0.159905	-1.620245	1.308056
2.070	4.576831	-3.123278	711.120448	9.172778	11.597810	-0.156835	-1.630921	1.289905
2.080	4.481152	-3.101356	711.240135	9.056160	11.659080	-0.156307	-1.639261	1.273291
2.090	4.469758	-3.079314	711.362039	8.940691	11.704003	-0.157677	-1.645295	1.256841
2.100	4.529818	-3.076118	711.437759	8.819174	11.738240	-0.158964	-1.649932	1.239627
2.110	4.619144	-3.107046	711.452141	8.690094	11.771398	-0.157528	-1.654559	1.221459
2.120	4.683729	-3.180043	711.430873	8.557029	11.813034	-0.151092	-1.660461	1.202791
2.130	4.680693	-3.293851	711.429624	8.425686	11.868989	-0.138724	-1.668329	1.184332
2.140	4.595590	-3.438499	711.508071	8.300291	11.939594	-0.121346	-1.678069	1.166577
2.150	4.445988	-3.598211	711.698982	8.181238	12.020308	-0.101553	-1.688960	1.149536
2.160	4.270312	-3.756117	711.986187	8.065057	12.104218	-0.082763	-1.700064	1.132755
2.170	4.108191	-3.899317	712.302941	7.946443	12.185110	-0.068031	-1.710664	1.115599
2.180	3.982050	-4.022245	712.553355	7.821079	12.259743	-0.059010	-1.720537	1.097613
2.190	3.888289	-4.126748	712.648039	7.687838	12.328493	-0.055520	-1.729955	1.078771
2.200	3.801376	-4.218884	712.538114	7.549374	12.394245	-0.055871	-1.739450	1.059505
2.210	3.688262	-4.304349	712.233477	7.410990	12.460062	-0.057732	-1.749435	1.040528
2.220	3.526152	-4.385168	711.799422	7.278409	12.526647	-0.059105	-1.759856	1.022537
2.230	3.315526	-4.459267	711.334619	7.155680	12.590724	-0.059008	-1.770014	1.005951
2.240	3.082720	-4.522634	710.939114	7.044349	12.645162	-0.057590	-1.778656	0.990851
2.250	2.871188	-4.572241	710.683351	6.944347	12.680925	-0.055682	-1.784328	0.977137
2.260	2.725578	-4.607675	710.588678	6.856027	12.690135	-0.054033	-1.785862	0.964838
2.270	2.675638	-4.630478	710.625777	6.782089	12.668928	-0.052670	-1.782785	0.954383
2.280	2.726476	-4.641834	710.730620	6.728170	12.618819	-0.050733	-1.775471	0.946655
2.290	2.858244	-4.640283	710.831072	6.701550	12.545958	-0.046849	-1.764970	0.942777
2.300	3.034104	-4.621213	710.874438	6.708473	12.458717	-0.039838	-1.752590	0.943693
2.310	3.212336	-4.578780	710.846792	6.751326	12.364868	-0.029417	-1.739456	0.949758
2.320	3.357989	-4.509452	710.777729	6.827010	12.269616	-0.016616	-1.726224	0.960499
2.330	3.450871	-4.415365	710.728512	6.927261	12.175033	-0.003728	-1.713036	0.974670
2.340	3.488820	-4.305694	710.767220	7.040766	12.080574	0.006312	-1.699653	0.990587
2.350	3.486737	-4.195090	710.939963	7.156282	11.983936	0.010940	-1.685647	1.006594
2.360	3.472456	-4.099364	711.249723	7.265510	11.881768	0.008983	-1.670548	1.021513
2.370	3.480141	-4.029889	711.651562	7.364641	11.770260	0.001212	-1.653936	1.034866
