Time[s]	Fx[N]	Fy[N]	Fz[N]	Mx[Nm]	My[Nm]	Mz[Nm]	COPx[cm]	COPy[cm]
0.010	2.298181	0.145916	623.621379	-19.757437	-19.777930	-0.390352	3.171464	-3.168178
0.020	1.749875	0.149402	627.425007	-19.792056	-19.635494	-0.458712	3.129536	-3.154490
0.030	1.251053	0.152631	631.061189	-19.819364	-19.509709	-0.521903	3.091572	-3.140641
0.040	0.847110	0.155996	634.372411	-19.833103	-19.414370	-0.575642	3.060406	-3.126413
0.050	0.575643	0.161529	637.212654	-19.827917	-19.358557	-0.617050	3.038006	-3.111664
0.060	0.462193	0.173014	639.453831	-19.799555	-19.345831	-0.644817	3.025368	-3.096323
0.070	0.516560	0.195461	640.994308	-19.744808	-19.374785	-0.659046	3.022614	-3.080341
0.080	0.730792	0.233802	641.769940	-19.661373	-19.440613	-0.660923	3.029218	-3.063617
0.090	1.080011	0.291066	641.764844	-19.547882	-19.537035	-0.652362	3.044267	-3.045957
0.100	1.526471	0.367006	641.017167	-19.404099	-19.657950	-0.635669	3.066681	-3.027080
0.110	2.026236	0.458145	639.616014	-19.231180	-19.798376	-0.613250	3.095353	-3.006676
0.120	2.537093	0.559333	637.689367	-19.031941	-19.954558	-0.587340	3.129197	-2.984516
0.130	3.025874	0.665742	635.387000	-18.811096	-20.123422	-0.559772	3.167113	-2.960573
0.140	3.473119	0.773966	632.864114	-18.575337	-20.301753	-0.531870	3.207917	-2.935122
0.150	3.873458	0.881710	630.269272	-18.333087	-20.485512	-0.504503	3.250279	-2.908771
0.160	4.231628	0.986606	627.736582	-18.093891	-20.669608	-0.478276	3.292720	-2.882402
0.170	4.556107	1.085155	625.379816	-17.867491	-20.848206	-0.453718	3.333687	-2.857062
0.180	4.853347	1.172444	623.286437	-17.662699	-21.015290	-0.431389	3.371691	-2.833801
0.190	5.124873	1.242827	621.511193	-17.486144	-21.164998	-0.411848	3.405409	-2.813488
0.200	5.367489	1.291377	620.070926	-17.341242	-21.291409	-0.395545	3.433705	-2.796655
0.210	5.574992	1.315685	618.943606	-17.227851	-21.387880	-0.382668	3.455546	-2.783428
0.220	5.739150	1.317400	618.074444	-17.142924	-21.446454	-0.373039	3.469882	-2.773602
0.230	5.849095	1.302909	617.390827	-17.081870	-21.458030	-0.366179	3.475599	-2.766784
0.240	5.890482	1.282785	616.826305	-17.039949	-21.413802	-0.361499	3.471610	-2.762520
0.250	5.846930	1.269875	616.350694	-17.013140	-21.307899	-0.358556	3.457106	-2.760302
0.260	5.704985	1.276207	615.997453	-16.998413	-21.140414	-0.357225	3.431900	-2.759494
0.270	5.461052	1.309426	615.874663	-16.993725	-20.919481	-0.357738	3.396711	-2.759283
0.280	5.126561	1.369972	616.148586	-16.998029	-20.661139	-0.360566	3.353272	-2.758755
0.290	4.727747	1.450269	616.999803	-17.011367	-20.386653	-0.366190	3.304159	-2.757111
0.300	4.299309	1.536607	618.565369	-17.034791	-20.118183	-0.374791	3.252394	-2.753919
0.310	3.874920	1.613222	620.888232	-17.069905	-19.874529	-0.385986	3.200983	-2.749272
0.320	3.479612	1.667109	623.892805	-17.118026	-19.668454	-0.398719	3.152537	-2.743745
0.330	3.127699	1.691813	627.394191	-17.179266	-19.506178	-0.411360	3.109078	-2.738193
0.340	2.826188	1.688844	631.134210	-17.251950	-19.388602	-0.421986	3.072025	-2.733484
0.350	2.580352	1.666375	634.828102	-17.332603	-19.313387	-0.428780	3.042302	-2.730283
0.360	2.397419	1.635923	638.206074	-17.416409	-19.276985	-0.430454	3.020495	-2.728963
0.370	2.286305	1.608322	641.041704	-17.497913	-19.276080	-0.426615	3.006993	-2.729606
0.380	2.254101	1.590322	643.167316	-17.571789	-19.308279	-0.417934	3.002062	-2.732071
0.390	2.302016	1.582883	644.480038	-17.633659	-19.372149	-0.406017	3.005857	-2.736106
0.400	2.423678	1.581678	644.942065	-17.680853	-19.466814	-0.392917	3.018382	-2.741464
0.410	2.607063	1.579509	644.577109	-17.712774	-19.591327	-0.380374	3.039408	-2.747968
0.420	2.838805	1.569394	643.463104	-17.730586	-19.743959	-0.369107	3.068390	-2.755494
0.430	3.107947	1.546834	641.719533	-17.736319	-19.921603	-0.358569	3.104410	-2.763874
0.440	3.406802	1.510430	639.488097	-17.731877	-20.119476	-0.347371	3.146185	-2.772824
0.450	3.728873	1.461303	636.909152	-17.718459	-20.331186	-0.334141	3.192164	-2.781944
0.460	4.065812	1.402303	634.101523	-17.696584	-20.548993	-0.318327	3.240647	-2.790812
0.470	4.405537	1.337428	631.154868	-17.666624	-20.764114	-0.300523	3.289860	-2.799095
0.480	4.732236	1.271206	628.138392	-17.629558	-20.967074	-0.282245	3.337971	-2.806636
0.490	5.027700	1.207864	625.120532	-17.587661	-21.148334	-0.265377	3.383081	-2.813483
0.500	5.272947	1.150556	622.188472	-17.544716	-21.299276	-0.251594	3.423284	-2.819840
0.510	5.449543	1.100984	619.457604	-17.505554	-21.413472	-0.241974	3.456810	-2.825949
0.520	5.540549	1.059357	617.067396	-17.475068	-21.487857	-0.236889	3.482254	-2.831954
0.530	5.531584	1.024494	615.166821	-17.457237	-21.523443	-0.236191	3.498798	-2.837805
0.540	5.412717	0.994139	613.895877	-17.454535	-21.525366	-0.239627	3.506355	-2.843240
0.550	5.181461	0.965654	613.368643	-17.467648	-21.502381	-0.247278	3.505621	-2.847822
0.560	4.846148	0.936993	613.659706	-17.495271	-21.466040	-0.259783	3.498036	-2.850973
0.570	4.428177	0.907534	614.792773	-17.534099	-21.429563	-0.278112	3.485656	-2.852034
0.580	3.961650	0.878418	616.730380	-17.579430	-21.406259	-0.302897	3.470927	-2.850424
0.590	3.489685	0.852336	619.366464	-17.626511	-21.407498	-0.333618	3.456354	-2.845894
0.600	3.057921	0.832747	622.526493	-17.672048	-21.440689	-0.368109	3.444141	-2.838762
0.610	2.706656	0.822566	625.979869	-17.714960	-21.508008	-0.402832	3.435895	-2.829957
0.620	2.463683	0.822544	629.465661	-17.755877	-21.606535	-0.433895	3.432520	-2.820786
0.630	2.339739	0.830118	632.727470	-17.795705	-21.730006	-0.458356	3.434339	-2.812539
0.640	2.327930	0.839555	635.549738	-17.834189	-21.871862	-0.475130	3.441408	-2.806104
0.650	2.407517	0.843819	637.787512	-17.869248	-22.028620	-0.485058	3.453912	-2.801756
0.660	2.551346	0.837744	639.382741	-17.897335	-22.202191	-0.490183	3.472441	-2.799158
0.670	2.734941	0.821299	640.361953	-17.914502	-22.399984	-0.492651	3.498019	-2.797559
0.680	2.944283	0.801261	640.813842	-17.917612	-22.632621	-0.493794	3.531856	-2.796071
0.690	3.179344	0.790101	640.851774	-17.905251	-22.910151	-0.493761	3.574953	-2.793977
0.700	3.452053	0.802166	640.572669	-17.878108	-23.238234	-0.491729	3.627728	-2.790957
0.710	3.779660	0.848517	640.026277	-17.838778	-23.615677	-0.486450	3.689798	-2.787195
0.720	4.176193	0.932295	639.205676	-17.791104	-24.034065	-0.476794	3.759989	-2.783314
0.730	4.645085	1.046331	638.062118	-17.739258	-24.479456	-0.462062	3.836532	-2.780177
0.740	5.175344	1.173921	636.538220	-17.686887	-24.935456	-0.442083	3.917354	-2.778606
0.750	5.742339	1.292631	634.606469	-17.636703	-25.386679	-0.417219	4.000381	-2.779156
0.760	6.312730	1.379974	632.298507	-17.590662	-25.821515	-0.388382	4.083754	-2.782019
0.770	6.851797	1.419165	629.715223	-17.550475	-26.233384	-0.357026	4.165912	-2.787050
0.780	7.330710	1.403302	627.015238	-17.517968	-26.620264	-0.325025	4.245553	-2.793866
0.790	7.731564	1.336796	624.386392	-17.494976	-26.982960	-0.294407	4.321516	-2.801947
0.800	8.048901	1.233724	622.009851	-17.482927	-27.323009	-0.267023	4.392697	-2.810715
0.810	8.287775	1.113679	620.028947	-17.482465	-27.641110	-0.244228	4.458035	-2.819621
0.820	8.459545	0.996589	618.532688	-17.493427	-27.936640	-0.226698	4.516599	-2.828214
0.830	8.577197	0.898219	617.556746	-17.515215	-28.208258	-0.214371	4.567719	-2.836211
0.840	8.651881	0.827615	617.096684	-17.547361	-28.455112	-0.206498	4.611127	-2.843535
0.850	8.691500	0.786864	617.124336	-17.589927	-28.677924	-0.201796	4.647025	-2.850305
0.860	8.701254	0.772567	617.599877	-17.643339	-28.879348	-0.198770	4.676061	-2.856759
0.870	8.685189	0.777945	618.476405	-17.707615	-29.063365	-0.196189	4.699187	-2.863103
0.880	8.647650	0.794760	619.697791	-17.781393	-29.233951	-0.193535	4.717453	-2.869365
0.890	8.593772	0.814952	621.193307	-17.861499	-29.393601	-0.191159	4.731796	-2.875353
0.900	8.528720	0.832149	622.874212	-17.943498	-29.542429	-0.190002	4.742921	-2.880758
0.910	8.456156	0.842663	624.636733	-18.022939	-29.678371	-0.190988	4.751301	-2.885347
0.920	8.376974	0.845485	626.372165	-18.096470	-29.798517	-0.194425	4.757318	-2.889092
0.930	8.289424	0.841415	627.980683	-18.162263	-29.901058	-0.199695	4.761461	-2.892169
0.940	8.191040	0.832187	629.384483	-18.219787	-29.986978	-0.205355	4.764493	-2.894858
0.950	8.081802	0.820159	630.537935	-18.269366	-30.060807	-0.209521	4.767486	-2.897425
0.960	7.967241	0.808372	631.433825	-18.311878	-30.130283	-0.210335	4.771724	-2.900047
0.970	7.860196	0.800372	632.103334	-18.348637	-30.205329	-0.206313	4.778543	-2.902791
0.980	7.780420	0.799414	632.606162	-18.381280	-30.296675	-0.196570	4.789184	-2.905644
0.990	7.751789	0.807350	633.010206	-18.411514	-30.414226	-0.180968	4.804698	-2.908565
1.000	7.797417	0.823867	633.366337	-18.440722	-30.565167	-0.160184	4.825828	-2.911541
1.010	7.933642	0.846681	633.687864	-18.469560	-30.752156	-0.135577	4.852887	-2.914615
1.020	8.164728	0.872580	633.942969	-18.497707	-30.972248	-0.108785	4.885652	-2.917882
1.030	8.480498	0.898581	634.062962	-18.523913	-31.217134	-0.081185	4.923349	-2.921463
1.040	8.858418	0.922384	633.963357	-18.546381	-31.474778	-0.053481	4.964763	-2.925466
1.050	9.269737	0.941869	633.570444	-18.563365	-31.731912	-0.025629	5.008427	-2.929961
1.060	9.687157	0.954149	632.844205	-18.573772	-31.976494	0.002881	5.052823	-2.934967
1.070	10.090630	0.955176	631.789151	-18.577543	-32.199132	0.032486	5.096500	-2.940466
1.080	10.468914	0.940613	630.447795	-18.575761	-32.392918	0.063001	5.138081	-2.946439
1.090	10.816786	0.907611	628.877215	-18.570443	-32.551813	0.093314	5.176179	-2.952952
1.100	11.129718	0.856176	627.117538	-18.564010	-32.668393	0.121448	5.209293	-2.960212
1.110	11.398538	0.789112	625.168538	-18.558452	-32.732039	0.144998	5.235714	-2.968552
1.120	11.606338	0.710863	622.990495	-18.554507	-32.728576	0.161744	5.253463	-2.978297
1.130	11.729143	0.626556	620.535471	-18.551346	-32.642104	0.170165	5.260312	-2.989571
1.140	11.740626	0.542144	617.800256	-18.547194	-32.459142	0.169631	5.253986	-3.002134
1.150	11.619551	0.465400	614.880362	-18.540863	-32.174039	0.160253	5.232569	-3.015361
1.160	11.357409	0.406482	612.000651	-18.533668	-31.793593	0.142605	5.195026	-3.028374
1.170	10.963279	0.376558	609.504173	-18.530847	-31.338553	0.117587	5.141647	-3.040315
1.180	10.463515	0.383934	607.795606	-18.541683	-30.840753	0.086467	5.074198	-3.050644
1.190	9.895449	0.429069	607.253979	-18.578043	-30.336397	0.050913	4.995669	-3.059353
1.200	9.297011	0.501422	608.142215	-18.651749	-29.857738	0.012819	4.909664	-3.067004
1.210	8.696747	0.580731	610.541407	-18.771682	-29.426071	-0.026043	4.819668	-3.074596
1.220	8.109043	0.642904	614.326253	-18.941552	-29.048269	-0.064320	4.728476	-3.083305
1.230	7.536533	0.667832	619.182279	-19.159044	-28.717418	-0.101092	4.637959	-3.094249
1.240	6.977639	0.645229	624.654498	-19.416543	-28.416588	-0.135609	4.549169	-3.108365
1.250	6.434589	0.575834	630.213984	-19.703029	-28.123981	-0.166928	4.462608	-3.126403
1.260	5.917277	0.467932	635.330737	-20.006188	-27.817890	-0.193707	4.378490	-3.148941
1.270	5.440824	0.331582	639.543982	-20.313815	-27.480603	-0.214368	4.296906	-3.176297
1.280	5.018406	0.173704	642.522972	-20.614183	-27.101142	-0.227652	4.217926	-3.208319
1.290	4.653828	-0.003763	644.111455	-20.895865	-26.677111	-0.233383	4.141692	-3.244138
1.300	4.338561	-0.202349	644.347689	-21.147819	-26.215707	-0.233060	4.068565	-3.282051
1.310	4.055226	-0.423368	643.452409	-21.360318	-25.733550	-0.229897	3.999293	-3.319642
1.320	3.785637	-0.663894	641.782694	-21.526709	-25.254884	-0.228087	3.935115	-3.354205
1.330	3.519013	-0.914106	639.759323	-21.645434	-24.808077	-0.231503	3.877720	-3.383371
1.340	3.256159	-1.157429	637.784062	-21.721305	-24.421009	-0.242404	3.829040	-3.405746
1.350	3.007838	-1.374011	636.166847	-21.765039	-24.116430	-0.260801	3.790897	-3.421278
1.360	2.788726	-1.546482	635.079627	-21.790625	-23.908415	-0.284730	3.764633	-3.431164
1.370	2.610645	-1.665382	634.545317	-21.811169	-23.800690	-0.311205	3.750826	-3.437291
1.380	2.478830	-1.731521	634.460240	-21.834817	-23.787170	-0.337328	3.749198	-3.441479
1.390	2.392898	-1.754188	634.639970	-21.862488	-23.854475	-0.361040	3.758741	-3.444865
1.400	2.351456	-1.746414	634.873707	-21.888307	-23.985729	-0.381362	3.778032	-3.447663
1.410	2.357477	-1.719939	634.972390	-21.902346	-24.164430	-0.398198	3.805588	-3.449338
1.420	2.421245	-1.682382	634.800613	-21.894391	-24.377258	-0.411925	3.840144	-3.449019
1.430	2.558954	-1.637403	634.289256	-21.857286	-24.615112	-0.422936	3.880739	-3.445949
1.440	2.787297	-1.586773	633.430727	-21.788853	-24.872400	-0.431309	3.926617	-3.439816
1.450	3.116433	-1.532569	632.260583	-21.691985	-25.144934	-0.436678	3.976989	-3.430861
1.460	3.544415	-1.478422	630.830865	-21.573151	-25.427109	-0.438338	4.030733	-3.419800
1.470	4.054960	-1.429660	629.183284	-21.439931	-25.709239	-0.435546	4.086129	-3.407581
1.480	4.618580	-1.392528	627.332276	-21.298486	-25.976099	-0.427990	4.140724	-3.395089
1.490	5.195787	-1.372640	625.265768	-21.151835	-26.207476	-0.416313	4.191414	-3.382855
1.500	5.741195	-1.373002	622.965415	-20.999521	-26.380934	-0.402515	4.234735	-3.370897
1.510	6.208222	-1.392122	620.440638	-20.838834	-26.476210	-0.389949	4.267324	-3.358715
1.520	6.554428	-1.422901	617.764641	-20.667224	-26.480038	-0.382763	4.286428	-3.345485
1.530	6.746977	-1.452874	615.097738	-20.485042	-26.389939	-0.384906	4.290365	-3.330372
1.540	6.766913	-1.466122	612.685857	-20.297503	-26.215677	-0.399040	4.278812	-3.312873
1.550	6.611205	-1.446508	610.830442	-20.114984	-25.977743	-0.425736	4.252857	-3.293055
1.560	6.292491	-1.381318	609.836719	-19.951390	-25.703241	-0.463236	4.214774	-3.271595
1.570	5.837241	-1.264385	609.954874	-19.820994	-25.420547	-0.507813	4.167611	-3.249584
1.580	5.282820	-1.098148	611.329931	-19.734672	-25.154496	-0.554601	4.114717	-3.228154
1.590	4.673583	-0.894244	613.972236	-19.696735	-24.923560	-0.598595	4.059395	-3.208082
1.600	4.056235	-0.672129	617.753913	-19.703448	-24.739459	-0.635548	4.004743	-3.189530
1.610	3.475201	-0.455381	622.429122	-19.743830	-24.608638	-0.662576	3.953645	-3.172061
1.620	2.968918	-0.266225	627.669716	-19.802461	-24.534357	-0.678394	3.908800	-3.154917
1.630	2.567689	-0.119979	633.105560	-19.863228	-24.518251	-0.683163	3.872696	-3.137428
1.640	2.293280	-0.021636	638.360852	-19.912580	-24.560822	-0.677991	3.847483	-3.119330
1.650	2.160004	0.033950	643.082444	-19.941251	-24.661020	-0.664223	3.834815	-3.100886
1.660	2.176396	0.058505	646.961354	-19.944230	-24.815474	-0.642778	3.835696	-3.082754
1.670	2.346414	0.065120	649.751415	-19.919567	-25.018004	-0.613837	3.850396	-3.065721
1.680	2.669445	0.063663	651.287181	-19.866967	-25.259770	-0.577015	3.878438	-3.050416
1.690	3.139030	0.058612	651.497969	-19.786931	-25.530010	-0.531944	3.918663	-3.037144
1.700	3.740611	0.049913	650.411848	-19.680583	-25.816977	-0.478984	3.969328	-3.025865
1.710	4.448981	0.036073	648.146044	-19.549875	-26.108752	-0.419768	4.028221	-3.016276
1.720	5.226626	0.017673	644.886517	-19.397790	-26.393900	-0.357346	4.092798	-3.007938
1.730	6.024604	-0.000615	640.864250	-19.228403	-26.662200	-0.295827	4.160351	-3.000386
1.740	6.787084	-0.010516	636.336134	-19.046799	-26.905586	-0.239561	4.228203	-2.993198
1.750	7.459159	-0.002689	631.574033	-18.858834	-27.119167	-0.192094	4.293902	-2.986005
1.760	7.995835	0.030019	626.858989	-18.670717	-27.301988	-0.155293	4.355364	-2.978456
1.770	8.369665	0.090148	622.473276	-18.488461	-27.457223	-0.128996	4.410988	-2.970161
1.780	8.575137	0.175053	618.683737	-18.317367	-27.591577	-0.111327	4.459722	-2.960700
1.790	8.628890	0.278158	615.714696	-18.161726	-27.713796	-0.099555	4.501078	-2.949698
1.800	8.565563	0.390927	613.714715	-18.024769	-27.832319	-0.091108	4.535058	-2.936995
1.810	8.430014	0.504183	612.726418	-17.908769	-27.952409	-0.084344	4.561972	-2.922800
1.820	8.267588	0.608392	612.670826	-17.815159	-28.073392	-0.078788	4.582133	-2.907786
1.830	8.114746	0.693629	613.355312	-17.744420	-28.186911	-0.074852	4.595527	-2.893008
1.840	7.992181	0.750231	614.507688	-17.695548	-28.277057	-0.073277	4.601579	-2.879630
1.850	7.901787	0.770420	615.830609	-17.665167	-28.322898	-0.074634	4.599138	-2.868511
1.860	7.828076	0.750264	617.063975	-17.646919	-28.303111	-0.079116	4.586739	-2.859820
1.870	7.743809	0.691145	618.040049	-17.631979	-28.201575	-0.086712	4.563066	-2.852886
1.880	7.618592	0.600269	618.716696	-17.611112	-28.012148	-0.097588	4.527460	-2.846394
1.890	7.428042	0.490201	619.178825	-17.577733	-27.740975	-0.112332	4.480285	-2.838878
1.900	7.160658	0.377497	619.607154	-17.530616	-27.405463	-0.131794	4.423039	-2.829311
1.910	6.819985	0.280532	620.224037	-17.474853	-27.030247	-0.156519	4.358142	-2.817507
1.920	6.421367	0.216829	621.233188	-17.420344	-26.641561	-0.186087	4.288496	-2.804155
1.930	5.985041	0.200284	622.770021	-17.378235	-26.261949	-0.218757	4.216958	-2.790474
1.940	5.529186	0.238634	624.873252	-17.356697	-25.906979	-0.251668	4.145957	-2.777635
1.950	5.066203	0.331430	627.480308	-17.357788	-25.584661	-0.281567	4.077365	-2.766268
1.960	4.603280	0.468914	630.442412	-17.376606	-25.297101	-0.305731	4.012595	-2.756256
1.970	4.146114	0.632389	633.551658	-17.402883	-25.043266	-0.322646	3.952837	-2.746877
1.980	3.703749	0.796525	636.572371	-17.424142	-24.821632	-0.332196	3.899263	-2.737182
1.990	3.292406	0.933653	639.271586	-17.429104	-24.631928	-0.335354	3.853124	-2.726401
2.000	2.936487	1.019510	641.446074	-17.410247	-24.475659	-0.333678	3.815700	-2.714218
2.010	2.665730	1.039187	642.944101	-17.364963	-24.355543	-0.328857	3.788128	-2.700851
2.020	2.509068	0.991385	643.679659	-17.295199	-24.274265	-0.322389	3.771172	-2.686926
2.030	2.487274	0.889302	643.636717	-17.205821	-24.233127	-0.315347	3.765032	-2.673219
2.040	2.607031	0.757679	642.862490	-17.102335	-24.231130	-0.308195	3.769256	-2.660341
2.050	2.858279	0.626987	641.451759	-16.988844	-24.264831	-0.300737	3.782799	-2.648499
2.060	3.215254	0.526461	639.527811	-16.866990	-24.328930	-0.292289	3.804202	-2.637413
2.070	3.640612	0.477596	637.226667	-16.736174	-24.417251	-0.282001	3.831800	-2.626408
2.080	4.091619	0.489501	634.688225	-16.594787	-24.523599	-0.269207	3.863881	-2.614636
2.090	4.527274	0.557280	632.052690	-16.441780	-24.642163	-0.253678	3.898751	-2.601331
2.100	4.914784	0.664124	629.457325	-16.277862	-24.767457	-0.235757	3.934732	-2.586015
2.110	5.233597	0.786646	627.029180	-16.105946	-24.894101	-0.216361	3.970166	-2.568612
2.120	5.475744	0.901778	624.873490	-15.930931	-25.016717	-0.196850	4.003485	-2.549465
2.130	5.642784	0.992845	623.062099	-15.759056	-25.130083	-0.178797	4.033319	-2.529291
2.140	5.741242	1.052957	621.628081	-15.596975	-25.229515	-0.163744	4.058619	-2.509052
2.150	5.778856	1.085078	620.570217	-15.450651	-25.311320	-0.152983	4.078720	-2.489751
2.160	5.762810	1.099396	619.865970	-15.324222	-25.373175	-0.147362	4.093332	-2.472183
2.170	5.699513	1.109159	619.487371	-15.219049	-25.414344	-0.147105	4.102480	-2.456717
2.180	5.594626	1.126354	619.413415	-15.133174	-25.435697	-0.151718	4.106417	-2.443146
2.190	5.452592	1.158592	619.635378	-15.061460	-25.439576	-0.160082	4.105572	-2.430697
2.200	5.276110	1.208325	620.155596	-14.996613	-25.429619	-0.170755	4.100522	-2.418202
2.210	5.066740	1.274640	620.981756	-14.930900	-25.410631	-0.182400	4.092009	-2.404402
2.220	4.827328	1.356473	622.117718	-14.858008	-25.388441	-0.194171	4.080971	-2.388295
2.230	4.565477	1.455088	623.551669	-14.774312	-25.369548	-0.205885	4.068556	-2.369381
2.240	4.296123	1.573899	625.244407	-14.679114	-25.360420	-0.217936	4.056081	-2.347740
2.250	4.041352	1.715468	627.122335	-14.573901	-25.366518	-0.230948	4.044907	-2.323933
2.260	3.826922	1.877711	629.078693	-14.461157	-25.391307	-0.245269	4.036269	-2.298783
2.270	3.676733	2.051996	630.983260	-14.343420	-25.435590	-0.260509	4.031104	-2.273185
2.280	3.607397	2.224522	632.697791	-14.222934	-25.497427	-0.275381	4.029954	-2.247982
2.290	3.624719	2.380194	634.093548	-14.101681	-25.572669	-0.288018	4.032949	-2.223912
2.300	3.722701	2.506900	635.068037	-13.981402	-25.655890	-0.296680	4.039865	-2.201560
2.310	3.884722	2.598149	635.558598	-13.863576	-25.741395	-0.300512	4.050200	-2.181321
