Time[s]	Fx[N]	Fy[N]	Fz[N]	Mx[Nm]	My[Nm]	Mz[Nm]	COPx[cm]	COPy[cm]
0.010	4.355383	-2.150091	651.474431	-1.275395	-7.562312	0.169253	1.160799	-0.195771
0.020	4.281259	-2.132698	651.412220	-1.229702	-7.371339	0.147794	1.131594	-0.188775
0.030	4.212665	-2.118861	651.360481	-1.192176	-7.179874	0.128577	1.102289	-0.183029
0.040	4.148943	-2.109844	651.330219	-1.168455	-6.986994	0.113170	1.072727	-0.179395
0.050	4.081124	-2.104493	651.329548	-1.160006	-6.791180	0.102070	1.042664	-0.178098
0.060	3.993823	-2.099638	651.360974	-1.164493	-6.590921	0.094728	1.011869	-0.178778
0.070	3.871565	-2.091702	651.420706	-1.177461	-6.385666	0.089880	0.980268	-0.180753
0.080	3.707372	-2.078913	651.501180	-1.194325	-6.176771	0.086014	0.948083	-0.183319
0.090	3.509778	-2.062954	651.594302	-1.211845	-5.968021	0.081855	0.915911	-0.185982
0.100	3.304186	-2.048959	651.691800	-1.228754	-5.765304	0.076718	0.884667	-0.188548
0.110	3.126353	-2.043575	651.782221	-1.245582	-5.575238	0.070677	0.855384	-0.191104
0.120	3.009467	-2.051976	651.848232	-1.263882	-5.403073	0.064483	0.828885	-0.193892
0.130	2.969932	-2.075345	651.868491	-1.285178	-5.250689	0.059259	0.805483	-0.197153
0.140	2.998624	-2.109975	651.824975	-1.310080	-5.115669	0.056013	0.784823	-0.200986
0.150	3.062314	-2.148088	651.712610	-1.337949	-4.992006	0.055169	0.765983	-0.205297
0.160	3.115284	-2.179816	651.546399	-1.367274	-4.872247	0.056360	0.747797	-0.209851
0.170	3.116142	-2.195732	651.362014	-1.396445	-4.750177	0.058638	0.729268	-0.214388
0.180	3.042556	-2.189535	651.207869	-1.424438	-4.622923	0.061018	0.709900	-0.218738
0.190	2.897882	-2.160270	651.129884	-1.451045	-4.491658	0.063010	0.689825	-0.222850
0.200	2.707618	-2.113163	651.154195	-1.476613	-4.360733	0.064796	0.669693	-0.226769
0.210	2.507999	-2.058329	651.275537	-1.501454	-4.235679	0.066868	0.650367	-0.230540
0.220	2.332034	-2.007634	651.457068	-1.525169	-4.120915	0.069403	0.632569	-0.234117
0.230	2.198728	-1.970976	651.641990	-1.546233	-4.018045	0.071824	0.616603	-0.237283
0.240	2.109199	-1.953545	651.772336	-1.562179	-3.925377	0.072927	0.602262	-0.239682
0.250	2.050356	-1.954982	651.808234	-1.570522	-3.838802	0.071513	0.588947	-0.240948
0.260	2.003877	-1.970459	651.740827	-1.570087	-3.753658	0.067165	0.575943	-0.240907
0.270	1.956316	-1.993018	651.593579	-1.562106	-3.666830	0.060761	0.562748	-0.239736
0.280	1.905739	-2.016134	651.410925	-1.550425	-3.578233	0.054480	0.549305	-0.238010
0.290	1.861879	-2.035597	651.239195	-1.540600	-3.491126	0.051293	0.536074	-0.236564
0.300	1.839798	-2.050309	651.108710	-1.538160	-3.411155	0.054044	0.523899	-0.236237
0.310	1.850068	-2.062135	651.025202	-1.546725	-3.344524	0.064363	0.513732	-0.237583
0.320	1.890085	-2.074919	650.973616	-1.566744	-3.295853	0.081766	0.506296	-0.240677
0.330	1.940735	-2.092686	650.930977	-1.595383	-3.266423	0.103331	0.501808	-0.245092
0.340	1.970456	-2.117282	650.881048	-1.627667	-3.253418	0.124153	0.499848	-0.250071
0.350	1.945522	-2.146448	650.823912	-1.658473	-3.250535	0.138487	0.499449	-0.254827
0.360	1.842569	-2.173657	650.777135	-1.684603	-3.249777	0.141253	0.499369	-0.258860
0.370	1.658148	-2.190407	650.768876	-1.706114	-3.243745	0.129469	0.498448	-0.262169
0.380	1.411182	-2.190235	650.825958	-1.726349	-3.227599	0.103223	0.495924	-0.265255
0.390	1.137190	-2.172609	650.961173	-1.750579	-3.200145	0.065873	0.491603	-0.268922
0.400	0.876878	-2.144573	651.164191	-1.783797	-3.163917	0.023325	0.485886	-0.273940
0.410	0.664233	-2.118942	651.399408	-1.828607	-3.124465	-0.017447	0.479654	-0.280720
0.420	0.519060	-2.109428	651.612293	-1.884155	-3.089236	-0.050178	0.474091	-0.289153
0.430	0.445982	-2.124658	651.743319	-1.946542	-3.066423	-0.070870	0.470496	-0.298667
0.440	0.438455	-2.163769	651.745894	-2.010443	-3.064072	-0.078617	0.470133	-0.308470
0.450	0.484609	-2.215835	651.602611	-2.071135	-3.089610	-0.075459	0.474156	-0.317853
0.460	0.572197	-2.263831	651.333845	-2.126065	-3.149798	-0.065299	0.483592	-0.326417
0.470	0.691655	-2.291721	650.994644	-2.175426	-3.250869	-0.052294	0.499370	-0.334170
0.480	0.837563	-2.291484	650.659621	-2.221722	-3.398399	-0.039317	0.522301	-0.341457
0.490	1.009096	-2.266741	650.400139	-2.268639	-3.596492	-0.027047	0.552966	-0.348807
0.500	1.209540	-2.231378	650.261956	-2.319736	-3.846259	-0.014025	0.591494	-0.356739
0.510	1.444490	-2.204027	650.252561	-2.377338	-4.144168	0.002349	0.637317	-0.365602
0.520	1.718512	-2.201149	650.344138	-2.441859	-4.481137	0.024311	0.689041	-0.375472
0.530	2.030906	-2.231668	650.490968	-2.511686	-4.843158	0.052373	0.744539	-0.386122
0.540	2.372404	-2.294956	650.652836	-2.583657	-5.213737	0.084739	0.801309	-0.397087
0.550	2.725019	-2.382243	650.812973	-2.654058	-5.577694	0.117761	0.857035	-0.407807
0.560	3.066135	-2.480286	650.981868	-2.719822	-5.925046	0.147157	0.910171	-0.417803
0.570	3.375601	-2.575810	651.185290	-2.779521	-6.253330	0.169415	0.960300	-0.426840
0.580	3.642715	-2.659303	651.443082	-2.833794	-6.567244	0.182770	1.008107	-0.435003
0.590	3.869689	-2.727022	651.750348	-2.884925	-6.875668	0.187514	1.054954	-0.442643
0.600	4.069783	-2.780537	652.071198	-2.935740	-7.187355	0.185728	1.102235	-0.450218
0.610	4.260853	-2.824202	652.348474	-2.988329	-7.507091	0.180626	1.150779	-0.458088
0.620	4.457487	-2.862020	652.525301	-3.043204	-7.833834	0.175682	1.200541	-0.466373
0.630	4.665721	-2.895656	652.568872	-3.099199	-8.161386	0.173722	1.250655	-0.474923
0.640	4.882696	-2.924473	652.484823	-3.153948	-8.480945	0.176222	1.299792	-0.483375
0.650	5.100519	-2.947153	652.313762	-3.204596	-8.784088	0.183041	1.346605	-0.491266
0.660	5.311255	-2.963457	652.110878	-3.248343	-9.064736	0.192645	1.390061	-0.498127
0.670	5.509856	-2.974822	651.919993	-3.282631	-9.319452	0.202725	1.429539	-0.503533
0.680	5.693738	-2.983434	651.756958	-3.305068	-9.546445	0.210949	1.464725	-0.507101
0.690	5.860018	-2.990455	651.610868	-3.313385	-9.744254	0.215606	1.495410	-0.508491
0.700	6.002726	-2.994412	651.460174	-3.305642	-9.910980	0.215966	1.521349	-0.507420
0.710	6.112231	-2.990584	651.292530	-3.280638	-10.044442	0.212316	1.542232	-0.503712
0.720	6.177881	-2.971962	651.116613	-3.238256	-10.143057	0.205721	1.557794	-0.497339
0.730	6.192988	-2.931722	650.960228	-3.179510	-10.206920	0.197585	1.567979	-0.488434
0.740	6.159517	-2.866250	650.857435	-3.106364	-10.238478	0.189139	1.573075	-0.477273
0.750	6.089519	-2.777119	650.833425	-3.021591	-10.242441	0.181041	1.573742	-0.464265
0.760	6.001893	-2.670932	650.895814	-2.928879	-10.225015	0.173277	1.570914	-0.449977
0.770	5.915618	-2.557326	651.034791	-2.833012	-10.192795	0.165394	1.565630	-0.435155
0.780	5.842588	-2.446473	651.227797	-2.739640	-10.151719	0.156876	1.558858	-0.420688
0.790	5.783498	-2.347203	651.443546	-2.654332	-10.106207	0.147444	1.551356	-0.407454
0.800	5.728727	-2.266008	651.644703	-2.581150	-10.058577	0.137163	1.543568	-0.396098
0.810	5.663540	-2.206481	651.792359	-2.521454	-10.008884	0.126410	1.535594	-0.386849
0.820	5.574914	-2.168830	651.854294	-2.473591	-9.955376	0.115826	1.527239	-0.379470
0.830	5.456866	-2.149582	651.814945	-2.433680	-9.895568	0.106234	1.518156	-0.373370
0.840	5.312355	-2.141861	651.682217	-2.397156	-9.827655	0.098495	1.508044	-0.367841
0.850	5.151565	-2.136563	651.486989	-2.360444	-9.751745	0.093285	1.496844	-0.362316
0.860	4.987838	-2.124350	651.274450	-2.322026	-9.670424	0.090814	1.484846	-0.356536
0.870	4.833265	-2.097905	651.090171	-2.282536	-9.588358	0.090625	1.472662	-0.350571
0.880	4.695935	-2.053677	650.966798	-2.244026	-9.511188	0.091577	1.461087	-0.344722
0.890	4.579877	-1.992537	650.917494	-2.208925	-9.444340	0.092180	1.450927	-0.339356
0.900	4.487191	-1.919241	650.938671	-2.179281	-9.392379	0.091231	1.442898	-0.334790
0.910	4.420576	-1.841153	651.018661	-2.156558	-9.359072	0.088531	1.437604	-0.331259
0.920	4.384525	-1.766976	651.145223	-2.141833	-9.347768	0.085256	1.435589	-0.328933
0.930	4.384453	-1.705977	651.306417	-2.135935	-9.361499	0.083630	1.437342	-0.327946
0.940	4.424090	-1.667496	651.485411	-2.139211	-9.402456	0.085941	1.443233	-0.328359
0.950	4.502282	-1.659930	651.655280	-2.151012	-9.470885	0.093316	1.453358	-0.330084
0.960	4.610744	-1.688548	651.780744	-2.169302	-9.563786	0.104927	1.467332	-0.332827
0.970	4.734198	-1.752518	651.829024	-2.190797	-9.674103	0.118066	1.484147	-0.336100
0.980	4.853344	-1.842671	651.784805	-2.211739	-9.791128	0.129129	1.502203	-0.339336
0.990	4.949712	-1.941932	651.660003	-2.229064	-9.902474	0.134994	1.519577	-0.342059
1.000	5.010648	-2.029424	651.491542	-2.241439	-9.997211	0.134117	1.534511	-0.344047
1.010	5.032860	-2.087194	651.328023	-2.249613	-10.069000	0.126884	1.545918	-0.345389
1.020	5.023650	-2.106521	651.212454	-2.255807	-10.117881	0.115217	1.553699	-0.346401
1.030	4.999252	-2.090488	651.168504	-2.262476	-10.149894	0.101779	1.558720	-0.347449
1.040	4.980068	-2.051524	651.194216	-2.271204	-10.174613	0.089186	1.562454	-0.348775
1.050	4.983692	-2.005463	651.263903	-2.282372	-10.201567	0.079455	1.566426	-0.350453
1.060	5.018256	-1.965488	651.337226	-2.295685	-10.236863	0.073704	1.571669	-0.352457
1.070	5.079189	-1.938799	651.373067	-2.311042	-10.281188	0.072063	1.578387	-0.354795
1.080	5.150970	-1.926712	651.344358	-2.329033	-10.329862	0.073739	1.585929	-0.357573
1.090	5.213048	-1.926794	651.249166	-2.350740	-10.374857	0.077312	1.593070	-0.360959
1.100	5.247588	-1.935135	651.113487	-2.377090	-10.407957	0.081231	1.598486	-0.365081
1.110	5.246223	-1.947927	650.983238	-2.408358	-10.423771	0.084366	1.601235	-0.369957
1.120	5.213313	-1.962552	650.907158	-2.444184	-10.421392	0.086370	1.601057	-0.375504
1.130	5.164190	-1.978464	650.917431	-2.483979	-10.404160	0.087657	1.598384	-0.381612
1.140	5.118829	-1.997517	651.017458	-2.527261	-10.377861	0.089060	1.594099	-0.388202
1.150	5.093645	-2.023161	651.183344	-2.573662	-10.348338	0.091373	1.589159	-0.395229
1.160	5.095280	-2.058469	651.378415	-2.622737	-10.319572	0.095035	1.584267	-0.402644
1.170	5.119199	-2.103781	651.572787	-2.673884	-10.292920	0.100066	1.579704	-0.410374
1.180	5.153392	-2.155271	651.757193	-2.726501	-10.267622	0.106227	1.575375	-0.418331
1.190	5.185036	-2.205556	651.943552	-2.780274	-10.242154	0.113230	1.571019	-0.426459
1.200	5.206775	-2.246602	652.151930	-2.835394	-10.215691	0.120843	1.566459	-0.434775
1.210	5.219773	-2.273763	652.390871	-2.892588	-10.188801	0.128801	1.561763	-0.443383
1.220	5.232148	-2.288728	652.641951	-2.952887	-10.162960	0.136562	1.557203	-0.452451
1.230	5.253521	-2.299371	652.857802	-3.017211	-10.139185	0.143079	1.553047	-0.462154
1.240	5.288288	-2.316191	652.976205	-3.085981	-10.116691	0.146801	1.549320	-0.472602
1.250	5.331251	-2.347168	652.944086	-3.159055	-10.092490	0.146065	1.545690	-0.483817
1.260	5.368505	-2.393899	652.739539	-3.236079	-10.062335	0.139799	1.541554	-0.495769
1.270	5.383739	-2.451127	652.381138	-3.316891	-10.022623	0.128252	1.536314	-0.508428
1.280	5.366841	-2.509873	651.920617	-3.401501	-9.972338	0.113338	1.529686	-0.521766
1.290	5.320006	-2.562335	651.423216	-3.489582	-9.913962	0.098329	1.521893	-0.535686
1.300	5.257535	-2.605800	650.945909	-3.580069	-9.852644	0.086972	1.513589	-0.549979
1.310	5.198759	-2.643475	650.524612	-3.671436	-9.793702	0.082389	1.505508	-0.564381
1.320	5.157277	-2.682040	650.175757	-3.762611	-9.739386	0.086210	1.497962	-0.578707
1.330	5.132007	-2.727704	649.907852	-3.853744	-9.686361	0.098212	1.490421	-0.592968
1.340	5.104814	-2.783239	649.732195	-3.946155	-9.625142	0.116453	1.481401	-0.607351
1.350	5.046200	-2.847484	649.664579	-4.041352	-9.541955	0.137754	1.468751	-0.622067
1.360	4.926770	-2.917063	649.718452	-4.139658	-9.422547	0.158386	1.450251	-0.637146
1.370	4.729668	-2.988846	649.896204	-4.239153	-9.256752	0.174835	1.424343	-0.652282
1.380	4.458849	-3.061613	650.184667	-4.335497	-9.042283	0.184528	1.390725	-0.666810
1.390	4.139901	-3.136106	650.556534	-4.422804	-8.786432	0.186327	1.350602	-0.679849
1.400	3.813363	-3.213647	650.975771	-4.495331	-8.505000	0.180619	1.306500	-0.690553
1.410	3.523486	-3.294278	651.403788	-4.549383	-8.218685	0.168992	1.261688	-0.698397
1.420	3.306547	-3.375469	651.803636	-4.584672	-7.948011	0.153647	1.219387	-0.703382
1.430	3.182192	-3.451962	652.141307	-4.604456	-7.708364	0.136834	1.182008	-0.706052
1.440	3.149676	-3.516722	652.385781	-4.614231	-7.506610	0.120498	1.150640	-0.707286
1.450	3.189313	-3.562781	652.510908	-4.619469	-7.340239	0.106175	1.124922	-0.707953
1.460	3.268210	-3.585567	652.501032	-4.623561	-7.199182	0.095039	1.103321	-0.708591
1.470	3.348617	-3.584986	652.358847	-4.627068	-7.069649	0.087961	1.083706	-0.709283
1.480	3.396983	-3.566238	652.110785	-4.628527	-6.938743	0.085496	1.064044	-0.709776
1.490	3.391804	-3.538718	651.805131	-4.626089	-6.798333	0.087770	1.043001	-0.709735
1.500	3.328417	-3.513282	651.501632	-4.618848	-6.647016	0.094303	1.020261	-0.708954
1.510	3.219381	-3.499130	651.255927	-4.607090	-6.489716	0.103890	0.996492	-0.707416
1.520	3.089980	-3.501588	651.105020	-4.591491	-6.335330	0.114649	0.973012	-0.705184
1.530	2.969783	-3.521357	651.059921	-4.572097	-6.193459	0.124303	0.951289	-0.702254
1.540	2.882705	-3.554931	651.108710	-4.547991	-6.071392	0.130609	0.932470	-0.698499
1.550	2.839052	-3.595531	651.228420	-4.517948	-5.972257	0.131844	0.917076	-0.693758
1.560	2.832884	-3.634082	651.399213	-4.481503	-5.894784	0.127248	0.904942	-0.687981
1.570	2.846103	-3.660322	651.612110	-4.439581	-5.834583	0.117340	0.895407	-0.681323
1.580	2.857499	-3.664565	651.864942	-4.394289	-5.786300	0.103969	0.887653	-0.674110
1.590	2.852397	-3.640327	652.149199	-4.348119	-5.745774	0.090037	0.881052	-0.666737
1.600	2.828238	-3.586956	652.437759	-4.303109	-5.711415	0.078924	0.875396	-0.659543
1.610	2.793720	-3.510751	652.683952	-4.260299	-5.684425	0.073739	0.870931	-0.652735
1.620	2.762606	-3.423609	652.835156	-4.219533	-5.667977	0.076543	0.868209	-0.646340
1.630	2.745973	-3.339666	652.854237	-4.179450	-5.665804	0.087718	0.867851	-0.640181
1.640	2.747009	-3.271390	652.736644	-4.137583	-5.680738	0.105653	0.870296	-0.633882
1.650	2.760819	-3.226661	652.513461	-4.090731	-5.713588	0.126911	0.875628	-0.626919
1.660	2.778799	-3.207563	652.239186	-4.035793	-5.762641	0.146917	0.883516	-0.618760
1.670	2.794501	-3.210666	651.971726	-3.970941	-5.823899	0.161077	0.893275	-0.609066
1.680	2.807108	-3.228112	651.755415	-3.896570	-5.892012	0.166040	0.904022	-0.597858
1.690	2.820477	-3.249179	651.614524	-3.815523	-5.961656	0.160717	0.914905	-0.585549
1.700	2.839047	-3.262521	651.557404	-3.732542	-6.029048	0.146661	0.925329	-0.572865
1.710	2.863929	-3.259226	651.584784	-3.653397	-6.093289	0.127577	0.935149	-0.560694
1.720	2.892014	-3.235990	651.694131	-3.584008	-6.157189	0.108133	0.944797	-0.549952
1.730	2.918691	-3.196945	651.876424	-3.529560	-6.227240	0.092565	0.955279	-0.541446
1.740	2.942540	-3.152952	652.108436	-3.493530	-6.312558	0.083658	0.968023	-0.535728
1.750	2.969184	-3.118437	652.347765	-3.476752	-6.422914	0.082416	0.984584	-0.532960
1.760	3.011772	-3.106846	652.536964	-3.476851	-6.566413	0.088370	1.006290	-0.532821
1.770	3.087314	-3.126078	652.618225	-3.488251	-6.747600	0.100163	1.033928	-0.534501
1.780	3.210498	-3.175137	652.553852	-3.502759	-6.966595	0.116083	1.067589	-0.536777
1.790	3.388261	-3.242997	652.343242	-3.510677	-7.219333	0.134385	1.106677	-0.538164
1.800	3.618006	-3.310420	652.026725	-3.502416	-7.498509	0.153460	1.150031	-0.537158
1.810	3.890019	-3.354796	651.672307	-3.470430	-7.794664	0.171923	1.196102	-0.532542
1.820	4.191976	-3.356975	651.351215	-3.410892	-8.097043	0.188641	1.243115	-0.523664
1.830	4.512446	-3.307861	651.114972	-3.324367	-8.394180	0.202671	1.289201	-0.510565
1.840	4.841410	-3.212119	650.984348	-3.215085	-8.674458	0.213130	1.332514	-0.493881
1.850	5.168029	-3.087170	650.951818	-3.089185	-8.926882	0.219144	1.371358	-0.474564
1.860	5.477649	-2.957410	650.991949	-2.952845	-9.142121	0.220050	1.404337	-0.453592
1.870	5.750639	-2.845555	651.073049	-2.811039	-9.313629	0.215848	1.430505	-0.431755
1.880	5.964779	-2.764430	651.166209	-2.667153	-9.438538	0.207625	1.449482	-0.409596
1.890	6.100885	-2.712693	651.250769	-2.523262	-9.518012	0.197554	1.461497	-0.387449
1.900	6.149417	-2.676397	651.316324	-2.380779	-9.556938	0.188289	1.467327	-0.365533
1.910	6.115073	-2.635665	651.361518	-2.241124	-9.562999	0.181992	1.468155	-0.344068
1.920	6.017201	-2.573382	651.390695	-2.106091	-9.545385	0.179535	1.465386	-0.323322
1.930	5.885300	-2.481984	651.410785	-1.977663	-9.513381	0.180324	1.460427	-0.303597
1.940	5.750711	-2.365390	651.430524	-1.857349	-9.475112	0.182802	1.454508	-0.285119
1.950	5.637410	-2.235741	651.461702	-1.745359	-9.436654	0.185281	1.448536	-0.267914
1.960	5.555697	-2.107362	651.519387	-1.639971	-9.401641	0.186677	1.443033	-0.251715
1.970	5.501435	-1.991426	651.617932	-1.537378	-9.371413	0.186877	1.438176	-0.235932
1.980	5.460873	-1.893513	651.762836	-1.432238	-9.345652	0.186687	1.433904	-0.219748
1.990	5.418523	-1.813937	651.942984	-1.319068	-9.323306	0.187430	1.430080	-0.202329
2.000	5.364472	-1.749299	652.129051	-1.194207	-9.303430	0.190349	1.426624	-0.183124
2.010	5.298041	-1.693902	652.280334	-1.057665	-9.285588	0.196013	1.423558	-0.162149
2.020	5.226487	-1.640677	652.357123	-0.913897	-9.269760	0.204001	1.420964	-0.140091
2.030	5.159830	-1.582181	652.333340	-0.770887	-9.255874	0.213009	1.418887	-0.118174
2.040	5.104819	-1.512271	652.205021	-0.637710	-9.243247	0.221359	1.417230	-0.097778
2.050	5.061449	-1.428294	651.992061	-0.521480	-9.230157	0.227639	1.415686	-0.079983
2.060	5.023813	-1.332697	651.732351	-0.424956	-9.213805	0.231106	1.413741	-0.065204
2.070	4.984592	-1.232908	651.469510	-0.345777	-9.190768	0.231653	1.410775	-0.053077
2.080	4.940493	-1.139105	651.238165	-0.277679	-9.157916	0.229454	1.406232	-0.042639
2.090	4.895449	-1.060681	651.052528	-0.213198	-9.113486	0.224567	1.399808	-0.032747
2.100	4.859629	-1.003033	650.903320	-0.146791	-9.057881	0.216784	1.391586	-0.022552
2.110	4.844534	-0.966283	650.764590	-0.077083	-8.993700	0.205787	1.382021	-0.011845
2.120	4.856627	-0.946390	650.607448	-0.007431	-8.924740	0.191489	1.371755	-0.001142
2.130	4.892740	-0.937625	650.414666	0.055391	-8.854223	0.174348	1.361320	0.008516
2.140	4.939570	-0.934704	650.190283	0.103849	-8.782932	0.155473	1.350825	0.015972
2.150	4.977415	-0.933648	649.961226	0.132609	-8.708100	0.136383	1.339788	0.020403
2.160	4.986286	-0.931822	649.771229	0.140609	-8.623596	0.118471	1.327174	0.021640
2.170	4.951610	-0.928267	649.669368	0.131451	-8.521493	0.102385	1.311666	0.020233
2.180	4.867547	-0.924766	649.696671	0.112039	-8.394534	0.087728	1.292070	0.017245
2.190	4.737454	-0.926754	649.874826	0.090054	-8.238558	0.073287	1.267715	0.013857
2.200	4.572128	-0.942618	650.200113	0.071214	-8.053936	0.057692	1.238686	0.010953
2.210	4.386528	-0.980794	650.643163	0.057294	-7.845422	0.040124	1.205795	0.008806
2.220	4.195594	-1.045637	651.153026	0.045611	-7.620517	0.020709	1.170311	0.007005
2.230	4.010141	-1.134163	651.664182	0.030182	-7.387076	0.000453	1.133571	0.004632
2.240	3.834433	-1.235525	652.106577	0.004124	-7.151201	-0.019080	1.096631	0.000632
2.250	3.666776	-1.333852	652.418686	-0.037713	-6.916276	-0.036090	1.060098	-0.005780
2.260	3.503039	-1.413528	652.561049	-0.097021	-6.683409	-0.048778	1.024181	-0.014868
2.270	3.341301	-1.464937	652.525389	-0.171797	-6.452814	-0.055616	0.988898	-0.026328
2.280	3.185237	-1.488439	652.335231	-0.257347	-6.225187	-0.055774	0.954293	-0.039450
2.290	3.044715	-1.494857	652.038097	-0.347893	-6.002395	-0.049547	0.920559	-0.053355
2.300	2.933747	-1.502056	651.693571	-0.438225	-5.787414	-0.038485	0.888058	-0.067244
2.310	2.867366	-1.528803	651.362503	-0.524950	-5.584054	-0.025043	0.857288	-0.080593
2.320	2.859191	-1.588391	651.099722	-0.606886	-5.396911	-0.011898	0.828892	-0.093209
2.330	2.920000	-1.684520	650.948318	-0.684346	-5.231414	-0.001264	0.803660	-0.105131
2.340	3.056086	-1.810681	650.932210	-0.757596	-5.093397	0.005496	0.782477	-0.116386
2.350	3.266322	-1.952628	651.047420	-0.825395	-4.987817	0.007948	0.766122	-0.126780
2.360	3.538592	-2.092489	651.257888	-0.884641	-4.916793	0.006501	0.754969	-0.135836
