Time[s]	Fx[N]	Fy[N]	Fz[N]	Mx[Nm]	My[Nm]	Mz[Nm]	COPx[cm]	COPy[cm]
0.010	2.301891	-0.913122	569.819266	9.642664	16.679800	-0.078952	-2.927209	1.692232
0.020	2.224460	-0.867017	569.790192	9.649125	16.691800	-0.085260	-2.929464	1.693452
0.030	2.165636	-0.834172	569.783841	9.652965	16.702953	-0.090668	-2.931454	1.694145
0.040	2.137362	-0.823616	569.823715	9.652012	16.712062	-0.094542	-2.932848	1.693859
0.050	2.141589	-0.836972	569.925030	9.644998	16.717209	-0.096530	-2.933229	1.692328
0.060	2.170855	-0.868601	570.086167	9.631681	16.716440	-0.096556	-2.932266	1.689513
0.070	2.212287	-0.908416	570.285098	9.612610	16.708620	-0.094824	-2.929871	1.685580
0.080	2.252958	-0.945994	570.485984	9.588717	16.693712	-0.091891	-2.926226	1.680798
0.090	2.284625	-0.974184	570.652997	9.560976	16.672235	-0.088736	-2.921606	1.675445
0.100	2.306616	-0.990872	570.761987	9.530329	16.644286	-0.086688	-2.916152	1.669755
0.110	2.326189	-0.998455	570.802732	9.497799	16.608899	-0.087154	-2.909744	1.663937
0.120	2.356121	-1.001637	570.773181	9.464609	16.564280	-0.091227	-2.902078	1.658208
0.130	2.409961	-1.004819	570.673576	9.432150	16.508931	-0.099366	-2.892885	1.652810
0.140	2.496479	-1.010371	570.506983	9.401720	16.443061	-0.111282	-2.882184	1.647959
0.150	2.615545	-1.018434	570.285710	9.374105	16.369503	-0.126065	-2.870404	1.643756
0.160	2.757280	-1.027929	570.037315	9.349280	16.293565	-0.142447	-2.858333	1.640117
0.170	2.904818	-1.037849	569.803765	9.326518	16.221833	-0.159015	-2.846916	1.636795
0.180	3.039216	-1.048042	569.632087	9.304928	16.160413	-0.174327	-2.836991	1.633498
0.190	3.144297	-1.059276	569.560140	9.284075	16.113366	-0.186995	-2.829090	1.630043
0.200	3.209862	-1.072891	569.603654	9.264234	16.081911	-0.195923	-2.823351	1.626435
0.210	3.232914	-1.090282	569.749705	9.246033	16.064565	-0.200666	-2.819583	1.622824
0.220	3.217392	-1.112294	569.958993	9.229775	16.058006	-0.201708	-2.817397	1.619375
0.230	3.172912	-1.138657	570.175883	9.214907	16.058261	-0.200458	-2.816370	1.616152
0.240	3.112585	-1.167732	570.342690	9.200044	16.061791	-0.198873	-2.816165	1.613073
0.250	3.049919	-1.196797	570.414382	9.183582	16.066147	-0.198842	-2.816575	1.609984
0.260	2.995462	-1.222743	570.370766	9.164595	16.070068	-0.201573	-2.817478	1.606779
0.270	2.954520	-1.242840	570.223106	9.143560	16.073135	-0.207267	-2.818745	1.603506
0.280	2.927099	-1.255338	570.011935	9.122495	16.075210	-0.215234	-2.820153	1.600404
0.290	2.910011	-1.259853	569.795476	9.104393	16.075886	-0.224401	-2.821343	1.597835
0.300	2.899869	-1.257431	569.632641	9.092171	16.074233	-0.233923	-2.821860	1.596146
0.310	2.895208	-1.250208	569.566693	9.087538	16.069067	-0.243577	-2.821279	1.595518
0.320	2.896493	-1.240777	569.613962	9.090238	16.059709	-0.253734	-2.819402	1.595859
0.330	2.903997	-1.231552	569.759570	9.097993	16.046760	-0.264940	-2.816409	1.596813
0.340	2.914985	-1.224298	569.961203	9.107191	16.032356	-0.277348	-2.812885	1.597861
0.350	2.922324	-1.219820	570.161207	9.114085	16.019668	-0.290311	-2.809674	1.598510
0.360	2.915776	-1.217909	570.304564	9.116047	16.011962	-0.302357	-2.807616	1.598452
0.370	2.885484	-1.217683	570.356642	9.112384	16.011750	-0.311592	-2.807323	1.597664
0.380	2.826065	-1.218137	570.313713	9.104407	16.020388	-0.316374	-2.809048	1.596386
0.390	2.739562	-1.218508	570.202256	9.094776	16.038042	-0.315989	-2.812693	1.595009
0.400	2.635963	-1.218273	570.067849	9.086501	16.063736	-0.310991	-2.817864	1.593933
0.410	2.530788	-1.217080	569.958078	9.081990	16.095303	-0.303023	-2.823945	1.593449
0.420	2.440439	-1.214924	569.905679	9.082366	16.129410	-0.294188	-2.830189	1.593661
0.430	2.377010	-1.212441	569.918257	9.087123	16.162059	-0.286273	-2.835856	1.594461
0.440	2.344468	-1.210966	569.978684	9.094216	16.189719	-0.280218	-2.840408	1.595536
0.450	2.337540	-1.212230	570.055404	9.100689	16.210655	-0.276026	-2.843698	1.596457
0.460	2.343859	-1.217827	570.116900	9.103815	16.225649	-0.273084	-2.846021	1.596833
0.470	2.348930	-1.228519	570.143369	9.102399	16.237510	-0.270629	-2.847970	1.596511
0.480	2.342228	-1.243463	570.131151	9.097665	16.249552	-0.268119	-2.850143	1.595714
0.490	2.321826	-1.259699	570.089416	9.093235	16.263859	-0.265338	-2.852861	1.595054
0.500	2.295349	-1.272499	570.032372	9.094082	16.280243	-0.262306	-2.856021	1.595362
0.510	2.276740	-1.276854	569.972301	9.104846	16.296388	-0.259113	-2.859154	1.597419
0.520	2.280382	-1.269609	569.917381	9.128162	16.309080	-0.255809	-2.861657	1.601664
0.530	2.315105	-1.251144	569.874279	9.163690	16.315919	-0.252400	-2.863073	1.608020
0.540	2.380301	-1.225537	569.852049	9.208224	16.316669	-0.248898	-2.863317	1.615897
0.550	2.465346	-1.198887	569.863221	9.256808	16.313518	-0.245330	-2.862708	1.624391
0.560	2.552730	-1.176548	569.919941	9.304333	16.310052	-0.241679	-2.861815	1.632568
0.570	2.624127	-1.160719	570.026536	9.346870	16.309486	-0.237804	-2.861180	1.639726
0.580	2.667177	-1.149675	570.172683	9.382287	16.313096	-0.233457	-2.861080	1.645517
0.590	2.679808	-1.139044	570.331661	9.410127	16.319697	-0.228418	-2.861440	1.649939
0.600	2.669986	-1.124448	570.465573	9.431132	16.326384	-0.222668	-2.861940	1.653234
0.610	2.651217	-1.104177	570.536065	9.446718	16.330143	-0.216477	-2.862245	1.655762
0.620	2.636260	-1.080583	570.516580	9.458586	16.329503	-0.210323	-2.862231	1.657899
0.630	2.631995	-1.059431	570.401400	9.468509	16.325374	-0.204670	-2.862085	1.659973
0.640	2.637509	-1.047341	570.208023	9.478195	16.320647	-0.199696	-2.862227	1.662235
0.650	2.645783	-1.048462	569.972741	9.489155	16.318867	-0.195096	-2.863096	1.664844
0.660	2.647910	-1.062112	569.742160	9.502565	16.322733	-0.190094	-2.864933	1.667871
0.670	2.637934	-1.082786	569.563478	9.519251	16.333204	-0.183747	-2.867670	1.671324
0.680	2.616365	-1.102466	569.474616	9.539753	16.349471	-0.175489	-2.870975	1.675185
0.690	2.590828	-1.113712	569.494876	9.564386	16.369570	-0.165605	-2.874402	1.679451
0.700	2.573208	-1.111833	569.618464	9.593195	16.391141	-0.155325	-2.877565	1.684144
0.710	2.574307	-1.095588	569.814493	9.625827	16.411969	-0.146430	-2.880230	1.689291
0.720	2.598576	-1.066888	570.035383	9.661335	16.430186	-0.140537	-2.882310	1.694866
0.730	2.641587	-1.030016	570.231391	9.698005	16.444278	-0.138452	-2.883790	1.700714
0.740	2.691368	-0.990293	570.365406	9.733467	16.453169	-0.139884	-2.884672	1.706532
0.750	2.732759	-0.952074	570.421755	9.765361	16.456519	-0.143653	-2.884974	1.711955
0.760	2.752713	-0.916680	570.406339	9.792396	16.455176	-0.148254	-2.884816	1.716740
0.770	2.744525	-0.881572	570.340087	9.815165	16.451347	-0.152456	-2.884480	1.720932
0.780	2.709771	-0.841684	570.250223	9.836055	16.448071	-0.155648	-2.884360	1.724866
0.790	2.657694	-0.792431	570.163263	9.858220	16.447946	-0.157815	-2.884778	1.729017
0.800	2.602583	-0.732660	570.101292	9.884279	16.451675	-0.159294	-2.885746	1.733776
0.810	2.560008	-0.665783	570.080459	9.915423	16.457327	-0.160517	-2.886843	1.739302
0.820	2.542835	-0.598569	570.109233	9.951250	16.460884	-0.161885	-2.887321	1.745499
0.830	2.557908	-0.538518	570.185053	9.990070	16.457940	-0.163744	-2.886421	1.752075
0.840	2.604246	-0.491383	570.290814	10.029359	16.445698	-0.166399	-2.883739	1.758639
0.850	2.673385	-0.459905	570.394935	10.066191	16.424300	-0.170127	-2.879461	1.764776
0.860	2.751737	-0.443837	570.458379	10.097712	16.396852	-0.175196	-2.874329	1.770105
0.870	2.824153	-0.440628	570.448074	10.121775	16.368263	-0.181874	-2.869369	1.774355
0.880	2.877537	-0.446200	570.350794	10.137635	16.343598	-0.190371	-2.865534	1.777439
0.890	2.903555	-0.455676	570.179657	10.146390	16.326778	-0.200695	-2.863445	1.779508
0.900	2.899963	-0.464300	569.969449	10.150773	16.320086	-0.212440	-2.863326	1.780933
0.910	2.870403	-0.468609	569.763858	10.154261	16.324463	-0.224652	-2.865128	1.782188
0.920	2.822822	-0.467533	569.601501	10.159941	16.340170	-0.235913	-2.868702	1.783693
0.930	2.766966	-0.462865	569.506635	10.169705	16.367357	-0.244669	-2.873954	1.785704
0.940	2.711738	-0.458677	569.486908	10.184099	16.406229	-0.249707	-2.880879	1.788294
0.950	2.663266	-0.459748	569.537145	10.202667	16.456747	-0.250591	-2.889495	1.791396
0.960	2.624246	-0.469635	569.646022	10.224468	16.518068	-0.247865	-2.899707	1.794881
0.970	2.594576	-0.489184	569.801441	10.248439	16.588061	-0.242943	-2.911200	1.798598
0.980	2.572809	-0.515992	569.990914	10.273485	16.663266	-0.237762	-2.923427	1.802395
0.990	2.557583	-0.544897	570.196391	10.298356	16.739417	-0.234321	-2.935728	1.806107
1.000	2.548098	-0.569275	570.387705	10.321583	16.812325	-0.234230	-2.947526	1.809573
1.010	2.543179	-0.582811	570.521584	10.341743	16.878783	-0.238299	-2.958483	1.812682
1.020	2.539407	-0.581268	570.550969	10.357998	16.937170	-0.246199	-2.968564	1.815438
1.030	2.529699	-0.563601	570.442542	10.370585	16.987680	-0.256358	-2.977983	1.817989
1.040	2.503787	-0.532041	570.194036	10.380878	17.032222	-0.266201	-2.987092	1.820587
1.050	2.451133	-0.491328	569.841925	10.390985	17.074107	-0.272786	-2.996288	1.823486
1.060	2.365351	-0.447661	569.455010	10.403104	17.117594	-0.273634	-3.005961	1.826853
1.070	2.247964	-0.407907	569.116294	10.418875	17.167292	-0.267478	-3.016482	1.830711
1.080	2.109156	-0.379061	568.900314	10.438833	17.227478	-0.254642	-3.028207	1.834914
1.090	1.964528	-0.367428	568.854076	10.462072	17.301365	-0.236913	-3.041442	1.839149
1.100	1.828940	-0.377062	568.986754	10.486245	17.390402	-0.216961	-3.056381	1.842968
1.110	1.710335	-0.407789	569.269036	10.508084	17.493640	-0.197538	-3.073000	1.845891
1.120	1.606845	-0.453958	569.640585	10.524459	17.607371	-0.180758	-3.090962	1.847561
1.130	1.509055	-0.505155	570.023748	10.533651	17.725392	-0.167701	-3.109588	1.847932
1.140	1.406472	-0.549148	570.341492	10.536204	17.840139	-0.158409	-3.127975	1.847350
1.150	1.294699	-0.575965	570.536146	10.534802	17.944507	-0.152212	-3.145201	1.846474
1.160	1.179424	-0.581251	570.583826	10.533190	18.033685	-0.148210	-3.160567	1.846037
1.170	1.075120	-0.567445	570.499147	10.534747	18.106280	-0.145734	-3.173761	1.846584
1.180	0.999158	-0.542429	570.327682	10.541333	18.164189	-0.144595	-3.184869	1.848294
1.190	0.964342	-0.516474	570.128779	10.552737	18.211245	-0.145014	-3.194234	1.850939
1.200	0.973655	-0.498750	569.955741	10.566731	18.251192	-0.147289	-3.202212	1.853956
1.210	1.019566	-0.494499	569.840947	10.579655	18.285888	-0.151412	-3.208946	1.856598
1.220	1.087636	-0.503610	569.790582	10.587354	18.314516	-0.156858	-3.214254	1.858113
1.230	1.162019	-0.520963	569.789460	10.586235	18.334171	-0.162623	-3.217710	1.857920
1.240	1.230164	-0.538503	569.812797	10.574195	18.341624	-0.167498	-3.218886	1.855731
1.250	1.284976	-0.548326	569.839622	10.551330	18.335500	-0.170423	-3.217660	1.851631
1.260	1.324179	-0.545535	569.862324	10.520314	18.317799	-0.170782	-3.214425	1.846115
1.270	1.347962	-0.529701	569.888853	10.486166	18.293923	-0.168532	-3.210086	1.840037
1.280	1.356684	-0.504474	569.937058	10.455113	18.271058	-0.164156	-3.205803	1.834433
1.290	1.350134	-0.475738	570.023562	10.432643	18.255625	-0.158532	-3.202609	1.830213
1.300	1.328616	-0.449313	570.151974	10.421482	18.250985	-0.152805	-3.201074	1.827843
1.310	1.294764	-0.429210	570.306362	10.420481	18.256367	-0.148245	-3.201151	1.827173
1.320	1.254379	-0.417076	570.453710	10.425094	18.267337	-0.146037	-3.202247	1.827509
1.330	1.215308	-0.412786	570.554289	10.429278	18.277419	-0.146999	-3.203450	1.827920
1.340	1.184783	-0.415557	570.575031	10.427958	18.280202	-0.151298	-3.203821	1.827623
1.350	1.166776	-0.424758	570.500724	10.418859	18.271172	-0.158295	-3.202655	1.826266
1.360	1.160997	-0.439944	570.339748	10.402890	18.248684	-0.166608	-3.199616	1.823981
1.370	1.164161	-0.460278	570.123103	10.383080	18.213717	-0.174473	-3.194699	1.821200
1.380	1.172874	-0.483908	569.897049	10.362907	18.168628	-0.180334	-3.188054	1.818382
1.390	1.186500	-0.507725	569.711341	10.345069	18.115601	-0.183465	-3.179786	1.815844
1.400	1.208276	-0.527631	569.606495	10.331278	18.055577	-0.184284	-3.169833	1.813757
1.410	1.244033	-0.539275	569.604116	10.322788	17.988104	-0.184189	-3.158001	1.812274
1.420	1.299457	-0.539139	569.703054	10.320945	17.911896	-0.184975	-3.144076	1.811636
1.430	1.377762	-0.525609	569.881541	10.327175	17.825624	-0.188149	-3.127952	1.812162
1.440	1.479058	-0.499593	570.103473	10.342332	17.728437	-0.194455	-3.109688	1.814115
1.450	1.601283	-0.464399	570.326971	10.365857	17.620042	-0.203731	-3.089463	1.817529
1.460	1.741410	-0.424915	570.513783	10.395330	17.500455	-0.215038	-3.067490	1.822100
1.470	1.895757	-0.386417	570.637267	10.426741	17.369802	-0.226952	-3.043931	1.827210
1.480	2.059149	-0.353482	570.686234	10.455349	17.228505	-0.237947	-3.018910	1.832066
1.490	2.223750	-0.329325	570.664050	10.476737	17.077854	-0.246816	-2.992628	1.835885
1.500	2.378881	-0.315507	570.584982	10.487713	16.920537	-0.253035	-2.965472	1.838063
1.510	2.512820	-0.311882	570.470025	10.486843	16.760612	-0.256945	-2.938036	1.838281
1.520	2.616573	-0.316803	570.342767	10.474605	16.602751	-0.259613	-2.911013	1.836546
1.530	2.688202	-0.327802	570.225293	10.453214	16.451083	-0.262425	-2.885015	1.833173
1.540	2.735253	-0.342662	570.134733	10.426186	16.308286	-0.266549	-2.860427	1.828723
1.550	2.773082	-0.360338	570.081187	10.397677	16.175398	-0.272535	-2.837385	1.823894
1.560	2.819010	-0.381057	570.067090	10.371628	16.052372	-0.280182	-2.815874	1.819370
1.570	2.884897	-0.405515	570.087505	10.350829	15.938924	-0.288653	-2.795873	1.815656
1.580	2.971968	-0.433845	570.130817	10.336159	15.835134	-0.296701	-2.777456	1.812945
1.590	3.070458	-0.465229	570.179955	10.326279	15.741495	-0.302945	-2.760794	1.811056
1.600	3.164134	-0.498382	570.214976	10.318006	15.658551	-0.306170	-2.746079	1.809494
1.610	3.237396	-0.532336	570.217645	10.307281	15.586453	-0.305650	-2.733422	1.807605
1.620	3.281557	-0.566715	570.177035	10.290457	15.524777	-0.301359	-2.722799	1.804783
1.630	3.297550	-0.601241	570.093558	10.265481	15.472745	-0.293976	-2.714071	1.800666
1.640	3.294254	-0.634989	569.979054	10.232558	15.429742	-0.284671	-2.707072	1.795251
1.650	3.283748	-0.666083	569.852981	10.194018	15.395834	-0.274776	-2.701720	1.788886
1.660	3.275903	-0.692178	569.737078	10.153440	15.371937	-0.265456	-2.698076	1.782127
1.670	3.274583	-0.711464	569.651010	10.114425	15.359429	-0.257483	-2.696287	1.775548
1.680	3.276806	-0.723588	569.609476	10.079501	15.359280	-0.251139	-2.696458	1.769546
1.690	3.274922	-0.729947	569.619618	10.049466	15.371110	-0.246200	-2.698487	1.764241
1.700	3.260620	-0.733240	569.678330	10.023241	15.392685	-0.241999	-2.701996	1.759456
1.710	3.228949	-0.736507	569.771213	9.998248	15.420211	-0.237580	-2.706387	1.754783
1.720	3.180677	-0.742094	569.875369	9.971234	15.449470	-0.232011	-2.711026	1.749722
1.730	3.122086	-0.751067	569.965898	9.939344	15.477394	-0.224776	-2.715495	1.743849
1.740	3.062352	-0.763361	570.023400	9.901055	15.503409	-0.216072	-2.719785	1.736956
1.750	3.009545	-0.778418	570.039404	9.856621	15.529823	-0.206787	-2.724342	1.729112
1.760	2.966905	-0.795760	570.018126	9.807947	15.560994	-0.198111	-2.729912	1.720638
1.770	2.930966	-0.815022	569.974219	9.758003	15.601641	-0.190942	-2.737254	1.712008
1.780	2.892299	-0.835470	569.926989	9.709994	15.655129	-0.185391	-2.746866	1.703726
1.790	2.838506	-0.855414	569.892800	9.666481	15.722485	-0.180650	-2.758850	1.696193
1.800	2.758234	-0.872095	569.878911	9.628659	15.802445	-0.175295	-2.772948	1.689597
1.810	2.644871	-0.882447	569.881698	9.595957	15.892226	-0.167893	-2.788689	1.683851
1.820	2.499027	-0.884725	569.889711	9.566103	15.988439	-0.157573	-2.805532	1.678589
1.830	2.329288	-0.880347	569.889826	9.535651	16.087713	-0.144300	-2.822951	1.673245
1.840	2.150874	-0.874871	569.874678	9.500888	16.186985	-0.128757	-2.840446	1.667189
1.850	1.982190	-0.877164	569.849547	9.458855	16.283678	-0.112024	-2.857540	1.659886
1.860	1.840006	-0.896636	569.835534	9.408142	16.375832	-0.095269	-2.873782	1.651028
1.870	1.734910	-0.939549	569.865339	9.349306	16.462058	-0.079593	-2.888763	1.640617
1.880	1.668875	-1.006093	569.970580	9.284892	16.541177	-0.065975	-2.902111	1.629012
1.890	1.635914	-1.089610	570.164613	9.219128	16.611613	-0.055267	-2.913477	1.616924
1.900	1.625383	-1.178293	570.428892	9.157298	16.670860	-0.048166	-2.922513	1.605336
1.910	1.626234	-1.258531	570.710962	9.104742	16.715410	-0.045176	-2.928875	1.595333
1.920	1.630290	-1.318537	570.937204	9.065632	16.741382	-0.046523	-2.932263	1.587851
1.930	1.633588	-1.350935	571.036183	9.041809	16.745746	-0.052030	-2.932519	1.583404
1.940	1.636160	-1.353715	570.963566	9.032124	16.727570	-0.061055	-2.929709	1.581909
1.950	1.641204	-1.329894	570.719218	9.032590	16.688583	-0.072572	-2.924132	1.582668
1.960	1.654188	-1.286656	570.350329	9.037449	16.632687	-0.085401	-2.916223	1.584543
1.970	1.681843	-1.234352	569.939355	9.040874	16.564645	-0.098442	-2.906387	1.586287
1.980	1.730913	-1.185010	569.580668	9.038777	16.488483	-0.110829	-2.894846	1.586918
1.990	1.806717	-1.149938	569.353821	9.030085	16.406238	-0.122009	-2.881554	1.586024
2.000	1.911851	-1.136706	569.302430	9.016961	16.317569	-0.131815	-2.866239	1.583861
2.010	2.045358	-1.146702	569.425255	9.003862	16.220432	-0.140518	-2.848562	1.581219
2.020	2.202547	-1.174680	569.680924	8.995831	16.112516	-0.148760	-2.828340	1.579100
2.030	2.375573	-1.210793	570.002687	8.996726	15.992675	-0.157351	-2.805719	1.578366
2.040	2.554881	-1.244140	570.316903	9.008089	15.861612	-0.167052	-2.781193	1.579488
2.050	2.731468	-1.266080	570.559900	9.029018	15.721650	-0.178420	-2.755478	1.582484
2.060	2.899200	-1.271972	570.690776	9.056895	15.576056	-0.191736	-2.729334	1.587006
2.070	3.055910	-1.261114	570.699298	9.088478	15.428512	-0.206952	-2.703440	1.592516
2.080	3.202353	-1.235563	570.607136	9.120793	15.282946	-0.223635	-2.678366	1.598437
2.090	3.339337	-1.198860	570.460340	9.151547	15.143527	-0.240948	-2.654615	1.604239
2.100	3.464588	-1.155374	570.313712	9.179139	15.014587	-0.257727	-2.632689	1.609489
2.110	3.571278	-1.110282	570.211997	9.202572	14.900355	-0.272690	-2.613126	1.613886
2.120	3.649407	-1.069576	570.174970	9.221517	14.804489	-0.284755	-2.596482	1.617313
2.130	3.689755	-1.039359	570.192115	9.236449	14.729404	-0.293377	-2.583235	1.619884
2.140	3.688706	-1.024220	570.228613	9.248587	14.675587	-0.298793	-2.573632	1.621909
2.150	3.651562	-1.025268	570.239777	9.259433	14.641288	-0.302086	-2.567567	1.623779
2.160	3.592556	-1.038902	570.188328	9.270072	14.622975	-0.304944	-2.564587	1.625791
2.170	3.531240	-1.057263	570.058915	9.280671	14.616555	-0.309106	-2.564043	1.628020
2.180	3.486389	-1.070629	569.865866	9.290581	14.618834	-0.315680	-2.565311	1.630310
2.190	3.469523	-1.070975	569.651696	9.299088	14.628420	-0.324632	-2.567959	1.632416
2.200	3.480479	-1.055185	569.475693	9.306327	14.645563	-0.334743	-2.571763	1.634192
2.210	3.507017	-1.026294	569.394707	9.313676	14.671068	-0.344029	-2.576608	1.635715
2.220	3.528991	-0.992016	569.441625	9.323175	14.705029	-0.350419	-2.582359	1.637249
2.230	3.525729	-0.961283	569.609474	9.336212	14.746180	-0.352373	-2.588823	1.639055
2.240	3.483738	-0.940604	569.848799	9.352296	14.792127	-0.349222	-2.595799	1.641189
2.250	3.401534	-0.931956	570.081535	9.368714	14.840139	-0.341183	-2.603161	1.643399
2.260	3.289612	-0.932975	570.227633	9.381351	14.887914	-0.329153	-2.610872	1.645194
2.270	3.165765	-0.938975	570.234453	9.386345	14.934023	-0.314457	-2.618927	1.646050
2.280	3.048051	-0.945563	570.096870	9.381934	14.978071	-0.298640	-2.627285	1.645674
2.290	2.948547	-0.950466	569.859475	9.369673	15.020792	-0.283274	-2.635876	1.644208
2.300	2.870196	-0.953734	569.600015	9.354316	15.064101	-0.269715	-2.644681	1.642260
2.310	2.807424	-0.956389	569.401480	9.342104	15.110954	-0.258828	-2.653831	1.640688
2.320	2.749777	-0.958428	569.324250	9.338060	15.164714	-0.250785	-2.663634	1.640201
2.330	2.687013	-0.957517	569.387782	9.343555	15.227998	-0.245014	-2.674451	1.640983
2.340	2.613807	-0.949447	569.566156	9.355487	15.301336	-0.240341	-2.686490	1.642564
2.350	2.532360	-0.930328	569.797320	9.367609	15.382331	-0.235313	-2.699614	1.644025
2.360	2.451774	-0.899311	570.003132	9.373417	15.465843	-0.228662	-2.713291	1.644450
