Time[s]	Fx[N]	Fy[N]	Fz[N]	Mx[Nm]	My[Nm]	Mz[Nm]	COPx[cm]	COPy[cm]
0.010	1.393889	0.611317	644.631008	4.872584	5.614344	0.527498	-0.870939	0.755872
0.020	1.344673	0.401721	644.304389	4.809089	5.635309	0.534512	-0.874635	0.746400
0.030	1.292948	0.202638	644.032469	4.738485	5.667072	0.540109	-0.879936	0.735753
0.040	1.233097	0.020420	643.858305	4.655878	5.717327	0.543344	-0.887979	0.723121
0.050	1.156639	-0.144492	643.802304	4.559213	5.788944	0.544035	-0.899180	0.708170
0.060	1.054306	-0.296175	643.859766	4.449404	5.879750	0.542870	-0.913203	0.691052
0.070	0.920247	-0.440274	644.003504	4.329673	5.983710	0.541104	-0.929143	0.672306
0.080	0.756602	-0.581368	644.190631	4.204549	6.092892	0.539950	-0.945821	0.652687
0.090	0.576180	-0.721536	644.373330	4.078864	6.199528	0.539955	-0.962102	0.632997
0.100	0.401462	-0.860126	644.511536	3.956927	6.297654	0.540717	-0.977120	0.613942
0.110	0.259550	-0.994312	644.582642	3.841957	6.383968	0.541069	-0.990403	0.596038
0.120	0.174451	-1.120004	644.583712	3.735854	6.457784	0.539677	-1.001853	0.579576
0.130	0.159402	-1.232772	644.526088	3.639378	6.520312	0.535800	-1.011644	0.564660
0.140	0.212232	-1.328694	644.427139	3.552748	6.573755	0.529903	-1.020093	0.551303
0.150	0.315602	-1.405137	644.304887	3.476568	6.620675	0.523808	-1.027569	0.539584
0.160	0.441948	-1.461403	644.177655	3.412717	6.663765	0.520264	-1.034461	0.529779
0.170	0.561213	-1.499003	644.065624	3.364590	6.705895	0.522048	-1.041182	0.522399
0.180	0.648658	-1.521266	643.989101	3.336359	6.750139	0.530967	-1.048176	0.518077
0.190	0.690391	-1.532104	643.961797	3.331490	6.799579	0.547151	-1.055898	0.517343
0.200	0.685130	-1.534251	643.983427	3.351278	6.856725	0.568885	-1.064736	0.520398
0.210	0.642024	-1.527722	644.038537	3.394166	6.922695	0.593006	-1.074888	0.527013
0.220	0.575720	-1.509354	644.104309	3.456206	6.996473	0.615763	-1.086233	0.536591
0.230	0.500790	-1.473857	644.162438	3.532531	7.074666	0.633894	-1.098274	0.548391
0.240	0.427714	-1.416017	644.206399	3.619210	7.152025	0.645585	-1.110207	0.561809
0.250	0.361801	-1.333081	644.239323	3.714713	7.222665	0.650930	-1.121115	0.576604
0.260	0.304975	-1.226154	644.265511	3.820328	7.281551	0.651713	-1.130210	0.592974
0.270	0.258789	-1.100005	644.283074	3.939340	7.325700	0.650604	-1.137031	0.611430
0.280	0.226416	-0.961487	644.283277	4.075374	7.354790	0.650121	-1.141546	0.632544
0.290	0.212140	-0.817337	644.256516	4.230788	7.371194	0.651754	-1.144140	0.656693
0.300	0.218449	-0.672107	644.200024	4.405869	7.379662	0.655529	-1.145554	0.683929
0.310	0.242247	-0.526788	644.121742	4.599139	7.386832	0.660102	-1.146807	0.714017
0.320	0.272265	-0.378450	644.038107	4.808400	7.400577	0.663303	-1.149090	0.746602
0.330	0.289426	-0.221022	643.967656	5.031699	7.429064	0.662919	-1.153639	0.781359
0.340	0.270994	-0.047140	643.924016	5.267483	7.479429	0.657456	-1.161539	0.818029
0.350	0.197944	0.149166	643.910982	5.513732	7.556262	0.646641	-1.173495	0.856288
0.360	0.063324	0.369399	643.920949	5.766554	7.660365	0.631532	-1.189644	0.895538
0.370	-0.121971	0.608200	643.937298	6.019158	7.788353	0.614274	-1.209489	0.934743
0.380	-0.329384	0.852890	643.940424	6.262143	7.933376	0.597581	-1.232005	0.972472
0.390	-0.519924	1.085635	643.915581	6.485418	8.086728	0.584078	-1.255868	1.007185
0.400	-0.656388	1.287745	643.859271	6.681069	8.239763	0.575610	-1.279746	1.037660
0.410	-0.716153	1.444704	643.781342	6.845670	8.385512	0.572681	-1.302540	1.063353
0.420	-0.699640	1.550284	643.702275	6.980740	8.519598	0.574181	-1.323531	1.084467
0.430	-0.630882	1.608347	643.647594	7.091114	8.640246	0.577572	-1.342388	1.101708
0.440	-0.549542	1.631505	643.641874	7.182197	8.747468	0.579566	-1.359058	1.115869
0.450	-0.497156	1.636838	643.703752	7.257602	8.841773	0.577186	-1.373578	1.127476
0.460	-0.502745	1.640283	643.842495	7.318318	8.922962	0.568872	-1.385892	1.136663
0.470	-0.573116	1.652077	644.056538	7.363516	8.989427	0.555196	-1.395751	1.143303
0.480	-0.691083	1.674963	644.333920	7.392172	9.038139	0.538801	-1.402710	1.147258
0.490	-0.821824	1.705217	644.653732	7.404365	9.065248	0.523514	-1.406220	1.148580
0.500	-0.924882	1.735266	644.987584	7.401610	9.067134	0.512932	-1.405784	1.147559
0.510	-0.967668	1.756474	645.301160	7.386306	9.041602	0.509112	-1.401145	1.144629
0.520	-0.935755	1.761258	645.556668	7.360804	8.988788	0.511928	-1.392409	1.140226
0.530	-0.836146	1.744322	645.716780	7.326610	8.911434	0.519381	-1.380084	1.134648
0.540	-0.692415	1.703202	645.750217	7.284035	8.814431	0.528601	-1.364991	1.127996
0.550	-0.534199	1.638374	645.638603	7.232418	8.703842	0.536993	-1.348098	1.120196
0.560	-0.386030	1.552971	645.383343	7.170887	8.585814	0.543033	-1.330343	1.111105
0.570	-0.260281	1.452030	645.010013	7.099346	8.465702	0.546516	-1.312492	1.100657
0.580	-0.156473	1.341474	644.567434	7.019154	8.347565	0.548359	-1.295065	1.088971
0.590	-0.066020	1.227243	644.120076	6.933030	8.233957	0.550112	-1.278326	1.076357
0.600	0.020726	1.114853	643.734927	6.844224	8.125803	0.553356	-1.262290	1.063205
0.610	0.108656	1.009284	643.465925	6.755552	8.022303	0.559123	-1.246733	1.049869
0.620	0.195798	0.914852	643.340460	6.668968	7.921052	0.567551	-1.231238	1.036616
0.630	0.275503	0.834916	643.353268	6.585804	7.818645	0.577864	-1.215296	1.023668
0.640	0.341550	0.771491	643.471274	6.507271	7.711757	0.588680	-1.198462	1.011276
0.650	0.393274	0.724986	643.647715	6.434637	7.598430	0.598449	-1.180526	0.999714
0.660	0.437691	0.694157	643.838720	6.368804	7.479058	0.605881	-1.161635	0.989192
0.670	0.487212	0.676184	644.014834	6.309553	7.356609	0.610207	-1.142304	0.979722
0.680	0.554073	0.666691	644.163767	6.255041	7.235833	0.611253	-1.123291	0.971033
0.690	0.644537	0.659743	644.285331	6.201962	7.121704	0.609354	-1.105365	0.962611
0.700	0.756043	0.648145	644.382761	6.146309	7.017783	0.605223	-1.089071	0.953829
0.710	0.878730	0.624518	644.455606	6.084434	6.925249	0.599832	-1.074589	0.944120
0.720	1.000239	0.583135	644.497940	6.014095	6.843005	0.594308	-1.061757	0.933144
0.730	1.111041	0.521777	644.502359	5.935349	6.768688	0.589715	-1.050219	0.920920
0.740	1.207648	0.442681	644.466942	5.851162	6.700133	0.586735	-1.039640	0.907907
0.750	1.292463	0.352072	644.400630	5.767422	6.636677	0.585416	-1.029899	0.895006
0.760	1.370750	0.258464	644.323103	5.692041	6.579809	0.585214	-1.021197	0.883414
0.770	1.446465	0.170366	644.258138	5.633065	6.532898	0.585339	-1.014019	0.874349
0.780	1.519088	0.094266	644.223274	5.596298	6.500161	0.585166	-1.008992	0.868689
0.790	1.582805	0.033740	644.221130	5.583356	6.485272	0.584437	-1.006684	0.866683
0.800	1.628216	-0.010058	644.237484	5.590978	6.490097	0.583158	-1.007408	0.867844
0.810	1.645772	-0.036970	644.248337	5.611912	6.513879	0.581351	-1.011082	0.871079
0.820	1.629592	-0.046509	644.233596	5.637102	6.553112	0.578877	-1.017195	0.875009
0.830	1.580136	-0.037456	644.190516	5.658421	6.602100	0.575497	-1.024868	0.878377
0.840	1.504688	-0.008728	644.138837	5.670993	6.653999	0.571125	-1.033007	0.880399
0.850	1.415664	0.038850	644.113469	5.674309	6.702049	0.566127	-1.040508	0.880949
0.860	1.327535	0.100760	644.147536	5.671827	6.740758	0.561396	-1.046462	0.880517
0.870	1.253433	0.168191	644.254281	5.669239	6.766851	0.558041	-1.050339	0.879969
0.880	1.202246	0.229373	644.417168	5.671913	6.779830	0.556833	-1.052087	0.880162
0.890	1.176843	0.272666	644.593350	5.682379	6.781970	0.557748	-1.052131	0.881545
0.900	1.173778	0.290153	644.729307	5.698947	6.777731	0.559922	-1.051252	0.883929
0.910	1.184472	0.280167	644.781884	5.716318	6.772779	0.562038	-1.050398	0.886551
0.920	1.197477	0.247777	644.735506	5.728151	6.772872	0.562902	-1.050488	0.888450
0.930	1.201236	0.203187	644.608089	5.730300	6.782837	0.561904	-1.052242	0.888959
0.940	1.186669	0.158658	644.443313	5.722909	6.805699	0.559140	-1.056059	0.888039
0.950	1.148990	0.124839	644.292905	5.710213	6.842033	0.555172	-1.061945	0.886276
0.960	1.088433	0.107686	644.196635	5.698314	6.889720	0.550629	-1.069506	0.884561
0.970	1.009981	0.107201	644.168483	5.692338	6.944379	0.545970	-1.078038	0.883672
0.980	0.922188	0.118651	644.194461	5.694468	7.000717	0.541554	-1.086740	0.883967
0.990	0.834936	0.135677	644.242128	5.703654	7.054585	0.537863	-1.095021	0.885328
1.000	0.756067	0.153656	644.276455	5.716786	7.104857	0.535548	-1.102765	0.887319
1.010	0.687927	0.171606	644.274211	5.730504	7.154060	0.535156	-1.110406	0.889451
1.020	0.625828	0.191832	644.230709	5.742763	7.207313	0.536678	-1.118747	0.891414
1.030	0.559911	0.217727	644.157728	5.753460	7.270133	0.539260	-1.128626	0.893176
1.040	0.479850	0.251119	644.076434	5.763943	7.346264	0.541321	-1.140589	0.894916
1.050	0.379894	0.290653	644.010684	5.775750	7.436500	0.541104	-1.154717	0.896841
1.060	0.261583	0.331985	643.983590	5.789350	7.538847	0.537432	-1.170658	0.898990
1.070	0.132952	0.369369	644.016087	5.803655	7.649702	0.530334	-1.187812	0.901166
1.080	0.004969	0.397644	644.124043	5.816502	7.765309	0.521232	-1.205561	0.903010
1.090	-0.112735	0.413730	644.311821	5.825739	7.882703	0.512584	-1.223430	0.904180
1.100	-0.214723	0.417305	644.563971	5.830252	7.999761	0.507102	-1.241112	0.904526
1.110	-0.299972	0.410841	644.840141	5.830454	8.114578	0.506868	-1.258386	0.904170
1.120	-0.369928	0.399224	645.078713	5.828096	8.224802	0.512660	-1.275008	0.903471
1.130	-0.426089	0.389049	645.211429	5.825562	8.327461	0.523692	-1.290656	0.902892
1.140	-0.468877	0.387574	645.185911	5.824962	8.419301	0.537797	-1.304942	0.902835
1.150	-0.498276	0.401444	644.987952	5.827348	8.497268	0.551939	-1.317431	0.903482
1.160	-0.515357	0.435265	644.653415	5.832263	8.558760	0.562924	-1.327653	0.904713
1.170	-0.523324	0.490193	644.262628	5.837724	8.601540	0.568140	-1.335098	0.906109
1.180	-0.527188	0.562827	643.917352	5.840633	8.623500	0.566188	-1.339225	0.907047
1.190	-0.532007	0.644802	643.708093	5.837521	8.622533	0.557244	-1.339510	0.906858
1.200	-0.540317	0.723437	643.683845	5.825337	8.596763	0.543048	-1.335557	0.905000
1.210	-0.549665	0.783621	643.835542	5.801993	8.545205	0.526487	-1.327234	0.901161
1.220	-0.551499	0.810791	644.099135	5.766507	8.468669	0.510868	-1.314808	0.895283
1.230	-0.532682	0.794336	644.376914	5.718794	8.370457	0.499106	-1.299000	0.887492
1.240	-0.480047	0.730399	644.569783	5.659333	8.256389	0.493072	-1.280915	0.878002
1.250	-0.386509	0.623114	644.609783	5.588896	8.133933	0.493263	-1.261838	0.867020
1.260	-0.255718	0.483760	644.481653	5.508392	8.010709	0.498848	-1.242969	0.854701
1.270	-0.102585	0.327930	644.225829	5.418797	7.892963	0.508012	-1.225186	0.841133
1.280	0.050869	0.171380	643.922423	5.321178	7.784635	0.518429	-1.208940	0.826369
1.290	0.182608	0.025756	643.662628	5.216822	7.687220	0.527731	-1.194293	0.810490
1.300	0.277779	-0.104305	643.517769	5.107414	7.600317	0.533894	-1.181058	0.793671
1.310	0.333404	-0.221510	643.516752	4.995135	7.522513	0.535590	-1.168969	0.776225
1.320	0.359098	-0.333434	643.639906	4.882609	7.452238	0.532449	-1.157827	0.758593
1.330	0.373796	-0.448098	643.830946	4.772749	7.388256	0.525110	-1.147546	0.741305
1.340	0.399673	-0.569358	644.021139	4.668603	7.329719	0.514992	-1.138118	0.724915
1.350	0.455169	-0.694194	644.154928	4.573147	7.275983	0.503933	-1.129539	0.709945
1.360	0.549094	-0.813314	644.206534	4.488887	7.226559	0.493865	-1.121777	0.696809
1.370	0.677474	-0.914871	644.182173	4.417284	7.181364	0.486627	-1.114803	0.685720
1.380	0.824074	-0.989358	644.109736	4.358302	7.141134	0.483779	-1.108683	0.676640
1.390	0.964619	-1.033164	644.023342	4.310468	7.107626	0.486343	-1.103629	0.669303
1.400	1.073713	-1.049124	643.950644	4.271572	7.083312	0.494514	-1.099977	0.663338
1.410	1.132345	-1.044134	643.906732	4.239738	7.070540	0.507508	-1.098069	0.658440
1.420	1.133285	-1.025442	643.894138	4.214335	7.070512	0.523661	-1.098086	0.654507
1.430	1.082211	-0.997744	643.906653	4.196263	7.082561	0.540778	-1.099936	0.651688
1.440	0.994400	-0.962361	643.934638	4.187438	7.104109	0.556624	-1.103234	0.650289
1.450	0.888879	-0.918316	643.969715	4.189726	7.131282	0.569413	-1.107394	0.650609
1.460	0.782860	-0.864135	644.007397	4.203892	7.159786	0.578153	-1.111755	0.652771
1.470	0.688493	-0.799196	644.047540	4.229163	7.185602	0.582785	-1.115694	0.656654
1.480	0.612375	-0.724214	644.093234	4.263618	7.205361	0.584144	-1.118683	0.661957
1.490	0.556879	-0.641231	644.148484	4.305043	7.216455	0.583779	-1.120309	0.668331
1.500	0.521940	-0.553597	644.214818	4.351580	7.217056	0.583630	-1.120287	0.675486
1.510	0.506240	-0.465913	644.287620	4.401786	7.206100	0.585594	-1.118460	0.683202
1.520	0.507434	-0.383574	644.354299	4.454238	7.183278	0.590998	-1.114803	0.691272
1.530	0.521751	-0.311759	644.396648	4.507136	7.149003	0.600152	-1.109410	0.699435
1.540	0.543772	-0.254167	644.397748	4.558178	7.104370	0.612191	-1.102482	0.707355
1.550	0.567241	-0.212082	644.350289	4.604654	7.051095	0.625338	-1.094295	0.714620
1.560	0.587109	-0.184249	644.261386	4.643687	6.991346	0.637523	-1.085172	0.720777
1.570	0.601911	-0.167775	644.150804	4.672721	6.927448	0.647090	-1.075439	0.725408
1.580	0.614908	-0.159662	644.043553	4.690329	6.861531	0.653305	-1.065383	0.728263
1.590	0.632925	-0.158146	643.960880	4.697153	6.795311	0.656470	-1.055237	0.729416
1.600	0.663271	-0.163011	643.913928	4.696525	6.730036	0.657641	-1.045176	0.729372
1.610	0.710355	-0.174630	643.902304	4.694237	6.666531	0.658099	-1.035333	0.729029
1.620	0.773670	-0.192247	643.916878	4.697254	6.605292	0.658794	-1.025799	0.729481
1.630	0.847793	-0.212518	643.944243	4.711680	6.546649	0.659988	-1.016648	0.731691
1.640	0.924006	-0.229268	643.970608	4.740799	6.491078	0.661241	-1.007977	0.736182
1.650	0.992653	-0.234882	643.985030	4.784047	6.439585	0.661775	-0.999959	0.742882
1.660	1.045351	-0.222903	643.983056	4.837314	6.393972	0.660995	-0.992879	0.751155
1.670	1.076464	-0.190836	643.970482	4.894371	6.356698	0.658843	-0.987110	0.760030
1.680	1.083690	-0.142003	643.964606	4.948813	6.330221	0.655760	-0.983008	0.768491
1.690	1.068093	-0.085522	643.989985	4.995795	6.315860	0.652331	-0.980739	0.775757
1.700	1.034010	-0.034077	644.068627	5.032998	6.312593	0.648901	-0.980112	0.781438
1.710	0.988976	-0.000012	644.208674	5.060619	6.316372	0.645413	-0.980485	0.785556
1.720	0.943306	0.008840	644.397473	5.080598	6.320513	0.641479	-0.980841	0.788426
1.730	0.908676	-0.008114	644.603062	5.095563	6.317193	0.636567	-0.980013	0.790496
1.740	0.895524	-0.044259	644.783642	5.107978	6.299496	0.630239	-0.976994	0.792200
1.750	0.910172	-0.088673	644.900189	5.119813	6.263164	0.622407	-0.971183	0.793892
1.760	0.953170	-0.130519	644.925888	5.132662	6.207390	0.613558	-0.962497	0.795853
1.770	1.019662	-0.162759	644.848737	5.147895	6.134570	0.604767	-0.951319	0.798310
1.780	1.101232	-0.183603	644.668891	5.166409	6.049292	0.597403	-0.938356	0.801405
1.790	1.188023	-0.195624	644.395936	5.188025	5.957020	0.592570	-0.924435	0.805099
1.800	1.270519	-0.203712	644.050200	5.210991	5.862888	0.590548	-0.910315	0.809097
1.810	1.341143	-0.213024	643.667393	5.232125	5.770912	0.590548	-0.896567	0.812862
1.820	1.395746	-0.227422	643.301075	5.247697	5.683661	0.590949	-0.883515	0.815745
1.830	1.434543	-0.248450	643.016726	5.254750	5.602182	0.589938	-0.871234	0.817203
1.840	1.462044	-0.275069	642.875862	5.252339	5.525953	0.586284	-0.859568	0.817007
1.850	1.486044	-0.304337	642.915789	5.242205	5.452900	0.579864	-0.848152	0.815380
1.860	1.515969	-0.332737	643.134526	5.228547	5.379737	0.571738	-0.836487	0.812979
1.870	1.560763	-0.357448	643.488686	5.216831	5.302779	0.563706	-0.824067	0.810711
1.880	1.626619	-0.376970	643.905957	5.212007	5.219113	0.557559	-0.810540	0.809436
1.890	1.715373	-0.391094	644.306977	5.216860	5.127853	0.554329	-0.795871	0.809685
1.900	1.824372	-0.400580	644.627488	5.231250	5.031085	0.553905	-0.780464	0.811515
1.910	1.947920	-0.406887	644.832441	5.252552	4.934128	0.555232	-0.765180	0.814561
1.920	2.079427	-0.411933	644.918303	5.277075	4.844800	0.557023	-0.751227	0.818255
1.930	2.213053	-0.417692	644.905369	5.301778	4.771713	0.558550	-0.739909	0.822102
1.940	2.344070	-0.425524	644.825533	5.325571	4.722069	0.560007	-0.732302	0.825893
1.950	2.468079	-0.435315	644.711277	5.349713	4.699785	0.562227	-0.728975	0.829784
1.960	2.580087	-0.444734	644.589441	5.377261	4.704688	0.565977	-0.729874	0.834215
1.970	2.674405	-0.449036	644.479925	5.411874	4.733020	0.571323	-0.734394	0.839727
1.980	2.745661	-0.441855	644.397021	5.456443	4.778897	0.577447	-0.741608	0.846752
1.990	2.790395	-0.417052	644.350519	5.512038	4.836045	0.582999	-0.750530	0.855441
2.000	2.808482	-0.371125	644.345301	5.577533	4.899183	0.586709	-0.760335	0.865612
2.010	2.803610	-0.305181	644.380008	5.650027	4.964761	0.587894	-0.770471	0.876816
2.020	2.782190	-0.225570	644.445984	5.725830	5.031139	0.586616	-0.780692	0.888489
2.030	2.750715	-0.142636	644.527301	5.801548	5.098555	0.583493	-0.791053	0.900124
2.040	2.712493	-0.067822	644.602402	5.874805	5.169047	0.579341	-0.801897	0.911384
2.050	2.665321	-0.010125	644.648116	5.944432	5.246201	0.574896	-0.813809	0.922120
2.060	2.601481	0.026694	644.646035	6.010218	5.334365	0.570737	-0.827487	0.932328
2.070	2.510632	0.045113	644.589282	6.072551	5.437291	0.567358	-0.843528	0.942081
2.080	2.385027	0.052943	644.486251	6.132254	5.556656	0.565211	-0.862184	0.951495
2.090	2.225147	0.061077	644.358893	6.190605	5.691116	0.564628	-0.883221	0.960739
2.100	2.043061	0.080563	644.236115	6.249254	5.836426	0.565692	-0.905945	0.970025
2.110	1.861211	0.119681	644.145424	6.309762	5.986684	0.568142	-0.929399	0.979555
2.120	1.706165	0.181698	644.105867	6.372956	6.136300	0.571405	-0.952685	0.989427
2.130	1.599291	0.264053	644.123629	6.438613	6.281834	0.574761	-0.975253	0.999593
2.140	1.548149	0.359342	644.190854	6.505813	6.422899	0.577579	-0.997049	1.009920
2.150	1.542499	0.457734	644.288379	6.573780	6.561734	0.579522	-1.018447	1.020316
2.160	1.556977	0.549797	644.392095	6.642598	6.701797	0.580612	-1.040019	1.030832
2.170	1.559537	0.628761	644.480614	6.713259	6.846204	0.581110	-1.062282	1.041654
2.180	1.522181	0.691683	644.541182	6.786975	6.996776	0.581278	-1.085544	1.052993
2.190	1.429637	0.739500	644.572060	6.864183	7.153922	0.581088	-1.109872	1.064921
2.200	1.282784	0.776237	644.581294	6.943749	7.316995	0.580053	-1.135155	1.077249
2.210	1.096091	0.807902	644.582783	7.022661	7.484657	0.577274	-1.161163	1.089489
2.220	0.890849	0.841305	644.590950	7.096294	7.654913	0.571776	-1.187561	1.100899
2.230	0.687553	0.882657	644.615962	7.159207	7.824861	0.562984	-1.213879	1.110616
2.240	0.500555	0.935784	644.661651	7.206422	7.990445	0.551124	-1.239479	1.117861
2.250	0.336627	1.000294	644.727088	7.234887	8.146674	0.537344	-1.263585	1.122163
2.260	0.196896	1.070408	644.810101	7.244712	8.288552	0.523514	-1.285425	1.123542
2.270	0.080119	1.135179	644.909391	7.239633	8.412516	0.511770	-1.304449	1.122581
2.280	-0.015002	1.180489	645.023133	7.226311	8.517713	0.503978	-1.320528	1.120318
2.290	-0.089440	1.192683	645.144942	7.212465	8.606435	0.501292	-1.334031	1.117960
2.300	-0.144759	1.162939	645.260093	7.204387	8.683401	0.503903	-1.345721	1.116509
2.310	-0.183831	1.090807	645.345093	7.204801	8.754195	0.511008	-1.356514	1.116426
2.320	-0.210489	0.985350	645.371998	7.211958	8.823532	0.520968	-1.367201	1.117488
2.330	-0.228335	0.863225	645.316312	7.220408	8.894049	0.531627	-1.378246	1.118894
2.340	-0.239574	0.744329	645.165317	7.223139	8.966006	0.540751	-1.389722	1.119580
2.350	-0.244636	0.646483	644.923774	7.214217	9.037920	0.546520	-1.401393	1.118615
2.360	-0.242723	0.580817	644.615583	7.190880	9.107816	0.547969	-1.412907	1.115530
2.370	-0.233022	0.549146	644.281476	7.154358	9.174596	0.545187	-1.424004	1.110440
2.380	-0.216054	0.544096	643.973063	7.109236	9.239018	0.539187	-1.434690	1.103965
2.390	-0.194657	0.551902	643.743130	7.061683	9.304058	0.531504	-1.445306	1.096972
2.400	-0.174188	0.556832	643.632686	7.017187	9.374657	0.523720	-1.456523	1.090247
2.410	-0.161878	0.545720	643.657772	6.978625	9.456950	0.517133	-1.469251	1.084214
2.420	-0.165718	0.511271	643.801661	6.945482	9.556932	0.512659	-1.484453	1.078823
2.430	-0.193507	0.453371	644.017907	6.914608	9.678613	0.510941	-1.502848	1.073667
2.440	-0.252431	0.378128	644.245360	6.882188	9.822072	0.512506	-1.524586	1.068256
