Time[s]	Fx[N]	Fy[N]	Fz[N]	Mx[Nm]	My[Nm]	Mz[Nm]	COPx[cm]	COPy[cm]
0.010	5.782020	2.509838	637.689177	8.018381	2.950410	-0.146712	-0.462672	1.257412
0.020	5.884446	2.548867	637.917380	7.976534	2.810567	-0.132266	-0.440585	1.250402
0.030	5.993895	2.576334	638.106249	7.937039	2.673959	-0.119954	-0.419046	1.243843
0.040	6.112662	2.586720	638.226852	7.900788	2.544505	-0.111166	-0.398683	1.237928
0.050	6.235865	2.582684	638.268968	7.867022	2.426590	-0.106398	-0.380183	1.232556
0.060	6.353467	2.572902	638.244451	7.833658	2.324225	-0.105341	-0.364159	1.227376
0.070	6.455008	2.566820	638.183074	7.798100	2.239754	-0.107132	-0.350958	1.221922
0.080	6.534364	2.569319	638.122352	7.758065	2.172798	-0.110550	-0.340499	1.215764
0.090	6.592297	2.578038	638.095719	7.712135	2.120032	-0.114164	-0.332244	1.208617
0.100	6.635998	2.584428	638.122853	7.660057	2.076003	-0.116572	-0.325330	1.200405
0.110	6.676144	2.577585	638.203904	7.602887	2.034608	-0.116734	-0.318802	1.191294
0.120	6.722886	2.548733	638.318809	7.542883	1.990554	-0.114239	-0.311843	1.181680
0.130	6.782479	2.494488	638.432732	7.482919	1.940233	-0.109339	-0.303906	1.172076
0.140	6.855769	2.418004	638.506900	7.425395	1.881870	-0.102767	-0.294730	1.162931
0.150	6.938763	2.328034	638.511218	7.371057	1.815272	-0.095508	-0.284298	1.154413
0.160	7.024663	2.236417	638.433488	7.318463	1.741593	-0.088592	-0.272792	1.146316
0.170	7.106315	2.154854	638.281689	7.264538	1.663243	-0.082952	-0.260581	1.138140
0.180	7.178164	2.092074	638.079704	7.206046	1.583725	-0.079356	-0.248202	1.129333
0.190	7.237183	2.052154	637.860190	7.141176	1.507176	-0.078395	-0.236286	1.119552
0.200	7.282832	2.034097	637.658217	7.070362	1.437659	-0.080466	-0.225459	1.108801
0.210	7.316449	2.032221	637.506418	6.995954	1.378501	-0.085642	-0.216233	1.097393
0.220	7.340468	2.037128	637.430324	6.920971	1.331963	-0.093437	-0.208958	1.085761
0.230	7.357559	2.037428	637.443363	6.847588	1.299318	-0.102664	-0.203833	1.074227
0.240	7.369705	2.022304	637.543169	6.776024	1.281256	-0.111567	-0.200968	1.062834
0.250	7.377444	1.984293	637.711442	6.704346	1.278325	-0.118269	-0.200455	1.051313
0.260	7.379711	1.921185	637.918134	6.629304	1.291153	-0.121358	-0.202401	1.039209
0.270	7.374452	1.836212	638.128436	6.547819	1.320236	-0.120363	-0.206892	1.026097
0.280	7.359665	1.736480	638.309710	6.458425	1.365405	-0.115916	-0.213909	1.011801
0.290	7.334406	1.630500	638.436085	6.362001	1.425312	-0.109559	-0.223250	0.996498
0.300	7.299378	1.526081	638.490795	6.261448	1.497443	-0.103295	-0.234528	0.980664
0.310	7.256868	1.429495	638.468249	6.160488	1.578791	-0.099074	-0.247278	0.964886
0.320	7.209943	1.345788	638.376842	6.062242	1.666845	-0.098363	-0.261107	0.949634
0.330	7.161209	1.279200	638.240464	5.968271	1.760325	-0.101851	-0.275809	0.935113
0.340	7.111809	1.232746	638.095161	5.878461	1.859349	-0.109226	-0.291391	0.921251
0.350	7.061217	1.206869	637.979829	5.791608	1.965165	-0.119123	-0.308029	0.907804
0.360	7.007818	1.198033	637.924408	5.706238	2.079682	-0.129384	-0.326008	0.894501
0.370	6.949592	1.198349	637.941408	5.621231	2.204920	-0.137705	-0.345630	0.881152
0.380	6.884037	1.196894	638.024297	5.536056	2.342479	-0.142402	-0.367146	0.867687
0.390	6.807107	1.182475	638.151549	5.450616	2.493311	-0.142881	-0.390708	0.854126
0.400	6.712055	1.146774	638.292926	5.364793	2.657996	-0.139604	-0.416423	0.840491
0.410	6.589591	1.086522	638.416089	5.277842	2.837357	-0.133671	-0.444437	0.826709
0.420	6.430198	1.003802	638.493256	5.188055	3.032822	-0.126350	-0.474997	0.812547
0.430	6.228018	0.904723	638.507307	5.093099	3.246110	-0.118777	-0.508390	0.797657
0.440	5.984596	0.797529	638.455910	4.991131	3.478237	-0.111839	-0.544789	0.781750
0.450	5.710595	0.690968	638.352255	4.882171	3.728383	-0.106190	-0.584064	0.764808
0.460	5.424402	0.592869	638.221480	4.768840	3.993321	-0.102314	-0.625695	0.747208
0.470	5.147825	0.508695	638.093212	4.655880	4.267883	-0.100609	-0.668849	0.729655
0.480	4.900062	0.440423	637.992547	4.548596	4.546404	-0.101448	-0.712611	0.712954
0.490	4.691735	0.386630	637.933056	4.451088	4.824544	-0.105135	-0.756277	0.697736
0.500	4.520997	0.344160	637.914690	4.365245	5.100740	-0.111725	-0.799596	0.684299
0.510	4.373415	0.310577	637.927230	4.290979	5.376737	-0.120784	-0.842845	0.672644
0.520	4.226193	0.285802	637.957186	4.227358	5.656956	-0.131297	-0.886730	0.662640
0.530	4.055456	0.271726	637.994379	4.173784	5.946934	-0.141900	-0.932130	0.654204
0.540	3.843876	0.270026	638.035156	4.130464	6.251400	-0.151377	-0.979789	0.647372
0.550	3.585849	0.279914	638.081589	4.098104	6.572754	-0.159170	-1.030080	0.642254
0.560	3.288675	0.297721	638.138075	4.077241	6.910486	-0.165604	-1.082914	0.638928
0.570	2.969816	0.318694	638.207145	4.067705	7.261578	-0.171721	-1.137809	0.637364
0.580	2.651662	0.339609	638.286018	4.068445	7.621446	-0.178808	-1.194049	0.637402
0.590	2.355856	0.360226	638.365576	4.077776	7.984827	-0.187848	-1.250824	0.638784
0.600	2.099114	0.382651	638.432872	4.093957	8.346176	-0.199060	-1.307291	0.641251
0.610	1.891353	0.409106	638.476185	4.115828	8.699555	-0.211679	-1.362550	0.644633
0.620	1.735617	0.439474	638.489470	4.143135	9.038364	-0.224033	-1.415585	0.648896
0.630	1.628734	0.470095	638.473232	4.176188	9.355444	-0.233947	-1.465284	0.654090
0.640	1.562146	0.494680	638.431698	4.214817	9.643833	-0.239385	-1.510551	0.660183
0.650	1.522989	0.507191	638.369122	4.257068	9.898035	-0.239086	-1.550519	0.666866
0.660	1.495594	0.505304	638.288347	4.298520	10.115281	-0.232957	-1.584751	0.673445
0.670	1.463223	0.492362	638.192051	4.332987	10.296220	-0.222110	-1.613342	0.678947
0.680	1.409953	0.476362	638.084092	4.354516	10.444736	-0.208540	-1.636890	0.682436
0.690	1.323075	0.466426	637.968505	4.359737	10.566927	-0.194562	-1.656340	0.683378
0.700	1.196217	0.468922	637.846634	4.349297	10.669558	-0.182183	-1.672747	0.681872
0.710	1.032407	0.485417	637.715203	4.327630	10.758345	-0.172623	-1.687014	0.678615
0.720	0.845305	0.513101	637.567563	4.301241	10.836484	-0.166123	-1.699660	0.674633
0.730	0.657218	0.546585	637.397794	4.276369	10.903846	-0.162058	-1.710681	0.670911
0.740	0.493971	0.579730	637.205565	4.256995	10.957262	-0.159221	-1.719580	0.668073
0.750	0.378235	0.606887	636.999876	4.243771	10.991928	-0.156182	-1.725578	0.666212
0.760	0.323629	0.623686	636.800718	4.234034	11.003463	-0.151681	-1.727929	0.664891
0.770	0.331506	0.627592	636.637775	4.222746	10.989789	-0.145033	-1.726223	0.663289
0.780	0.391296	0.618265	636.545217	4.204040	10.952112	-0.136425	-1.720555	0.660446
0.790	0.484112	0.597759	636.552656	4.172987	10.894763	-0.126915	-1.711526	0.655560
0.800	0.588541	0.570534	636.674590	4.127234	10.824084	-0.118011	-1.700097	0.648249
0.810	0.686898	0.543042	636.902480	4.068084	10.746785	-0.110957	-1.687352	0.638730
0.820	0.769908	0.522437	637.203506	4.000553	10.668224	-0.106098	-1.674226	0.627830
0.830	0.838137	0.514323	637.527786	3.932121	10.591057	-0.102716	-1.661270	0.616776
0.840	0.899858	0.520283	637.821984	3.870444	10.514648	-0.099468	-1.648524	0.606822
0.850	0.966614	0.536514	638.043565	3.820848	10.435420	-0.095159	-1.635534	0.598838
0.860	1.048561	0.554619	638.169384	3.784664	10.348135	-0.089338	-1.621534	0.593050
0.870	1.151244	0.564491	638.195765	3.759145	10.247764	-0.082398	-1.605740	0.589027
0.880	1.274310	0.558160	638.132428	3.738956	10.131404	-0.075175	-1.587665	0.585922
0.890	1.411879	0.532889	637.995511	3.718468	9.999593	-0.068397	-1.567345	0.582836
0.900	1.554288	0.492087	637.803674	3.693828	9.856576	-0.062345	-1.545393	0.579148
0.910	1.691028	0.443719	637.577593	3.663996	9.709352	-0.056901	-1.522850	0.574674
0.920	1.814287	0.397081	637.340578	3.630495	9.565693	-0.051831	-1.500876	0.569632
0.930	1.921656	0.359474	637.118256	3.596234	9.431775	-0.047018	-1.480381	0.564453
0.940	2.016550	0.334117	636.937006	3.563993	9.310372	-0.042470	-1.461741	0.559552
0.950	2.106159	0.319899	636.821670	3.535226	9.200390	-0.038185	-1.444736	0.555136
0.960	2.198204	0.312780	636.792759	3.509603	9.097879	-0.034075	-1.428703	0.551137
0.970	2.298177	0.307945	636.862769	3.485374	8.997936	-0.030062	-1.412853	0.547272
0.980	2.407942	0.301531	637.031564	3.460217	8.896658	-0.026265	-1.396580	0.543178
0.990	2.525767	0.291264	637.282184	3.432181	8.792441	-0.023122	-1.379678	0.538565
1.000	2.647433	0.276222	637.579985	3.400352	8.686217	-0.021348	-1.362373	0.533322
1.010	2.767936	0.256587	637.878014	3.365108	8.580611	-0.021742	-1.345181	0.527547
1.020	2.883172	0.233877	638.128921	3.327979	8.478419	-0.024909	-1.328637	0.521521
1.030	2.990940	0.211323	638.299323	3.291317	8.381156	-0.030976	-1.313045	0.515638
1.040	3.090946	0.193634	638.379678	3.257965	8.288464	-0.039410	-1.298360	0.510349
1.050	3.184119	0.185844	638.384438	3.230961	8.198652	-0.049086	-1.284281	0.506115
1.060	3.271909	0.191647	638.342858	3.213122	8.109945	-0.058580	-1.270469	0.503354
1.070	3.356038	0.211948	638.286033	3.206446	8.021540	-0.066603	-1.256731	0.502352
1.080	3.438375	0.244298	638.236602	3.211487	7.933836	-0.072360	-1.243087	0.503181
1.090	3.520285	0.283540	638.204222	3.226983	7.847883	-0.075703	-1.229682	0.505635
1.100	3.601342	0.323434	638.186188	3.249976	7.764647	-0.077017	-1.216674	0.509252
1.110	3.678284	0.358497	638.171125	3.276538	7.684713	-0.076926	-1.204177	0.513426
1.120	3.745360	0.385329	638.144122	3.302926	7.608612	-0.075990	-1.192303	0.517583
1.130	3.796286	0.403200	638.092208	3.326712	7.537493	-0.074528	-1.181255	0.521353
1.140	3.826717	0.414061	638.009149	3.347371	7.473635	-0.072671	-1.171399	0.524659
1.150	3.835854	0.422003	637.898534	3.366061	7.420322	-0.070523	-1.163245	0.527680
1.160	3.826511	0.431960	637.774100	3.384790	7.380935	-0.068284	-1.157296	0.530719
1.170	3.804041	0.447782	637.656483	3.405413	7.357531	-0.066206	-1.153839	0.534051
1.180	3.774928	0.470455	637.566534	3.428922	7.349536	-0.064489	-1.152748	0.537814
1.190	3.745550	0.497539	637.517358	3.455281	7.353287	-0.063266	-1.153425	0.541990
1.200	3.721094	0.524228	637.509003	3.483760	7.362840	-0.062723	-1.154939	0.546464
1.210	3.704474	0.545449	637.529409	3.513464	7.371818	-0.063220	-1.156310	0.551106
1.220	3.695473	0.557909	637.561774	3.543731	7.375461	-0.065245	-1.156823	0.555826
1.230	3.690739	0.561225	637.594025	3.574242	7.371933	-0.069165	-1.156211	0.560583
1.240	3.685239	0.557851	637.624522	3.604873	7.362404	-0.074961	-1.154661	0.565360
1.250	3.674872	0.552061	637.661001	3.635474	7.350022	-0.082123	-1.152653	0.570127
1.260	3.658988	0.548481	637.714117	3.665790	7.338384	-0.089787	-1.150733	0.574833
1.270	3.641335	0.550663	637.789411	3.695675	7.330214	-0.097028	-1.149316	0.579451
1.280	3.628789	0.560086	637.881534	3.725535	7.326707	-0.103103	-1.148600	0.584048
1.290	3.628417	0.575880	637.973407	3.756613	7.327579	-0.107550	-1.148571	0.588835
1.300	3.644312	0.595357	638.041147	3.790808	7.331508	-0.110170	-1.149065	0.594132
1.310	3.675788	0.615145	638.063149	3.830005	7.336607	-0.110971	-1.149825	0.600255
1.320	3.717729	0.632537	638.029671	3.875261	7.340706	-0.110132	-1.150527	0.607379
1.330	3.762575	0.646574	637.948881	3.926279	7.341499	-0.107947	-1.150797	0.615454
1.340	3.802606	0.658421	637.846566	3.981444	7.336799	-0.104742	-1.150245	0.624201
1.350	3.831566	0.670863	637.759024	4.038382	7.325013	-0.100811	-1.148555	0.633214
1.360	3.845591	0.687237	637.721390	4.094714	7.305710	-0.096458	-1.145596	0.642085
1.370	3.843741	0.710328	637.755685	4.148596	7.279994	-0.092120	-1.141502	0.650499
1.380	3.828144	0.741539	637.863220	4.198912	7.250396	-0.088434	-1.136669	0.658278
1.390	3.803604	0.780475	638.024004	4.245233	7.220213	-0.086114	-1.131652	0.665372
1.400	3.776756	0.824915	638.202721	4.287741	7.192475	-0.085697	-1.126989	0.671846
1.410	3.754919	0.871208	638.358919	4.327133	7.168945	-0.087327	-1.123027	0.677853
1.420	3.744627	0.915082	638.458462	4.364371	7.149568	-0.090702	-1.119817	0.683580
1.430	3.749865	0.952785	638.482993	4.400257	7.132671	-0.095138	-1.117128	0.689174
1.440	3.770521	0.982233	638.434172	4.435000	7.115873	-0.099710	-1.114582	0.694668
1.450	3.802017	1.003521	638.331117	4.468107	7.097314	-0.103455	-1.111855	0.699967
1.460	3.836612	1.018304	638.202631	4.498727	7.076607	-0.105639	-1.108834	0.704906
1.470	3.866023	1.028319	638.077922	4.526297	7.055008	-0.106015	-1.105666	0.709364
1.480	3.884311	1.034187	637.979444	4.551106	7.034719	-0.104913	-1.102656	0.713362
1.490	3.889993	1.035586	637.919823	4.574488	7.017705	-0.103108	-1.100092	0.717094
1.500	3.886522	1.032757	637.902770	4.598550	7.004643	-0.101514	-1.098074	0.720886
1.510	3.880767	1.028003	637.925729	4.625529	6.994536	-0.100872	-1.096450	0.725089
1.520	3.879927	1.025746	637.981187	4.656967	6.985115	-0.101565	-1.094878	0.729954
1.530	3.888279	1.030817	638.055127	4.693000	6.973706	-0.103589	-1.092963	0.735516
1.540	3.905441	1.046014	638.124409	4.732019	6.958049	-0.106613	-1.090391	0.741551
1.550	3.926893	1.070350	638.157250	4.770904	6.936725	-0.110077	-1.086993	0.747606
1.560	3.946188	1.098951	638.120420	4.805895	6.909223	-0.113309	-1.082746	0.753133
1.570	3.957431	1.124694	637.992946	4.833884	6.875847	-0.115680	-1.077731	0.757671
1.580	3.956966	1.141020	637.780519	4.853697	6.837591	-0.116809	-1.072092	0.761029
1.590	3.944062	1.144780	637.521598	4.866784	6.795923	-0.116711	-1.065991	0.763391
1.600	3.920903	1.137854	637.279131	4.877008	6.752435	-0.115796	-1.059573	0.765286
1.610	3.892080	1.126511	637.119828	4.889581	6.708422	-0.114675	-1.052929	0.767451
1.620	3.863504	1.118579	637.090298	4.909462	6.664583	-0.113878	-1.046097	0.770607
1.630	3.840893	1.119710	637.201012	4.939797	6.620946	-0.113633	-1.039067	0.775234
1.640	3.828323	1.130682	637.424679	4.980981	6.577020	-0.113799	-1.031811	0.781423
1.650	3.827461	1.147098	637.708388	5.030726	6.532046	-0.113943	-1.024300	0.788876
1.660	3.837752	1.161567	637.992793	5.085033	6.485210	-0.113517	-1.016502	0.797036
1.670	3.857403	1.167224	638.229594	5.139558	6.435732	-0.112098	-1.008373	0.805283
1.680	3.884656	1.160861	638.391111	5.190794	6.382786	-0.109617	-0.999824	0.813106
1.690	3.918713	1.144323	638.470438	5.236692	6.325387	-0.106518	-0.990709	0.820193
1.700	3.959863	1.123720	638.474705	5.276716	6.262450	-0.103764	-0.980845	0.826457
1.710	4.008850	1.107101	638.416112	5.311592	6.193099	-0.102623	-0.970073	0.831995
1.720	4.065984	1.101821	638.305466	5.342977	6.117047	-0.104230	-0.958326	0.837056
1.730	4.130500	1.112614	638.151000	5.373133	6.034729	-0.109074	-0.945658	0.841985
1.740	4.200408	1.140675	637.961684	5.404598	5.947060	-0.116727	-0.932197	0.847167
1.750	4.272820	1.183725	637.751427	5.439872	5.855021	-0.125968	-0.918073	0.852977
1.760	4.344583	1.236939	637.540822	5.481151	5.759400	-0.135248	-0.903377	0.859733
1.770	4.412953	1.294618	637.355515	5.530027	5.660824	-0.143219	-0.888174	0.867652
1.780	4.476160	1.352159	637.222178	5.587070	5.559977	-0.149093	-0.872534	0.876785
1.790	4.533978	1.407504	637.163237	5.651328	5.457877	-0.152752	-0.856590	0.886951
1.800	4.588300	1.461215	637.191701	5.720039	5.356128	-0.154593	-0.840583	0.897695
1.810	4.643298	1.514934	637.308246	5.788909	5.256998	-0.155234	-0.824875	0.908337
1.820	4.704627	1.569042	637.502187	5.853101	5.163100	-0.155217	-0.809895	0.918130
1.830	4.777695	1.621047	637.755241	5.908646	5.076615	-0.154889	-0.796013	0.926476
1.840	4.865581	1.665865	638.044727	5.953639	4.998465	-0.154469	-0.783404	0.933107
1.850	4.967324	1.698028	638.344039	5.988604	4.928060	-0.154200	-0.772007	0.938147
1.860	5.077158	1.714559	638.621940	6.015900	4.863984	-0.154454	-0.761638	0.942013
1.870	5.185196	1.716888	638.844136	6.038555	4.805317	-0.155707	-0.752189	0.945231
1.880	5.279735	1.710730	638.978977	6.059096	4.752812	-0.158380	-0.743814	0.948247
1.890	5.350607	1.703998	639.005932	6.078823	4.709242	-0.162627	-0.736964	0.951294
1.900	5.392181	1.703749	638.923290	6.097627	4.678630	-0.168193	-0.732268	0.954360
1.910	5.404693	1.713559	638.751256	6.114206	4.664702	-0.174458	-0.730285	0.957212
1.920	5.393590	1.732437	638.527917	6.126482	4.669272	-0.180602	-0.731256	0.959470
1.930	5.367549	1.755611	638.298443	6.132073	4.691380	-0.185759	-0.734982	0.960691
1.940	5.336159	1.776666	638.101080	6.128870	4.727648	-0.189079	-0.740893	0.960486
1.950	5.307922	1.790012	637.955683	6.115744	4.773702	-0.189736	-0.748281	0.958647
1.960	5.288734	1.792703	637.860050	6.093230	4.825959	-0.187001	-0.756586	0.955261
1.970	5.280642	1.785151	637.795999	6.063853	4.882854	-0.180429	-0.765582	0.950751
1.980	5.280828	1.770734	637.742279	6.031765	4.945012	-0.170105	-0.775394	0.945800
1.990	5.281233	1.754571	637.687968	6.001620	5.014524	-0.156812	-0.786360	0.941153
2.000	5.269493	1.741886	637.639540	5.977066	5.093884	-0.142035	-0.798866	0.937374
2.010	5.231515	1.736446	637.617576	5.959558	5.185100	-0.127747	-0.813199	0.934660
2.020	5.155333	1.739571	637.644403	5.948084	5.289118	-0.115996	-0.829478	0.932821
2.030	5.035165	1.749995	637.729317	5.939863	5.405494	-0.108375	-0.847616	0.931408
2.040	4.874241	1.764599	637.859672	5.931557	5.532285	-0.105536	-0.867320	0.929916
2.050	4.685193	1.779619	638.002542	5.920333	5.666236	-0.106979	-0.888121	0.927948
2.060	4.487625	1.791763	638.115771	5.904425	5.803318	-0.111257	-0.909446	0.925291
2.070	4.303447	1.798753	638.163133	5.883168	5.939519	-0.116515	-0.930721	0.921891
2.080	4.151253	1.799232	638.127496	5.856748	6.071684	-0.121141	-0.951485	0.917802
2.090	4.041318	1.792341	638.017252	5.825833	6.198184	-0.124204	-0.971476	0.913115
2.100	3.972737	1.777462	637.863469	5.791178	6.319268	-0.125512	-0.990693	0.907902
2.110	3.933867	1.754366	637.708391	5.753308	6.436986	-0.125318	-1.009393	0.902185
2.120	3.906191	1.723560	637.589603	5.712463	6.554640	-0.123954	-1.028034	0.895947
2.130	3.870399	1.686404	637.526586	5.668862	6.675843	-0.121644	-1.047147	0.889196
2.140	3.812438	1.644826	637.515720	5.623112	6.803393	-0.118579	-1.067173	0.882035
2.150	3.727347	1.600922	637.535798	5.576448	6.938290	-0.115055	-1.088298	0.874688
2.160	3.619795	1.556901	637.560564	5.530608	7.079195	-0.111475	-1.110357	0.867464
2.170	3.501556	1.515415	637.571213	5.487447	7.222486	-0.108187	-1.132812	0.860680
2.180	3.387108	1.479755	637.562771	5.448535	7.362860	-0.105285	-1.154845	0.854588
2.190	3.288947	1.453239	637.542758	5.414913	7.494334	-0.102584	-1.175503	0.849341
2.200	3.214218	1.437856	637.524716	5.386903	7.611426	-0.099825	-1.193903	0.844972
2.210	3.163594	1.432979	637.520764	5.363840	7.710271	-0.097047	-1.209415	0.841359
2.220	3.132249	1.435019	637.536465	5.343868	7.789362	-0.094858	-1.221791	0.838206
2.230	3.112000	1.438242	637.569472	5.324160	7.849686	-0.094345	-1.231189	0.835071
2.240	3.093702	1.436368	637.611468	5.301778	7.894220	-0.096524	-1.238092	0.831506
2.250	3.069446	1.424297	637.651546	5.274899	7.927039	-0.101605	-1.243162	0.827239
2.260	3.034467	1.399376	637.679227	5.243735	7.952426	-0.108529	-1.247089	0.822316
2.270	2.988407	1.361859	637.686727	5.210533	7.974205	-0.115129	-1.250489	0.817099
2.280	2.935341	1.314534	637.670989	5.178578	7.995288	-0.118933	-1.253827	0.812108
2.290	2.882266	1.261763	637.635423	5.150690	8.017300	-0.118226	-1.257349	0.807780
2.300	2.836754	1.208346	637.590110	5.127988	8.040249	-0.112852	-1.261037	0.804277
2.310	2.805097	1.158544	637.549400	5.109467	8.062450	-0.104339	-1.264600	0.801423
2.320	2.791662	1.115300	637.527659	5.092508	8.080872	-0.095291	-1.267533	0.798790
2.330	2.798998	1.079573	637.535445	5.073966	8.091951	-0.088329	-1.269255	0.795872
2.340	2.827777	1.049978	637.577980	5.051300	8.092691	-0.085063	-1.269287	0.792264
2.350	2.876245	1.023116	637.655787	5.023264	8.081692	-0.085500	-1.267407	0.787770
2.360	2.939797	0.994770	637.765936	4.989979	8.059723	-0.088093	-1.263743	0.782415
2.370	3.011449	0.961660	637.902362	4.952488	8.029593	-0.090362	-1.258750	0.776371
2.380	3.083464	0.923009	638.054957	4.912179	7.995368	-0.089877	-1.253085	0.769868
2.390	3.149518	0.881135	638.208501	4.870454	7.961291	-0.085282	-1.247444	0.763145
2.400	3.206312	0.840712	638.343178	4.828743	7.930784	-0.076942	-1.242401	0.756449
2.410	3.253843	0.807017	638.437848	4.788669	7.905785	-0.066926	-1.238301	0.750060
2.420	3.294440	0.783973	638.475489	4.752037	7.886520	-0.058275	-1.235211	0.744279
