Time[s]	Fx[N]	Fy[N]	Fz[N]	Mx[Nm]	My[Nm]	Mz[Nm]	COPx[cm]	COPy[cm]
0.010	1.010432	-2.319488	559.879239	-7.160533	-4.533658	0.718613	0.809756	-1.278942
0.020	1.061145	-2.333664	559.440851	-7.130148	-4.497455	0.703622	0.803920	-1.274513
0.030	1.101148	-2.341556	558.994615	-7.104229	-4.460648	0.690919	0.797977	-1.270894
0.040	1.121439	-2.340110	558.549476	-7.086064	-4.422691	0.682239	0.791817	-1.268655
0.050	1.116135	-2.330428	558.139528	-7.076809	-4.383441	0.678307	0.785367	-1.267928
0.060	1.084467	-2.316325	557.819130	-7.075676	-4.343703	0.678756	0.778694	-1.268453
0.070	1.032307	-2.301623	557.646464	-7.080559	-4.305899	0.682414	0.772156	-1.269722
0.080	0.972065	-2.288043	557.662875	-7.088526	-4.274364	0.687824	0.766478	-1.271113
0.090	0.920345	-2.274848	557.876762	-7.096079	-4.254930	0.693790	0.762701	-1.271980
0.100	0.893872	-2.260189	558.257751	-7.099482	-4.253876	0.699737	0.761991	-1.271721
0.110	0.905203	-2.243026	558.742066	-7.095533	-4.276740	0.705749	0.765423	-1.269912
0.120	0.960180	-2.224330	559.246280	-7.082672	-4.327553	0.712350	0.773819	-1.266467
0.130	1.058294	-2.206942	559.684965	-7.061899	-4.408735	0.720188	0.787717	-1.261763
0.140	1.195452	-2.194509	559.987771	-7.036856	-4.521438	0.729828	0.807417	-1.256609
0.150	1.367066	-2.190300	560.112580	-7.012855	-4.665833	0.741685	0.833017	-1.252044
0.160	1.569542	-2.196273	560.052780	-6.995254	-4.840929	0.755999	0.864370	-1.249035
0.170	1.799727	-2.212263	559.837890	-6.987889	-5.043981	0.772759	0.900972	-1.248199
0.180	2.053398	-2.235365	559.527631	-6.992147	-5.269947	0.791556	0.941857	-1.249652
0.190	2.324244	-2.260016	559.200115	-7.006971	-5.511517	0.811490	0.985607	-1.253035
0.200	2.604146	-2.279359	558.935599	-7.029684	-5.759954	0.831211	1.030522	-1.257691
0.210	2.884569	-2.287693	558.798555	-7.057077	-6.006572	0.849133	1.074908	-1.262902
0.220	3.158194	-2.282972	558.822316	-7.086123	-6.244356	0.863779	1.117414	-1.268046
0.230	3.419949	-2.267905	559.000804	-7.114080	-6.469108	0.874163	1.157263	-1.272642
0.240	3.667206	-2.248791	559.290352	-7.138273	-6.679672	0.880111	1.194312	-1.276309
0.250	3.899427	-2.232382	559.621714	-7.156062	-6.877206	0.882381	1.228903	-1.278732
0.260	4.117598	-2.222240	559.918854	-7.165216	-7.063850	0.882479	1.261585	-1.279688
0.270	4.323411	-2.216496	560.118289	-7.164529	-7.241351	0.882216	1.292825	-1.279110
0.280	4.517976	-2.208340	560.182614	-7.154336	-7.410057	0.883181	1.322793	-1.277143
0.290	4.700104	-2.189198	560.104946	-7.136527	-7.568500	0.886369	1.351265	-1.274141
0.300	4.864779	-2.153066	559.905074	-7.113970	-7.713476	0.892071	1.377640	-1.270567
0.310	5.002859	-2.099764	559.620465	-7.089594	-7.840380	0.899913	1.401017	-1.266857
0.320	5.102736	-2.035449	559.295734	-7.065664	-7.943572	0.908944	1.420281	-1.263314
0.330	5.153707	-1.970289	558.973804	-7.043604	-8.016807	0.917766	1.434201	-1.260096
0.340	5.149758	-1.914631	558.690994	-7.024287	-8.053948	0.924779	1.441575	-1.257276
0.350	5.092006	-1.875458	558.476217	-7.008479	-8.050172	0.928582	1.441453	-1.254929
0.360	4.988572	-1.854387	558.351883	-6.997112	-8.003519	0.928404	1.433419	-1.253173
0.370	4.851940	-1.847813	558.333021	-6.991288	-7.916212	0.924346	1.417830	-1.252172
0.380	4.695186	-1.849139	558.422979	-6.992018	-7.795026	0.917281	1.395900	-1.252101
0.390	4.529104	-1.852171	558.607966	-6.999808	-7.650284	0.908467	1.369526	-1.253081
0.400	4.361541	-1.853910	558.855041	-7.014170	-7.493750	0.899116	1.340911	-1.255097
0.410	4.198777	-1.855226	559.117078	-7.033240	-7.336251	0.890096	1.312114	-1.257919
0.420	4.047340	-1.859335	559.344551	-7.053750	-7.185903	0.881841	1.284701	-1.261074
0.430	3.914506	-1.869399	559.499987	-7.071506	-7.047356	0.874372	1.259581	-1.263897
0.440	3.806692	-1.886781	559.568561	-7.082331	-6.921886	0.867384	1.237004	-1.265677
0.450	3.726354	-1.910694	559.559409	-7.083251	-6.807956	0.860390	1.216664	-1.265862
0.460	3.669039	-1.939034	559.497086	-7.073676	-6.701921	0.852880	1.197847	-1.264292
0.470	3.622556	-1.969678	559.408439	-7.056173	-6.598849	0.844470	1.179612	-1.261363
0.480	3.569591	-2.001501	559.312773	-7.036377	-6.493505	0.834975	1.160979	-1.258040
0.490	3.493478	-2.034724	559.220226	-7.021748	-6.381549	0.824398	1.141151	-1.255632
0.500	3.384956	-2.070579	559.137000	-7.019444	-6.260736	0.812878	1.119714	-1.255407
0.510	3.246702	-2.110470	559.071459	-7.034101	-6.131732	0.800645	1.096771	-1.258176
0.520	3.093259	-2.154938	559.035379	-7.066461	-5.998027	0.788021	1.072924	-1.264045
0.530	2.946083	-2.202917	559.039090	-7.113445	-5.864778	0.775472	1.049082	-1.272441
0.540	2.825819	-2.251845	559.083968	-7.169617	-5.736981	0.763697	1.026139	-1.282387
0.550	2.745022	-2.298786	559.157965	-7.229329	-5.617792	0.753684	1.004688	-1.292896
0.560	2.704166	-2.341971	559.237942	-7.288542	-5.507714	0.746612	0.984861	-1.303299
0.570	2.692236	-2.381727	559.297801	-7.345551	-5.404826	0.743465	0.966359	-1.313352
0.580	2.691322	-2.420151	559.317505	-7.400527	-5.305702	0.744459	0.948603	-1.323135
0.590	2.683222	-2.459769	559.288584	-7.454421	-5.206537	0.748637	0.930921	-1.332840
0.600	2.655459	-2.502073	559.215192	-7.507919	-5.104080	0.754019	0.912722	-1.342581
0.610	2.604539	-2.546653	559.112301	-7.560864	-4.996158	0.758353	0.893588	-1.352298
0.620	2.535458	-2.591222	559.002447	-7.612242	-4.881766	0.760087	0.873300	-1.361755
0.630	2.458171	-2.632409	558.911252	-7.660550	-4.760838	0.758946	0.851806	-1.370620
0.640	2.382920	-2.667057	558.861447	-7.704392	-4.633913	0.755830	0.829170	-1.378587
0.650	2.316441	-2.693665	558.866284	-7.743177	-4.501876	0.752115	0.805537	-1.385515
0.660	2.260080	-2.713596	558.924819	-7.777737	-4.365806	0.748834	0.781108	-1.391553
0.670	2.209873	-2.731537	559.021610	-7.810526	-4.226844	0.746164	0.756115	-1.397178
0.680	2.158067	-2.754638	559.131236	-7.845160	-4.086061	0.743436	0.730787	-1.403098
0.690	2.095576	-2.790291	559.225472	-7.885407	-3.944378	0.739603	0.705329	-1.410059
0.700	2.014925	-2.843405	559.280243	-7.934036	-3.802527	0.733907	0.679897	-1.418615
0.710	1.912961	-2.914560	559.280813	-7.991896	-3.661005	0.726407	0.654592	-1.428959
0.720	1.792171	-2.999908	559.224973	-8.057408	-3.519955	0.718073	0.629435	-1.440817
0.730	1.659648	-3.092574	559.124213	-8.126563	-3.379029	0.710395	0.604343	-1.453445
0.740	1.524009	-3.184541	559.002608	-8.193569	-3.237313	0.704741	0.579123	-1.465748
0.750	1.392030	-3.268119	558.893158	-8.252191	-3.093480	0.701824	0.553501	-1.476524
0.760	1.266963	-3.336855	558.831169	-8.297517	-2.946273	0.701503	0.527221	-1.484799
0.770	1.149212	-3.386256	558.844824	-8.327588	-2.795296	0.702914	0.500192	-1.490143
0.780	1.038370	-3.414555	558.945073	-8.344266	-2.641768	0.704818	0.472635	-1.492860
0.790	0.934853	-3.423295	559.118852	-8.352831	-2.488707	0.706008	0.445112	-1.493928
0.800	0.839863	-3.417214	559.329244	-8.360204	-2.340176	0.705687	0.418390	-1.494684
0.810	0.753646	-3.403224	559.523709	-8.372351	-2.199812	0.703662	0.393158	-1.496335
0.820	0.673216	-3.388676	559.648343	-8.391914	-2.069309	0.700348	0.369752	-1.499498
0.830	0.591322	-3.379436	559.663311	-8.417173	-1.947673	0.696562	0.348008	-1.503971
0.840	0.498005	-3.378341	559.553581	-8.442751	-1.831691	0.693212	0.327349	-1.508837
0.850	0.384650	-3.384441	559.331644	-8.461615	-1.717436	0.690973	0.307052	-1.512808
0.860	0.248762	-3.393088	559.033219	-8.467390	-1.602097	0.690102	0.286583	-1.514649
0.870	0.096907	-3.396823	558.709521	-8.456087	-1.485320	0.690479	0.265848	-1.513503
0.880	-0.056008	-3.387134	558.418529	-8.426911	-1.369590	0.691830	0.245262	-1.509067
0.890	-0.191061	-3.357089	558.215379	-8.382247	-1.259666	0.693934	0.225659	-1.501615
0.900	-0.291396	-3.304278	558.142040	-8.327066	-1.161458	0.696666	0.208094	-1.491926
0.910	-0.347464	-3.232755	558.218370	-8.267831	-1.080749	0.699872	0.193607	-1.481110
0.920	-0.359482	-3.152748	558.437430	-8.210951	-1.022018	0.703261	0.183014	-1.470344
0.930	-0.336536	-3.077861	558.766374	-8.161102	-0.987501	0.706455	0.176729	-1.460557
0.940	-0.293025	-3.020868	559.152538	-8.119975	-0.976655	0.709202	0.174667	-1.452193
0.950	-0.243787	-2.989867	559.533561	-8.085966	-0.986255	0.711555	0.176264	-1.445126
0.960	-0.199477	-2.986242	559.849879	-8.054920	-1.011232	0.713854	0.180626	-1.438764
0.970	-0.163811	-3.004827	560.056986	-8.021582	-1.046083	0.716482	0.186782	-1.432280
0.980	-0.133776	-3.035779	560.134276	-7.981235	-1.086324	0.719523	0.193940	-1.424879
0.990	-0.102797	-3.067341	560.087797	-7.931003	-1.129450	0.722562	0.201656	-1.416029
1.000	-0.065425	-3.088787	559.946116	-7.870438	-1.175102	0.724761	0.209860	-1.405571
1.010	-0.021317	-3.092978	559.750885	-7.801169	-1.224499	0.725231	0.218758	-1.393686
1.020	0.023462	-3.077892	559.545667	-7.725800	-1.279520	0.723532	0.228671	-1.380727
1.030	0.058438	-3.046525	559.367052	-7.646695	-1.341933	0.720049	0.239902	-1.367026
1.040	0.073217	-3.004981	559.240142	-7.565333	-1.413104	0.715995	0.252683	-1.352788
1.050	0.062697	-2.959456	559.177462	-7.482465	-1.494244	0.712983	0.267222	-1.338120
1.060	0.030958	-2.913666	559.179016	-7.398665	-1.586988	0.712346	0.283807	-1.323130
1.070	-0.007859	-2.868210	559.232915	-7.314746	-1.693967	0.714567	0.302909	-1.307996
1.080	-0.032325	-2.822088	559.317923	-7.231812	-1.819012	0.719122	0.325220	-1.292970
1.090	-0.019272	-2.775151	559.408514	-7.151071	-1.966783	0.724790	0.351583	-1.278327
1.100	0.049779	-2.729813	559.480738	-7.073558	-2.141919	0.730277	0.382840	-1.264308
1.110	0.183416	-2.691006	559.516856	-6.999783	-2.348019	0.734845	0.419651	-1.251041
1.120	0.378009	-2.664396	559.508358	-6.929279	-2.586817	0.738634	0.462337	-1.238459
1.130	0.619090	-2.653706	559.458006	-6.860256	-2.857768	0.742493	0.510810	-1.226233
1.140	0.885955	-2.658427	559.380393	-6.789728	-3.158098	0.747395	0.564571	-1.213794
1.150	1.157658	-2.672988	559.299464	-6.714361	-3.483330	0.753766	0.622802	-1.200495
1.160	1.418129	-2.687893	559.242452	-6.631831	-3.828257	0.761149	0.684543	-1.185860
1.170	1.658939	-2.692524	559.231991	-6.541974	-4.188142	0.768441	0.748910	-1.169814
1.180	1.879578	-2.678500	559.279134	-6.447003	-4.559645	0.774586	0.815272	-1.152734
1.190	2.085999	-2.642028	559.379034	-6.350482	-4.941050	0.779301	0.883310	-1.135274
1.200	2.288307	-2.584203	559.510172	-6.255562	-5.331694	0.783419	0.952922	-1.118043
1.210	2.498230	-2.509437	559.638216	-6.163409	-5.730928	0.788657	1.024042	-1.101320
1.220	2.726655	-2.423220	559.725040	-6.072642	-6.137173	0.796938	1.096462	-1.084933
1.230	2.981283	-2.330446	559.740649	-5.979975	-6.547525	0.809558	1.169743	-1.068347
1.240	3.264566	-2.234804	559.672966	-5.881653	-6.958057	0.826541	1.243236	-1.050909
1.250	3.572475	-2.139037	559.530826	-5.774946	-7.364586	0.846469	1.316207	-1.032105
1.260	3.894790	-2.045481	559.339377	-5.659079	-7.763451	0.866874	1.387968	-1.011743
1.270	4.217082	-1.956261	559.131268	-5.535375	-8.151903	0.885066	1.457959	-0.989996
1.280	4.523841	-1.872954	558.938452	-5.406802	-8.528024	0.899054	1.525754	-0.967334
1.290	4.801676	-1.796164	558.787716	-5.277212	-8.890306	0.908121	1.590999	-0.944404
1.300	5.041636	-1.725589	558.699684	-5.150489	-9.237183	0.912818	1.653336	-0.921871
1.310	5.240156	-1.660634	558.688551	-5.029796	-9.566732	0.914411	1.712355	-0.900286
1.320	5.398717	-1.601014	558.759890	-4.917138	-9.876747	0.914130	1.767619	-0.880009
1.330	5.522754	-1.546855	558.906339	-4.813306	-10.165298	0.912605	1.818784	-0.861201
1.340	5.620434	-1.498336	559.104185	-4.718044	-10.431722	0.909701	1.865792	-0.843858
1.350	5.701687	-1.455231	559.314877	-4.630207	-10.677572	0.904735	1.909045	-0.827836
1.360	5.777232	-1.416627	559.493129	-4.547918	-10.906831	0.896903	1.949413	-0.812864
1.370	5.857064	-1.380892	559.599183	-4.468910	-11.124873	0.885756	1.988007	-0.798591
1.380	5.948271	-1.345915	559.610257	-4.391187	-11.336342	0.871585	2.025757	-0.784687
1.390	6.053025	-1.309719	559.526663	-4.313765	-11.542893	0.855588	2.062975	-0.770967
1.400	6.168000	-1.271339	559.370711	-4.237098	-11.741934	0.839722	2.099133	-0.757476
1.410	6.285658	-1.231508	559.179192	-4.162795	-11.927054	0.826219	2.132957	-0.744447
1.420	6.396650	-1.192580	558.992250	-4.092716	-12.089916	0.816902	2.162806	-0.732160
1.430	6.492052	-1.157568	558.842594	-4.027914	-12.222775	0.812628	2.187159	-0.720760
1.440	6.564796	-1.128756	558.748863	-3.968071	-12.320661	0.813126	2.205045	-0.710171
1.450	6.610362	-1.106591	558.714700	-3.911703	-12.382632	0.817297	2.216271	-0.700125
1.460	6.627055	-1.089293	558.732027	-3.857002	-12.411838	0.823790	2.221429	-0.690313
1.470	6.616039	-1.073233	558.785868	-3.802855	-12.414502	0.831526	2.221692	-0.680557
1.480	6.581066	-1.053977	558.859466	-3.749626	-12.398100	0.839958	2.218465	-0.670943
1.490	6.527772	-1.027825	558.939470	-3.699414	-12.369258	0.849002	2.212987	-0.661863
1.500	6.462493	-0.993452	559.019765	-3.655654	-12.332036	0.858783	2.206011	-0.653940
1.510	6.390821	-0.952993	559.101344	-3.622050	-12.287161	0.869337	2.197663	-0.647834
1.520	6.316315	-0.911981	559.187376	-3.601095	-12.232460	0.880361	2.187542	-0.643987
1.530	6.239883	-0.877934	559.276525	-3.592784	-12.164188	0.891081	2.174986	-0.642399
1.540	6.160128	-0.857991	559.359564	-3.594319	-12.078667	0.900349	2.159374	-0.642578
1.550	6.074467	-0.856492	559.421892	-3.601098	-11.973635	0.906973	2.140359	-0.643718
1.560	5.980348	-0.873509	559.450044	-3.608527	-11.848926	0.910134	2.117960	-0.645013
1.570	5.875960	-0.904983	559.437771	-3.613711	-11.706433	0.909695	2.092535	-0.645954
1.580	5.760337	-0.944393	559.388340	-3.616268	-11.549544	0.906279	2.064674	-0.646468
1.590	5.633156	-0.985199	559.313064	-3.618031	-11.382269	0.901180	2.035044	-0.646870
1.600	5.494554	-1.022989	559.228724	-3.621952	-11.208294	0.896181	2.004242	-0.647669
1.610	5.345186	-1.056438	559.156177	-3.630782	-11.030222	0.893295	1.972655	-0.649332
1.620	5.186581	-1.086816	559.118990	-3.646068	-10.849240	0.894371	1.940417	-0.652110
1.630	5.021792	-1.116562	559.138589	-3.667803	-10.665385	0.900593	1.907467	-0.655974
1.640	4.855947	-1.147786	559.224623	-3.694732	-10.478336	0.912025	1.873726	-0.660688
1.650	4.696109	-1.181250	559.364488	-3.725082	-10.288341	0.927460	1.839291	-0.665949
1.660	4.549967	-1.215959	559.519326	-3.757321	-10.096704	0.944679	1.804532	-0.671527
1.670	4.423431	-1.249431	559.632149	-3.790576	-9.905527	0.961021	1.770007	-0.677333
1.680	4.318011	-1.278797	559.647427	-3.824514	-9.716856	0.974034	1.736246	-0.683379
1.690	4.229250	-1.302395	559.534318	-3.858826	-9.531717	0.981992	1.703509	-0.689650
1.700	4.147259	-1.320875	559.302603	-3.892698	-9.349455	0.984230	1.671627	-0.695991
1.710	4.059376	-1.336765	559.003813	-3.924714	-9.167535	0.981262	1.639977	-0.702091
1.720	3.953881	-1.352507	558.717010	-3.953353	-8.981880	0.974612	1.607590	-0.707577
1.730	3.823152	-1.368293	558.524685	-3.977843	-8.787826	0.966316	1.573400	-0.712205
1.740	3.665231	-1.381464	558.487397	-3.998836	-8.581576	0.958227	1.536575	-0.716012
1.750	3.483705	-1.388159	558.626159	-4.018414	-8.361746	0.951420	1.496841	-0.719339
1.760	3.286483	-1.386186	558.918468	-4.039312	-8.130424	0.945943	1.454671	-0.722702
1.770	3.084102	-1.377125	559.308138	-4.063790	-7.893275	0.941047	1.411257	-0.726574
1.780	2.887966	-1.366199	559.723445	-4.092826	-7.658642	0.935756	1.368290	-0.731223
1.790	2.708694	-1.359954	560.095686	-4.125976	-7.435856	0.929515	1.327605	-0.736656
1.800	2.554735	-1.363061	560.371600	-4.161747	-7.233203	0.922562	1.290787	-0.742676
1.810	2.431374	-1.376065	560.517418	-4.198096	-7.056080	0.915822	1.258851	-0.748968
1.820	2.340122	-1.395301	560.517302	-4.232916	-6.905902	0.910347	1.232059	-0.755180
1.830	2.278331	-1.414985	560.371208	-4.264517	-6.780088	0.906625	1.209928	-0.761016
1.840	2.239061	-1.430250	560.095457	-4.292083	-6.673060	0.904199	1.191415	-0.766313
1.850	2.211564	-1.439472	559.725112	-4.315930	-6.577873	0.901854	1.175197	-0.771080
1.860	2.182863	-1.444696	559.314389	-4.337395	-6.487959	0.898189	1.159984	-0.775484
1.870	2.140489	-1.450115	558.931211	-4.358415	-6.398537	0.892185	1.144781	-0.779777
1.880	2.075784	-1.459591	558.644296	-4.381023	-6.307337	0.883466	1.129044	-0.784224
1.890	1.986621	-1.474621	558.505063	-4.407060	-6.214555	0.872245	1.112712	-0.789082
1.900	1.878474	-1.493747	558.530930	-4.438170	-6.122232	0.859128	1.096131	-0.794615
1.910	1.763283	-1.513603	558.698241	-4.475853	-6.033366	0.844940	1.079897	-0.801122
1.920	1.656413	-1.530990	558.949475	-4.521273	-5.950977	0.830603	1.064672	-0.808888
1.930	1.572610	-1.544802	559.212148	-4.574754	-5.877288	0.817021	1.050994	-0.818071
1.940	1.522142	-1.556660	559.420862	-4.635221	-5.813150	0.804928	1.039137	-0.828575
1.950	1.508163	-1.569934	559.533451	-4.699921	-5.757831	0.794753	1.029041	-0.839971
1.960	1.525913	-1.587898	559.536813	-4.764758	-5.709256	0.786602	1.020354	-0.851554
1.970	1.563800	-1.612257	559.443885	-4.825351	-5.664670	0.780386	1.012554	-0.862526
1.980	1.606184	-1.642831	559.286203	-4.878524	-5.621608	0.775985	1.005140	-0.872277
1.990	1.637396	-1.678275	559.105678	-4.923531	-5.578822	0.773318	0.997812	-0.880608
2.000	1.646149	-1.717157	558.946788	-4.962324	-5.536705	0.772242	0.990560	-0.887799
2.010	1.629024	-1.758658	558.848837	-4.998693	-5.496928	0.772362	0.983616	-0.894462
2.020	1.591684	-1.802540	558.838041	-5.036763	-5.461498	0.772891	0.977295	-0.901292
2.030	1.547087	-1.848516	558.920261	-5.079625	-5.431821	0.772754	0.971842	-0.908828
2.040	1.511030	-1.895500	559.076521	-5.128748	-5.408317	0.770953	0.967366	-0.917361
2.050	1.496573	-1.941152	559.264504	-5.184269	-5.390637	0.767004	0.963880	-0.926980
2.060	1.509543	-1.981945	559.428427	-5.245733	-5.378033	0.761129	0.961344	-0.937695
2.070	1.546745	-2.013880	559.516330	-5.312611	-5.369428	0.754019	0.959655	-0.949501
2.080	1.597033	-2.033856	559.498987	-5.384173	-5.363141	0.746348	0.958561	-0.962320
2.090	1.644319	-2.041226	559.381980	-5.458906	-5.356671	0.738405	0.957605	-0.975882
2.100	1.671606	-2.038642	559.204549	-5.534039	-5.346961	0.730143	0.956173	-0.989627
2.110	1.665362	-2.031563	559.025312	-5.605791	-5.331217	0.721599	0.953663	-1.002779
2.120	1.619457	-2.026606	558.901450	-5.670449	-5.307974	0.713332	0.949716	-1.014570
2.130	1.537551	-2.029578	558.870290	-5.725900	-5.277972	0.706474	0.944400	-1.024549
2.140	1.432952	-2.044085	558.939784	-5.772804	-5.244521	0.702291	0.938298	-1.032813
2.150	1.325544	-2.071134	559.089753	-5.814732	-5.213154	0.701470	0.932436	-1.040036
2.160	1.236310	-2.109631	559.281621	-5.857035	-5.190630	0.703636	0.928089	-1.047243
2.170	1.181144	-2.157370	559.471692	-5.904904	-5.183569	0.707431	0.926511	-1.055443
2.180	1.166416	-2.211897	559.622596	-5.961496	-5.197076	0.711123	0.928675	-1.065271
2.190	1.188152	-2.270767	559.709655	-6.026973	-5.233697	0.713402	0.935074	-1.076803
2.200	1.234966	-2.331127	559.722411	-6.098791	-5.293052	0.713889	0.945657	-1.089610
2.210	1.293112	-2.389135	559.663518	-6.173020	-5.372338	0.713164	0.959923	-1.102988
2.220	1.351492	-2.439899	559.546381	-6.246023	-5.467583	0.712390	0.977146	-1.116265
2.230	1.405139	-2.478420	559.391589	-6.315847	-5.575138	0.712839	0.996643	-1.129056
2.240	1.456606	-2.501452	559.222446	-6.382869	-5.692829	0.715617	1.017990	-1.141383
2.250	1.515251	-2.509574	559.060764	-6.449580	-5.820429	0.721601	1.041108	-1.153646
2.260	1.594650	-2.508399	558.924101	-6.519631	-5.959456	0.731470	1.066237	-1.166461
2.270	1.708601	-2.507946	558.825056	-6.596464	-6.112418	0.745635	1.093798	-1.180417
2.280	1.866628	-2.519818	558.772287	-6.681979	-6.281708	0.764026	1.124198	-1.195832
2.290	2.070299	-2.553001	558.771575	-6.775737	-6.468398	0.785871	1.157610	-1.212613
2.300	2.311760	-2.610183	558.824715	-6.875062	-6.671323	0.809671	1.193813	-1.230272
2.310	2.575355	-2.686451	558.925920	-6.975953	-6.886858	0.833512	1.232159	-1.248100
2.320	2.841930	-2.771041	559.058585	-7.074259	-7.109598	0.855623	1.271709	-1.265388
2.330	3.094245	-2.851195	559.196126	-7.166465	-7.333670	0.874906	1.311467	-1.281566
2.340	3.321483	-2.916332	559.308234	-7.249917	-7.554124	0.891173	1.350619	-1.296229
2.350	3.521275	-2.960852	559.370552	-7.322764	-7.767911	0.904991	1.388688	-1.309108
2.360	3.698667	-2.984758	559.373831	-7.383887	-7.974275	0.917222	1.425572	-1.320027
