Time[s]	Fx[N]	Fy[N]	Fz[N]	Mx[Nm]	My[Nm]	Mz[Nm]	COPx[cm]	COPy[cm]
0.010	2.635378	-2.475221	715.856401	4.631557	-2.983148	0.828008	0.416724	0.646995
0.020	2.675533	-2.585060	715.319081	4.488050	-2.798712	0.846394	0.391254	0.627419
0.030	2.683470	-2.696087	714.860220	4.342557	-2.597903	0.861264	0.363414	0.607469
0.040	2.636539	-2.810327	714.553460	4.193959	-2.367133	0.869515	0.331274	0.586934
0.050	2.527567	-2.930454	714.455248	4.042341	-2.098063	0.868968	0.293659	0.565793
0.060	2.366215	-3.058839	714.593315	3.889442	-1.789290	0.858728	0.250393	0.544288
0.070	2.174944	-3.195658	714.955642	3.738690	-1.446507	0.839531	0.202321	0.522926
0.080	1.981257	-3.336894	715.486093	3.594665	-1.080963	0.813943	0.151081	0.502409
0.090	1.809045	-3.473599	716.091992	3.462151	-0.706842	0.786126	0.098708	0.483479
0.100	1.671844	-3.593320	716.663240	3.345119	-0.338488	0.760998	0.047231	0.466763
0.110	1.569825	-3.683509	717.096217	3.245953	0.011712	0.742914	-0.001633	0.452652
0.120	1.490828	-3.735651	717.313794	3.165039	0.334502	0.734351	-0.046633	0.441235
0.130	1.414448	-3.748443	717.276487	3.100775	0.624122	0.735142	-0.087013	0.432298
0.140	1.317580	-3.728733	716.985490	3.050052	0.878204	0.742644	-0.122486	0.425399
0.150	1.180011	-3.690009	716.480944	3.009253	1.097480	0.752780	-0.153177	0.420005
0.160	0.989113	-3.649221	715.836838	2.975441	1.285328	0.761531	-0.179556	0.415659
0.170	0.742968	-3.623127	715.151084	2.947121	1.447036	0.766270	-0.202340	0.412098
0.180	0.451133	-3.625166	714.529833	2.924032	1.588693	0.766500	-0.222341	0.409225
0.190	0.132558	-3.663302	714.068484	2.906094	1.715784	0.763805	-0.240283	0.406977
0.200	-0.188862	-3.738922	713.834153	2.892269	1.831778	0.761084	-0.256611	0.405174
0.210	-0.489489	-3.846789	713.853897	2.880165	1.937114	0.761390	-0.271360	0.403467
0.220	-0.750244	-3.976170	714.110804	2.866643	2.028899	0.766788	-0.284115	0.401428
0.230	-0.959045	-4.113107	714.548164	2.849063	2.101444	0.777636	-0.294094	0.398722
0.240	-1.111227	-4.243332	715.080740	2.826561	2.147484	0.792482	-0.300314	0.395279
0.250	-1.208181	-4.354823	715.611194	2.800838	2.159811	0.808559	-0.301813	0.391391
0.260	-1.254629	-4.439104	716.048850	2.776167	2.132904	0.822687	-0.297871	0.387706
0.270	-1.255276	-4.491026	716.327076	2.758545	2.064088	0.832248	-0.288149	0.385096
0.280	-1.211954	-4.507749	716.415126	2.754187	1.953881	0.835900	-0.272730	0.384440
0.290	-1.122488	-4.487917	716.321242	2.767713	1.805472	0.833805	-0.252048	0.386379
0.300	-0.982053	-4.431660	716.086126	2.800468	1.623647	0.827333	-0.226739	0.391080
0.310	-0.786747	-4.341341	715.768940	2.849499	1.413707	0.818359	-0.197509	0.398103
0.320	-0.537982	-4.222524	715.430576	2.907638	1.180918	0.808490	-0.165064	0.406418
0.330	-0.245595	-4.084566	715.119844	2.964833	0.930738	0.798526	-0.130151	0.414593
0.340	0.072018	-3.940332	714.866425	3.010327	0.669435	0.788375	-0.093645	0.421103
0.350	0.391246	-3.804866	714.681054	3.034933	0.404365	0.777389	-0.056580	0.424656
0.360	0.689069	-3.693358	714.560504	3.032693	0.143321	0.764932	-0.020057	0.424414
0.370	0.949277	-3.618942	714.493858	3.001638	-0.106998	0.750964	0.014975	0.420107
0.380	1.166832	-3.590673	714.467240	2.943773	-0.342754	0.736362	0.047973	0.412024
0.390	1.348582	-3.611789	714.465902	2.864531	-0.564182	0.722806	0.078966	0.400933
0.400	1.509772	-3.678567	714.474693	2.771723	-0.775678	0.712220	0.108566	0.387939
0.410	1.667489	-3.780454	714.479260	2.674001	-0.984551	0.706048	0.137800	0.374259
0.420	1.833638	-3.901971	714.469886	2.579073	-1.198679	0.704668	0.167772	0.360977
0.430	2.010591	-4.026151	714.447542	2.492186	-1.423738	0.707213	0.199278	0.348827
0.440	2.191616	-4.138512	714.428781	2.415359	-1.661010	0.711898	0.232495	0.338083
0.450	2.365821	-4.230296	714.444943	2.347564	-1.906737	0.716721	0.266884	0.328586
0.460	2.524863	-4.300112	714.533378	2.285699	-2.153386	0.720245	0.301370	0.319887
0.470	2.667901	-4.353622	714.723280	2.226032	-2.392293	0.722124	0.334716	0.311454
0.480	2.802493	-4.401379	715.022407	2.165668	-2.616472	0.723190	0.365929	0.302881
0.490	2.941468	-4.455427	715.410506	2.103665	-2.822407	0.725127	0.394516	0.294050
0.500	3.097656	-4.525591	715.841482	2.041424	-3.010229	0.729853	0.420516	0.285178
0.510	3.279026	-4.616323	716.252892	1.982184	-3.182546	0.738786	0.444333	0.276744
0.520	3.486289	-4.724775	716.579870	1.929683	-3.342682	0.752144	0.466477	0.269291
0.530	3.713618	-4.840674	716.770362	1.886479	-3.493090	0.768546	0.487337	0.263192
0.540	3.951538	-4.948286	716.798330	1.852662	-3.634423	0.785144	0.507036	0.258463
0.550	4.190322	-5.030071	716.671432	1.825557	-3.765434	0.798429	0.525406	0.254727
0.560	4.422459	-5.071077	716.430196	1.800623	-3.883651	0.805485	0.542084	0.251333
0.570	4.643337	-5.062986	716.137457	1.773188	-3.986381	0.805217	0.556650	0.247604
0.580	4.849773	-5.006907	715.859891	1.740322	-4.071407	0.798960	0.568744	0.243109
0.590	5.036890	-4.914116	715.647313	1.702156	-4.136896	0.790153	0.578064	0.237848
0.600	5.194978	-4.804000	715.518275	1.662174	-4.180651	0.783183	0.584283	0.232303
0.610	5.308639	-4.699026	715.459509	1.626449	-4.199317	0.781830	0.586940	0.227329
0.620	5.359723	-4.618012	715.440345	1.602094	-4.188216	0.787915	0.585404	0.223931
0.630	5.333535	-4.570329	715.434548	1.595442	-4.142114	0.800634	0.578965	0.223003
0.640	5.225698	-4.553602	715.436903	1.610563	-4.056821	0.816831	0.567041	0.225116
0.650	5.046339	-4.555757	715.464412	1.648516	-3.931107	0.832101	0.549448	0.230412
0.660	4.819222	-4.560126	715.541220	1.707401	-3.768145	0.842338	0.526615	0.238617
0.670	4.575653	-4.551182	715.676785	1.783039	-3.575701	0.845150	0.499625	0.249140
0.680	4.345128	-4.518732	715.850939	1.869981	-3.364617	0.840603	0.470016	0.261225
0.690	4.145907	-4.459557	716.015033	1.962697	-3.145694	0.830961	0.439333	0.274114
0.700	3.978748	-4.376722	716.109619	2.056896	-2.925845	0.819551	0.408575	0.287232
0.710	3.826249	-4.277334	716.091040	2.150755	-2.704984	0.809349	0.377743	0.300347
0.720	3.658703	-4.169630	715.954405	2.245478	-2.475178	0.801959	0.345717	0.313634
0.730	3.445243	-4.060199	715.740818	2.344500	-2.222868	0.797426	0.310569	0.327563
0.740	3.166859	-3.952218	715.523845	2.451343	-1.933727	0.794857	0.270253	0.342594
0.750	2.826533	-3.845324	715.380751	2.567192	-1.598595	0.793441	0.223461	0.358857
0.760	2.452181	-3.737098	715.361295	2.689761	-1.218338	0.793300	0.170311	0.376000
0.770	2.090330	-3.625263	715.466783	2.814347	-0.805626	0.795690	0.112602	0.393358
0.780	1.791802	-3.509370	715.646688	2.936556	-0.382586	0.802397	0.053460	0.410336
0.790	1.593980	-3.391226	715.813902	3.055079	0.025179	0.814591	-0.003517	0.426798
0.800	1.506159	-3.274150	715.874381	3.172840	0.396164	0.831747	-0.055340	0.443212
0.810	1.503816	-3.161554	715.761857	3.295772	0.719329	0.851271	-0.100498	0.460456
0.820	1.534372	-3.055397	715.464897	3.429671	0.996883	0.869139	-0.139334	0.479363
0.830	1.532552	-2.955077	715.035396	3.576441	1.242574	0.881313	-0.173778	0.500177
0.840	1.439892	-2.857334	714.575148	3.731375	1.476293	0.885280	-0.206597	0.522181
0.850	1.221901	-2.757542	714.205639	3.882839	1.717038	0.880951	-0.240412	0.543658
0.860	0.877762	-2.652371	714.031351	4.014785	1.976646	0.870583	-0.276829	0.562270
0.870	0.440191	-2.543159	714.108265	4.111261	2.256200	0.857884	-0.315946	0.575720
0.880	-0.033902	-2.438513	714.427397	4.161228	2.546003	0.846807	-0.356370	0.582456
0.890	-0.478709	-2.354170	714.918166	4.161875	2.828834	0.840444	-0.395686	0.582147
0.900	-0.836007	-2.309124	715.469262	4.119272	3.085195	0.840242	-0.431213	0.575744
0.910	-1.068046	-2.319163	715.958876	4.046134	3.298733	0.845675	-0.460743	0.565135
0.920	-1.163372	-2.390857	716.284684	3.957639	3.460063	0.854510	-0.483057	0.552523
0.930	-1.134585	-2.518850	716.386233	3.867000	3.567973	0.863624	-0.498052	0.539793
0.940	-1.009804	-2.687435	716.255669	3.782598	3.628039	0.870113	-0.506528	0.528107
0.950	-0.821734	-2.875174	715.935216	3.707565	3.649600	0.872255	-0.509767	0.517863
0.960	-0.598658	-3.060312	715.502336	3.641497	3.642511	0.869952	-0.509084	0.508943
0.970	-0.360261	-3.225037	715.046945	3.582990	3.614862	0.864542	-0.505542	0.501085
0.980	-0.118686	-3.357650	714.648297	3.531561	3.572242	0.858137	-0.499860	0.494168
0.990	0.117354	-3.452767	714.359101	3.488095	3.518301	0.852720	-0.492512	0.488283
1.000	0.338737	-3.510189	714.200716	3.453923	3.455918	0.849313	-0.483886	0.483607
1.010	0.534794	-3.533186	714.168166	3.429440	3.388153	0.847514	-0.474419	0.480201
1.020	0.695110	-3.526777	714.240310	3.413174	3.318459	0.845615	-0.464614	0.477875
1.030	0.812761	-3.496488	714.389916	3.401691	3.250073	0.841333	-0.454944	0.476167
1.040	0.887015	-3.447816	714.590353	3.390183	3.184915	0.832856	-0.445698	0.474423
1.050	0.924064	-3.386437	714.818677	3.373441	3.122639	0.819746	-0.436844	0.471930
1.060	0.935253	-3.319102	715.057203	3.346975	3.060439	0.803286	-0.427999	0.468071
1.070	0.933169	-3.254940	715.295230	3.308117	2.993939	0.786133	-0.418560	0.462483
1.080	0.926910	-3.206257	715.530173	3.256747	2.918998	0.771459	-0.407949	0.455152
1.090	0.918455	-3.187587	715.765852	3.195252	2.833778	0.761970	-0.395909	0.446410
1.100	0.902082	-3.212424	716.007225	3.127596	2.740150	0.759168	-0.382699	0.436811
1.110	0.867868	-3.288611	716.253806	3.057949	2.643555	0.763093	-0.369081	0.426936
1.120	0.808527	-3.414557	716.495122	2.989530	2.551039	0.772492	-0.356044	0.417244
1.130	0.726879	-3.578274	716.709996	2.924050	2.467961	0.785240	-0.344346	0.407982
1.140	0.640068	-3.759780	716.869182	2.861694	2.394740	0.798825	-0.334055	0.399193
1.150	0.577562	-3.935881	716.940032	2.801439	2.325206	0.810822	-0.324324	0.390749
1.160	0.572707	-4.085743	716.892315	2.741472	2.247610	0.819285	-0.313521	0.382411
1.170	0.650840	-4.195848	716.704798	2.679538	2.148132	0.823054	-0.299723	0.373869
1.180	0.818810	-4.263199	716.372156	2.613155	2.015646	0.821940	-0.281369	0.364776
1.190	1.060392	-4.295777	715.911419	2.539880	1.846023	0.816728	-0.257856	0.354776
1.200	1.339713	-4.309637	715.365842	2.457785	1.644430	0.808976	-0.229873	0.343570
1.210	1.611482	-4.323216	714.802792	2.366111	1.424821	0.800597	-0.199331	0.331016
1.220	1.834076	-4.350942	714.303638	2.265827	1.206740	0.793317	-0.168939	0.317208
1.230	1.980565	-4.399004	713.947898	2.159861	1.010457	0.788153	-0.141531	0.302524
1.240	2.044205	-4.465067	713.797055	2.052871	0.851943	0.785066	-0.119354	0.287599
1.250	2.037589	-4.541587	713.882533	1.950472	0.739076	0.782945	-0.103529	0.273220
1.260	1.987003	-4.620436	714.198961	1.858054	0.670044	0.779993	-0.093818	0.260159
1.270	1.924584	-4.696316	714.701996	1.779510	0.634252	0.774456	-0.088744	0.248986
1.280	1.880652	-4.767713	715.311334	1.716371	0.615401	0.765401	-0.086033	0.239947
1.290	1.877826	-4.835779	715.921727	1.667671	0.595818	0.753221	-0.083224	0.232940
1.300	1.927629	-4.902241	716.423468	1.630493	0.560795	0.739617	-0.078277	0.227588
1.310	2.029669	-4.967246	716.728450	1.600857	0.501820	0.727072	-0.070015	0.223356
1.320	2.172992	-5.027829	716.792946	1.574600	0.417950	0.717982	-0.058308	0.219673
1.330	2.339159	-5.077786	716.628279	1.548187	0.315200	0.713740	-0.043984	0.216038
1.340	2.506641	-5.109526	716.295063	1.519462	0.204316	0.714122	-0.028524	0.212128
1.350	2.655923	-5.117413	715.883100	1.488289	0.097697	0.717275	-0.013647	0.207896
1.360	2.774200	-5.100980	715.484629	1.456752	0.006343	0.720397	-0.000887	0.203604
1.370	2.858189	-5.066143	715.171056	1.428688	-0.062442	0.720851	0.008731	0.199769
1.380	2.913909	-5.023435	714.980732	1.408553	-0.106137	0.717228	0.014845	0.197006
1.390	2.953292	-4.983775	714.919134	1.400027	-0.126655	0.709876	0.017716	0.195830
1.400	2.988555	-4.953737	714.967227	1.404927	-0.128582	0.700733	0.017984	0.196502
1.410	3.026097	-4.932826	715.091867	1.422833	-0.116440	0.692620	0.016283	0.198972
1.420	3.062166	-4.914468	715.254318	1.451431	-0.091945	0.688281	0.012855	0.202925
1.430	3.082294	-4.890373	715.416685	1.487226	-0.052439	0.689475	0.007330	0.207882
1.440	3.065539	-4.855909	715.548153	1.526316	0.008587	0.696380	-0.001200	0.213307
1.450	2.992821	-4.813547	715.631515	1.565175	0.098693	0.707540	-0.013791	0.218712
1.460	2.856588	-4.772453	715.667506	1.601506	0.222256	0.720370	-0.031056	0.223778
1.470	2.667870	-4.744247	715.673579	1.635086	0.376454	0.732082	-0.052601	0.228468
1.480	2.457196	-4.736878	715.675817	1.668244	0.549397	0.740726	-0.076766	0.233101
1.490	2.267866	-4.749542	715.695900	1.705554	0.721626	0.745946	-0.100829	0.238307
1.500	2.143099	-4.771137	715.738161	1.752603	0.870897	0.749111	-0.121678	0.244866
1.510	2.111423	-4.783161	715.783925	1.814209	0.978711	0.752646	-0.136733	0.253458
1.520	2.175875	-4.765949	715.798420	1.892793	1.036240	0.758834	-0.144767	0.264431
1.530	2.311342	-4.705783	715.748419	1.987545	1.047414	0.768660	-0.146338	0.277688
1.540	2.471217	-4.600021	715.621502	2.094602	1.027974	0.781327	-0.143648	0.292697
1.550	2.601086	-4.458301	715.436700	2.208171	1.000793	0.794677	-0.139886	0.308647
1.560	2.654829	-4.299504	715.241715	2.322377	0.989087	0.806254	-0.138287	0.324698
1.570	2.607934	-4.145837	715.098671	2.433351	1.009768	0.814423	-0.141207	0.340282
1.580	2.464034	-4.016232	715.064388	2.540767	1.068976	0.818997	-0.149494	0.355320
1.590	2.252944	-3.921183	715.171840	2.647939	1.160980	0.821168	-0.162336	0.370252
1.600	2.021237	-3.860423	715.418203	2.760222	1.270536	0.822880	-0.177593	0.385819
1.610	1.818704	-3.823961	715.763238	2.882511	1.377805	0.825946	-0.192495	0.402718
1.620	1.685083	-3.796014	716.139307	3.017252	1.464191	0.831209	-0.204456	0.421322
1.630	1.640943	-3.760424	716.470253	3.163999	1.517175	0.838023	-0.211757	0.441609
1.640	1.684830	-3.705653	716.692183	3.320416	1.532682	0.844317	-0.213855	0.463297
1.650	1.796621	-3.627448	716.768056	3.483570	1.514542	0.847262	-0.211302	0.486011
1.660	1.945221	-3.528370	716.691471	3.650408	1.471763	0.844316	-0.205355	0.509342
1.670	2.097700	-3.414951	716.481072	3.817282	1.415047	0.834187	-0.197500	0.532782
1.680	2.227134	-3.294453	716.171467	3.979426	1.353981	0.817317	-0.189058	0.555653
1.690	2.317368	-3.172879	715.806183	4.131395	1.295708	0.795735	-0.181014	0.577167
1.700	2.364209	-3.054586	715.433928	4.268678	1.245054	0.772457	-0.174028	0.596656
1.710	2.373525	-2.942522	715.105884	4.389721	1.205360	0.750689	-0.168557	0.613856
1.720	2.357335	-2.837996	714.871594	4.497187	1.179150	0.733086	-0.164946	0.629090
1.730	2.329209	-2.739680	714.772552	4.597659	1.168174	0.721198	-0.163433	0.643234
1.740	2.300313	-2.642606	714.833676	4.699805	1.173020	0.715243	-0.164097	0.657468
1.750	2.277301	-2.538265	715.053953	4.811608	1.192710	0.714264	-0.166800	0.672901
1.760	2.262533	-2.416517	715.399769	4.937600	1.224557	0.716614	-0.171171	0.690188
1.770	2.255829	-2.268934	715.806051	5.077032	1.264358	0.720563	-0.176634	0.709275
1.780	2.255987	-2.092347	716.188636	5.223691	1.307000	0.724773	-0.182494	0.729374
1.790	2.260803	-1.891178	716.465542	5.367495	1.347471	0.728536	-0.188072	0.749163
1.800	2.265997	-1.677785	716.578707	5.497304	1.382111	0.731801	-0.192876	0.767160
1.810	2.264599	-1.470865	716.506197	5.603952	1.409583	0.735074	-0.196730	0.782122
1.820	2.247997	-1.292362	716.259978	5.682527	1.431091	0.739243	-0.199801	0.793361
1.830	2.208578	-1.163464	715.873019	5.733267	1.449781	0.745355	-0.202519	0.800878
1.840	2.142667	-1.100278	715.385788	5.760882	1.469694	0.754383	-0.205441	0.805283
1.850	2.052120	-1.109926	714.841125	5.772661	1.494813	0.767023	-0.209111	0.807545
1.860	1.943420	-1.187979	714.288255	5.776163	1.528497	0.783538	-0.213989	0.808660
1.870	1.824448	-1.318266	713.787769	5.777352	1.573342	0.803633	-0.220422	0.809394
1.880	1.700523	-1.475649	713.407790	5.779535	1.631320	0.826397	-0.228666	0.810131
1.890	1.572049	-1.631332	713.209139	5.783029	1.704013	0.850379	-0.238922	0.810846
1.900	1.435292	-1.759192	713.227158	5.785407	1.792646	0.873796	-0.251343	0.811159
1.910	1.285963	-1.841305	713.460951	5.782324	1.897720	0.894807	-0.265988	0.810461
1.920	1.123578	-1.871232	713.875013	5.768842	2.018234	0.911787	-0.282715	0.808103
1.930	0.954209	-1.854519	714.409530	5.740865	2.150782	0.923568	-0.301057	0.803582
1.940	0.790302	-1.806577	714.992082	5.696139	2.289020	0.929634	-0.320146	0.796672
1.950	0.647893	-1.748551	715.546984	5.634429	2.424045	0.930207	-0.338768	0.787430
1.960	0.542696	-1.702107	716.003667	5.557028	2.545936	0.926172	-0.355576	0.776117
1.970	0.486524	-1.684379	716.306464	5.466054	2.646117	0.918798	-0.369411	0.763089
1.980	0.484852	-1.704391	716.424713	5.364005	2.719680	0.909363	-0.379618	0.748719
1.990	0.535636	-1.761885	716.359275	5.253600	2.766691	0.898865	-0.386216	0.733375
2.000	0.629256	-1.848811	716.142313	5.137583	2.791939	0.887990	-0.389858	0.717397
2.010	0.749466	-1.953046	715.830167	5.018136	2.803314	0.877280	-0.391617	0.701023
2.020	0.875353	-2.063381	715.491671	4.895883	2.809513	0.867318	-0.392669	0.684268
2.030	0.984246	-2.174307	715.195278	4.768846	2.817962	0.858780	-0.394013	0.666789
2.040	1.055243	-2.288965	714.998165	4.631745	2.833526	0.852265	-0.396298	0.647798
2.050	1.072771	-2.419164	714.939303	4.475882	2.858175	0.847934	-0.399779	0.626051
2.060	1.029621	-2.582491	715.037112	4.289873	2.891422	0.845120	-0.404374	0.599951
2.070	0.929198	-2.797665	715.290905	4.061587	2.931076	0.842145	-0.409774	0.567823
2.080	0.786929	-3.079646	715.684061	3.781341	2.973735	0.836548	-0.415510	0.528353
2.090	0.630480	-3.435610	716.186162	3.445670	3.014634	0.825720	-0.420929	0.481114
2.100	0.497801	-3.862205	716.752204	3.060394	3.047074	0.807775	-0.425122	0.426981
2.110	0.431809	-4.344165	717.319595	2.641621	3.062214	0.782313	-0.426897	0.368263
2.120	0.471408	-4.854393	717.807202	2.213930	3.049969	0.750783	-0.424901	0.308430
2.130	0.640621	-5.355986	718.122612	1.805901	3.001114	0.716239	-0.417911	0.251475
2.140	0.939441	-5.806631	718.180629	1.444126	2.909890	0.682546	-0.405175	0.201081
2.150	1.340199	-6.165310	717.928413	1.147417	2.776059	0.653332	-0.386676	0.159823
2.160	1.791407	-6.400247	717.366425	0.922956	2.605624	0.631071	-0.363221	0.128659
2.170	2.228355	-6.496246	716.555336	0.765617	2.410020	0.616577	-0.336334	0.106847
2.180	2.587592	-6.459156	715.605512	0.660739	2.204208	0.608997	-0.308020	0.092333
2.190	2.821304	-6.315573	714.652537	0.589342	2.004304	0.606254	-0.280459	0.082466
2.200	2.907621	-6.107218	713.826922	0.533970	1.825188	0.605774	-0.255691	0.074804
2.210	2.853966	-5.881283	713.228221	0.483245	1.678415	0.605317	-0.235326	0.067755
2.220	2.692615	-5.679574	712.911628	0.433899	1.570666	0.603729	-0.220317	0.060863
2.230	2.470166	-5.529665	712.888640	0.390072	1.503091	0.601371	-0.210845	0.054717
2.240	2.234736	-5.440502	713.136498	0.360595	1.471728	0.600088	-0.206374	0.050565
2.250	2.025095	-5.403346	713.608536	0.355453	1.468867	0.602645	-0.205836	0.049811
2.260	1.864591	-5.397203	714.240881	0.382591	1.484858	0.611795	-0.207893	0.053566
2.270	1.760504	-5.396516	714.956559	0.445860	1.509823	0.629264	-0.211177	0.062362
2.280	1.707637	-5.378447	715.670750	0.544376	1.534835	0.654996	-0.214461	0.076065
2.290	1.694019	-5.327709	716.298975	0.673156	1.552492	0.686950	-0.216738	0.093977
2.300	1.706557	-5.238155	716.766811	0.824527	1.557016	0.721502	-0.217228	0.115034
2.310	1.735052	-5.111631	717.018659	0.989672	1.544288	0.754301	-0.215376	0.138026
2.320	1.773789	-4.955355	717.024485	1.159784	1.512118	0.781335	-0.210888	0.161750
2.330	1.820682	-4.779213	716.784770	1.326718	1.460770	0.799920	-0.203795	0.185093
2.340	1.874722	-4.593796	716.333601	1.483416	1.393348	0.809344	-0.194511	0.207084
2.350	1.933206	-4.409261	715.738020	1.624375	1.315563	0.810967	-0.183805	0.226951
2.360	1.990366	-4.234607	715.090763	1.746111	1.234686	0.807737	-0.172661	0.244180
2.370	2.038052	-4.077140	714.494995	1.847257	1.157982	0.803297	-0.162070	0.258540
2.380	2.067773	-3.942271	714.043349	1.928056	1.091267	0.801006	-0.152829	0.270019
2.390	2.072693	-3.833913	713.797514	1.989510	1.038216	0.803146	-0.145450	0.278722
2.400	2.048727	-3.755442	713.776132	2.032667	1.000509	0.810475	-0.140171	0.284777
2.410	1.994835	-3.710559	713.956037	2.058399	0.978369	0.822143	-0.137035	0.288309
2.420	1.913200	-3.703208	714.285631	2.067617	0.970821	0.835920	-0.135915	0.289466
