Time[s]	Fx[N]	Fy[N]	Fz[N]	Mx[Nm]	My[Nm]	Mz[Nm]	COPx[cm]	COPy[cm]
0.010	1.055165	0.143177	640.560427	2.857569	18.028651	-0.286179	-2.814512	0.446105
0.020	0.956841	0.169532	640.591356	2.836843	18.054535	-0.281629	-2.818417	0.442847
0.030	0.873016	0.189255	640.625198	2.814426	18.081818	-0.277299	-2.822527	0.439325
0.040	0.813778	0.198075	640.659068	2.789284	18.110843	-0.273469	-2.826908	0.435377
0.050	0.782115	0.195026	640.682585	2.760574	18.140270	-0.270542	-2.831397	0.430880
0.060	0.774649	0.181617	640.681856	2.727802	18.166738	-0.269004	-2.835532	0.425765
0.070	0.784690	0.160122	640.647639	2.691054	18.185285	-0.269289	-2.838578	0.420052
0.080	0.805587	0.132255	640.583202	2.651241	18.190668	-0.271625	-2.839704	0.413879
0.090	0.832732	0.098995	640.506699	2.610155	18.179225	-0.275942	-2.838257	0.407514
0.100	0.863782	0.061418	640.445569	2.570052	18.150454	-0.281909	-2.834035	0.401291
0.110	0.897784	0.021644	640.425595	2.532800	18.107500	-0.289063	-2.827417	0.395487
0.120	0.933930	-0.017196	640.460910	2.499056	18.056217	-0.296903	-2.819254	0.390196
0.130	0.970536	-0.052232	640.550014	2.468035	18.003105	-0.304879	-2.810570	0.385299
0.140	1.004795	-0.082464	640.678441	2.438114	17.952899	-0.312280	-2.802170	0.380552
0.150	1.033796	-0.109429	640.824888	2.407960	17.906720	-0.318230	-2.794323	0.375759
0.160	1.056544	-0.136418	640.966916	2.377482	17.861559	-0.321919	-2.786658	0.370921
0.170	1.075778	-0.166776	641.084000	2.347872	17.811339	-0.322993	-2.778316	0.366235
0.180	1.098312	-0.202134	641.158235	2.320518	17.749040	-0.321853	-2.768278	0.361926
0.190	1.133424	-0.241121	641.174795	2.295485	17.668928	-0.319640	-2.755712	0.358012
0.200	1.189960	-0.278931	641.123965	2.270774	17.568076	-0.317872	-2.740200	0.354186
0.210	1.273294	-0.308313	641.004401	2.243082	17.446795	-0.317893	-2.721790	0.349932
0.220	1.383268	-0.322311	640.825477	2.209567	17.308069	-0.320290	-2.700902	0.344800
0.230	1.513726	-0.318011	640.606584	2.169413	17.156404	-0.324524	-2.678150	0.338650
0.240	1.653730	-0.299345	640.372942	2.124266	16.996597	-0.328955	-2.654172	0.331723
0.250	1.790132	-0.277009	640.149467	2.077475	16.832801	-0.331348	-2.629511	0.324530
0.260	1.910951	-0.265016	639.955455	2.032753	16.667906	-0.329673	-2.604542	0.317640
0.270	2.008817	-0.275498	639.802461	1.992921	16.503171	-0.322852	-2.579417	0.311490
0.280	2.083544	-0.314340	639.695812	1.959144	16.338074	-0.311167	-2.554038	0.306262
0.290	2.142714	-0.379511	639.638176	1.930737	16.170581	-0.296186	-2.528083	0.301848
0.300	2.199403	-0.462318	639.633041	1.905510	15.998020	-0.280281	-2.501125	0.297907
0.310	2.267237	-0.550620	639.686676	1.880581	15.818463	-0.265899	-2.472845	0.293985
0.320	2.354545	-0.632705	639.807836	1.853499	15.632219	-0.254822	-2.443268	0.289696
0.330	2.460387	-0.700492	640.004981	1.823318	15.442852	-0.247688	-2.412927	0.284891
0.340	2.574464	-0.751113	640.281800	1.791163	15.257260	-0.243985	-2.382898	0.279746
0.350	2.681092	-0.786534	640.632916	1.759902	15.084561	-0.242512	-2.354634	0.274713
0.360	2.765502	-0.811647	641.041692	1.733008	14.933967	-0.242030	-2.329640	0.270342
0.370	2.819712	-0.831699	641.480517	1.713184	14.812250	-0.241751	-2.309072	0.267067
0.380	2.845337	-0.850107	641.912474	1.701447	14.721680	-0.241458	-2.293409	0.265059
0.390	2.852064	-0.867461	642.293680	1.696998	14.659177	-0.241267	-2.282317	0.264209
0.400	2.852763	-0.881966	642.577216	1.697715	14.617011	-0.241331	-2.274748	0.264204
0.410	2.857822	-0.890884	642.719759	1.700922	14.584889	-0.241697	-2.269245	0.264644
0.420	2.871337	-0.892247	642.690275	1.704194	14.552838	-0.242429	-2.264363	0.265166
0.430	2.890424	-0.886018	642.478038	1.706059	14.513938	-0.243829	-2.259056	0.265544
0.440	2.907335	-0.874188	642.096918	1.706442	14.465916	-0.246540	-2.252918	0.265761
0.450	2.913219	-0.859824	641.584314	1.706700	14.411103	-0.251355	-2.246174	0.266013
0.460	2.902134	-0.845551	640.995333	1.709337	14.355009	-0.258810	-2.239487	0.266669
0.470	2.873918	-0.832209	640.394350	1.717533	14.304257	-0.268817	-2.233664	0.268199
0.480	2.834853	-0.818180	639.846255	1.734512	14.264675	-0.280611	-2.229391	0.271083
0.490	2.795847	-0.799614	639.408745	1.762664	14.239978	-0.293075	-2.227054	0.275671
0.500	2.768742	-0.771432	639.125959	1.802572	14.231178	-0.305254	-2.226663	0.282037
0.510	2.762113	-0.728912	639.023557	1.852432	14.236647	-0.316695	-2.227875	0.289885
0.520	2.778168	-0.669519	639.105768	1.908364	14.252701	-0.327421	-2.230101	0.298599
0.530	2.812000	-0.594486	639.355252	1.965582	14.274549	-0.337568	-2.232647	0.307432
0.540	2.853340	-0.509396	639.736067	2.019813	14.297372	-0.347006	-2.234886	0.315726
0.550	2.889989	-0.423126	640.199226	2.068216	14.317236	-0.355208	-2.236372	0.323058
0.560	2.911710	-0.345180	640.689581	2.109527	14.331548	-0.361444	-2.236894	0.329259
0.570	2.913585	-0.282475	641.152476	2.143730	14.338963	-0.365139	-2.236436	0.334356
0.580	2.897938	-0.237082	641.538987	2.171767	14.338902	-0.366155	-2.235079	0.338525
0.590	2.874049	-0.206041	641.809865	2.195487	14.330997	-0.364852	-2.232904	0.342077
0.600	2.855431	-0.183233	641.939295	2.217588	14.314815	-0.361905	-2.229933	0.345451
0.610	2.855437	-0.162239	641.919100	2.241201	14.290091	-0.358028	-2.226151	0.349141
0.620	2.882756	-0.138809	641.762081	2.269027	14.257408	-0.353782	-2.221603	0.353562
0.630	2.938588	-0.111904	641.501961	2.302372	14.218900	-0.349527	-2.216501	0.358903
0.640	3.016598	-0.083178	641.188357	2.340546	14.178418	-0.345497	-2.211272	0.365033
0.650	3.105345	-0.055484	640.877855	2.380998	14.140868	-0.341906	-2.206484	0.371521
0.660	3.191721	-0.031306	640.623659	2.420210	14.110911	-0.339034	-2.202683	0.377790
0.670	3.263779	-0.011793	640.465747	2.455025	14.091567	-0.337250	-2.200206	0.383319
0.680	3.312307	0.003351	640.422641	2.483852	14.083271	-0.336907	-2.199059	0.387846
0.690	3.331493	0.015201	640.486439	2.507188	14.083701	-0.338085	-2.198907	0.391451
0.700	3.319271	0.024528	640.623413	2.527232	14.088446	-0.340285	-2.199177	0.394496
0.710	3.277665	0.030871	640.781858	2.546824	14.092405	-0.342258	-2.199252	0.397456
0.720	3.213151	0.032414	640.906558	2.568183	14.091548	-0.342191	-2.198690	0.400711
0.730	3.136778	0.026982	640.956284	2.592012	14.084372	-0.338261	-2.197400	0.404398
0.740	3.063386	0.013866	640.918124	2.617345	14.072387	-0.329405	-2.195661	0.408374
0.750	3.009237	-0.004521	640.812222	2.642208	14.059403	-0.315937	-2.193997	0.412322
0.760	2.988029	-0.022471	640.683787	2.664680	14.049865	-0.299692	-2.192948	0.415912
0.770	3.006417	-0.032896	640.584806	2.683712	14.046928	-0.283556	-2.192829	0.418947
0.780	3.060915	-0.030522	640.552934	2.699236	14.051032	-0.270582	-2.193579	0.421392
0.790	3.137906	-0.014604	640.596857	2.711645	14.059605	-0.263052	-2.194766	0.423300
0.800	3.217266	0.010495	640.694577	2.721182	14.068032	-0.261858	-2.195747	0.424724
0.810	3.278407	0.037276	640.804824	2.727759	14.071485	-0.266350	-2.195908	0.425677
0.820	3.306466	0.058573	640.885708	2.731283	14.066769	-0.274627	-2.194895	0.426173
0.830	3.296359	0.070576	640.911823	2.732081	14.053368	-0.284142	-2.192715	0.426280
0.840	3.253467	0.073848	640.882069	2.730919	14.033315	-0.292421	-2.189688	0.426119
0.850	3.191015	0.072074	640.815243	2.728560	14.010088	-0.297682	-2.186291	0.425795
0.860	3.125416	0.069615	640.737110	2.725217	13.987182	-0.299173	-2.182983	0.425325
0.870	3.071529	0.069341	640.667097	2.720356	13.966927	-0.297145	-2.180060	0.424613
0.880	3.039535	0.071676	640.611820	2.713032	13.949862	-0.292573	-2.177584	0.423506
0.890	3.034044	0.074866	640.567616	2.702622	13.934721	-0.286776	-2.175371	0.421911
0.900	3.054878	0.075993	640.529226	2.689524	13.919067	-0.281063	-2.173057	0.419891
0.910	3.098399	0.072219	640.499245	2.675442	13.900524	-0.276448	-2.170264	0.417712
0.920	3.158469	0.061906	640.493097	2.663037	13.878247	-0.273461	-2.166807	0.415779
0.930	3.226761	0.045306	640.536245	2.655033	13.853895	-0.272117	-2.162859	0.414502
0.940	3.293020	0.024501	640.653578	2.653028	13.831430	-0.272046	-2.158956	0.414113
0.950	3.346354	0.002496	640.854869	2.656500	13.815640	-0.272746	-2.155814	0.414524
0.960	3.378096	-0.018086	641.122896	2.662555	13.810027	-0.273807	-2.154037	0.415296
0.970	3.385395	-0.035788	641.410646	2.666703	13.815098	-0.274996	-2.153862	0.415756
0.980	3.373607	-0.050000	641.650240	2.664394	13.827938	-0.276153	-2.155058	0.415241
0.990	3.355733	-0.059920	641.771039	2.652520	13.843319	-0.277011	-2.157049	0.413312
1.000	3.348409	-0.063969	641.720524	2.630235	13.855874	-0.277146	-2.159176	0.409872
1.010	3.365650	-0.060669	641.480924	2.598854	13.862367	-0.276110	-2.160994	0.405134
1.020	3.412782	-0.050773	641.076450	2.561088	13.863088	-0.273690	-2.162470	0.399498
1.030	3.483302	-0.039157	640.569068	2.520002	13.861861	-0.270049	-2.163992	0.393401
1.040	3.560269	-0.034680	640.043957	2.478023	13.864784	-0.265662	-2.166224	0.387165
1.050	3.621761	-0.047413	639.588990	2.436192	13.878421	-0.261104	-2.169897	0.380900
1.060	3.648084	-0.084464	639.274709	2.393868	13.908258	-0.256845	-2.175631	0.374466
1.070	3.627939	-0.146608	639.140835	2.349078	13.957818	-0.253150	-2.183841	0.367537
1.080	3.561541	-0.227443	639.192304	2.299464	14.028366	-0.250090	-2.194702	0.359745
1.090	3.459919	-0.315459	639.404001	2.243556	14.118937	-0.247632	-2.208140	0.350882
1.100	3.340863	-0.397989	639.730936	2.181834	14.226625	-0.245731	-2.223845	0.341055
1.110	3.222976	-0.465254	640.119953	2.117090	14.347257	-0.244401	-2.241339	0.330733
1.120	3.119911	-0.512713	640.519753	2.053795	14.476454	-0.243737	-2.260111	0.320645
1.130	3.036726	-0.540903	640.887262	1.996674	14.610776	-0.243936	-2.279773	0.311548
1.140	2.969472	-0.553426	641.190221	1.949123	14.748388	-0.245332	-2.300158	0.303985
1.150	2.908044	-0.554718	641.407627	1.912293	14.888963	-0.248446	-2.321295	0.298140
1.160	2.841254	-0.548908	641.530036	1.885260	15.032962	-0.253927	-2.343298	0.293869
1.170	2.762317	-0.539763	641.560213	1.866101	15.180802	-0.262360	-2.366232	0.290869
1.180	2.672558	-0.530823	641.512281	1.853134	15.332319	-0.273965	-2.390027	0.288870
1.190	2.581704	-0.525148	641.407307	1.845552	15.486561	-0.288292	-2.414466	0.287735
1.200	2.504556	-0.524763	641.266261	1.843093	15.641675	-0.304052	-2.439186	0.287415
1.210	2.455430	-0.530175	641.104955	1.845153	15.794772	-0.319175	-2.463680	0.287808
1.220	2.442733	-0.540162	640.935061	1.850151	15.941938	-0.331154	-2.487294	0.288664
1.230	2.465701	-0.551951	640.770014	1.855800	16.078716	-0.337625	-2.509280	0.289620
1.240	2.514324	-0.561845	640.629567	1.860165	16.201134	-0.337008	-2.528939	0.290365
1.250	2.572293	-0.566281	640.537372	1.862811	16.306880	-0.329024	-2.545812	0.290820
1.260	2.621765	-0.563010	640.511782	1.865220	16.396082	-0.314853	-2.559841	0.291208
1.270	2.648182	-0.551883	640.555647	1.870168	16.471389	-0.296861	-2.571422	0.291960
1.280	2.643462	-0.534725	640.651625	1.880473	16.537362	-0.277934	-2.581335	0.293525
1.290	2.606789	-0.514194	640.765936	1.897956	16.599459	-0.260667	-2.590565	0.296201
1.300	2.543343	-0.492127	640.859130	1.923266	16.662920	-0.246754	-2.600091	0.300107
1.310	2.461961	-0.468203	640.899749	1.956527	16.731905	-0.236819	-2.610690	0.305278
1.320	2.372585	-0.439597	640.876131	1.998125	16.809068	-0.230706	-2.622826	0.311780
1.330	2.283905	-0.401787	640.801998	2.049019	16.895603	-0.228032	-2.636634	0.319759
1.340	2.201314	-0.350306	640.712959	2.110471	16.991664	-0.228698	-2.651993	0.329394
1.350	2.125378	-0.282810	640.654135	2.183499	17.096956	-0.233101	-2.668672	0.340823
1.360	2.051246	-0.200480	640.663283	2.268317	17.211386	-0.241997	-2.686495	0.354058
1.370	1.969463	-0.107971	640.756401	2.363843	17.335753	-0.256074	-2.705514	0.368914
1.380	1.868153	-0.011926	640.921822	2.467375	17.472444	-0.275376	-2.726143	0.384973
1.390	1.735561	0.081037	641.124878	2.574665	17.625933	-0.298700	-2.749220	0.401586
1.400	1.561479	0.165876	641.320599	2.680551	17.802783	-0.323211	-2.775957	0.417974
1.410	1.337001	0.239668	641.468819	2.780029	18.010926	-0.344525	-2.807763	0.433385
1.420	1.053800	0.301233	641.545379	2.869342	18.258144	-0.357421	-2.845963	0.447255
1.430	0.705160	0.350424	641.545459	2.946654	18.549915	-0.357174	-2.891442	0.459306
1.440	0.290094	0.387745	641.479436	3.012067	18.887033	-0.341207	-2.944293	0.469550
1.450	-0.180472	0.414734	641.365464	3.067168	19.263596	-0.310532	-3.003529	0.478225
1.460	-0.678861	0.434849	641.223439	3.114365	19.665970	-0.270327	-3.066945	0.485691
1.470	-1.161113	0.453852	641.072049	3.156198	20.073279	-0.229153	-3.131205	0.492331
1.480	-1.574632	0.478581	640.927274	3.194644	20.459793	-0.196803	-3.192218	0.498441
1.490	-1.871242	0.513971	640.799840	3.230594	20.799158	-0.181380	-3.245812	0.504150
1.500	-2.021152	0.559635	640.691211	3.263794	21.069603	-0.186661	-3.288574	0.509418
1.510	-2.022575	0.608110	640.590737	3.293358	21.258567	-0.210821	-3.318588	0.514113
1.520	-1.902977	0.646264	640.477536	3.318518	21.365053	-0.247087	-3.335801	0.518132
1.530	-1.710812	0.659817	640.328665	3.339210	21.398785	-0.286181	-3.341844	0.521484
1.540	-1.500483	0.639291	640.131017	3.356236	21.376524	-0.319578	-3.339398	0.524305
1.550	-1.316491	0.584762	639.891094	3.371025	21.317041	-0.342293	-3.331354	0.526812
1.560	-1.182926	0.507109	639.637107	3.385083	21.236567	-0.354096	-3.320096	0.529219
1.570	-1.101613	0.424957	639.411969	3.399356	21.146207	-0.358786	-3.307133	0.531638
1.580	-1.058086	0.358504	639.260574	3.413751	21.051792	-0.361950	-3.293147	0.534016
1.590	-1.031539	0.322733	639.217138	3.427012	20.955507	-0.368270	-3.278308	0.536126
1.600	-1.004157	0.322604	639.297246	3.437001	20.857830	-0.379564	-3.262619	0.537622
1.610	-0.966519	0.351951	639.496156	3.441333	20.758498	-0.394342	-3.246071	0.538132
1.620	-0.917940	0.396483	639.792212	3.438203	20.656197	-0.408892	-3.228579	0.537394
1.630	-0.862714	0.439876	640.152972	3.427111	20.547735	-0.419192	-3.209816	0.535358
1.640	-0.804780	0.470503	640.541681	3.409267	20.427810	-0.422709	-3.189146	0.532247
1.650	-0.743831	0.485719	640.922352	3.387531	20.290053	-0.419362	-3.165758	0.528540
1.660	-0.674944	0.491583	641.262928	3.365901	20.129077	-0.411403	-3.138974	0.524886
1.670	-0.591517	0.498306	641.537001	3.348568	19.942555	-0.402412	-3.108559	0.521960
1.680	-0.489190	0.513941	641.724920	3.338757	19.732236	-0.395842	-3.074875	0.520279
1.690	-0.367990	0.539435	641.814796	3.337631	19.503354	-0.393629	-3.038782	0.520030
1.700	-0.231494	0.567127	641.803401	3.343620	19.262697	-0.395361	-3.001339	0.520973
1.710	-0.083860	0.583145	641.696643	3.352540	19.016272	-0.398332	-2.963436	0.522449
1.720	0.073280	0.572749	641.509695	3.358607	18.767633	-0.398483	-2.925542	0.523547
1.730	0.242178	0.526625	641.267145	3.355995	18.517534	-0.391939	-2.887647	0.523338
1.740	0.427670	0.445545	641.002975	3.340241	18.264919	-0.376555	-2.849428	0.521096
1.750	0.633849	0.341165	640.758745	3.308945	18.008625	-0.352881	-2.810516	0.516410
1.760	0.860439	0.232216	640.577782	3.261753	17.748966	-0.324131	-2.770775	0.509189
1.770	1.100752	0.137600	640.494842	3.199954	17.488499	-0.295194	-2.730467	0.499606
1.780	1.342133	0.069497	640.523957	3.126044	17.231735	-0.271092	-2.690256	0.488045
1.790	1.568705	0.029469	640.649823	3.043352	16.983959	-0.255455	-2.651052	0.475041
1.800	1.765358	0.008944	640.828093	2.955659	16.749710	-0.249562	-2.613760	0.461225
1.810	1.921708	-0.006447	640.996798	2.866847	16.531577	-0.252235	-2.579042	0.447248
1.820	2.034691	-0.030522	641.095619	2.780600	16.329830	-0.260547	-2.547175	0.433726
1.830	2.108783	-0.070557	641.085121	2.700105	16.142925	-0.271020	-2.518063	0.421177
1.840	2.153676	-0.124074	640.957783	2.627622	15.968546	-0.280830	-2.491357	0.409952
1.850	2.180407	-0.179973	640.737189	2.563971	15.804654	-0.288564	-2.466636	0.400159
1.860	2.197642	-0.223702	640.467628	2.508214	15.650200	-0.294307	-2.443558	0.391622
1.870	2.209606	-0.243923	640.200434	2.457871	15.505366	-0.299114	-2.421955	0.383922
1.880	2.216228	-0.237300	639.983280	2.409730	15.371315	-0.304210	-2.401831	0.376530
1.890	2.215109	-0.209303	639.854614	2.360933	15.249423	-0.310289	-2.383264	0.368980
1.900	2.204318	-0.171312	639.840847	2.309857	15.140171	-0.317186	-2.366240	0.361005
1.910	2.184789	-0.135991	639.953107	2.256432	15.042150	-0.323986	-2.350508	0.352593
1.920	2.161206	-0.113218	640.183462	2.201884	14.951760	-0.329455	-2.335543	0.343946
1.930	2.140886	-0.108038	640.503325	2.148139	14.863833	-0.332545	-2.320649	0.335383
1.940	2.131189	-0.120739	640.866565	2.097114	14.772924	-0.332781	-2.305148	0.327231
1.950	2.136837	-0.148183	641.217580	2.050052	14.674732	-0.330361	-2.288573	0.319712
1.960	2.158591	-0.185595	641.502200	2.006922	14.567095	-0.325997	-2.270779	0.312847
1.970	2.193873	-0.228434	641.678070	1.966038	14.450182	-0.320573	-2.251936	0.306390
1.980	2.238728	-0.274068	641.721833	1.924203	14.325815	-0.314806	-2.232403	0.299850
1.990	2.289772	-0.322666	641.632607	1.877628	14.196267	-0.309054	-2.212523	0.292633
2.000	2.344974	-0.376742	641.432355	1.823420	14.063107	-0.303327	-2.192454	0.284273
2.010	2.403287	-0.439414	641.162545	1.760915	13.926711	-0.297444	-2.172103	0.274644
2.020	2.464021	-0.512219	640.875676	1.692128	13.786649	-0.291239	-2.151221	0.264034
2.030	2.526612	-0.593643	640.622210	1.621085	13.642600	-0.284714	-2.129586	0.253049
2.040	2.590574	-0.679144	640.437062	1.552413	13.495081	-0.278101	-2.107167	0.242399
2.050	2.655143	-0.762600	640.331353	1.489933	13.345546	-0.271811	-2.084163	0.232682
2.060	2.718625	-0.838286	640.292971	1.435958	13.195973	-0.266273	-2.060927	0.224266
2.070	2.778052	-0.902244	640.295186	1.391486	13.048409	-0.261769	-2.037874	0.217319
2.080	2.829596	-0.952478	640.308921	1.356931	12.904819	-0.258331	-2.015405	0.211918
2.090	2.869681	-0.988250	640.313104	1.332676	12.767180	-0.255780	-1.993896	0.208129
2.100	2.896281	-1.009263	640.299319	1.318904	12.637631	-0.253857	-1.973707	0.205982
2.110	2.909809	-1.015370	640.270864	1.314795	12.518399	-0.252360	-1.955172	0.205350
2.120	2.913206	-1.006889	640.239302	1.317884	12.411307	-0.251175	-1.938542	0.205842
2.130	2.911335	-0.985126	640.221196	1.324417	12.316869	-0.250172	-1.923846	0.206869
2.140	2.910107	-0.952641	640.234914	1.330854	12.233308	-0.249047	-1.910753	0.207870
2.150	2.915680	-0.913142	640.295590	1.335656	12.156094	-0.247274	-1.898513	0.208600
2.160	2.933798	-0.871140	640.408116	1.340177	12.078504	-0.244214	-1.886064	0.209269
2.170	2.969066	-0.831475	640.561529	1.348102	11.993277	-0.239315	-1.872307	0.210456
2.180	3.024200	-0.798524	640.729368	1.363771	11.894725	-0.232319	-1.856435	0.212847
2.190	3.099483	-0.774932	640.877432	1.390253	11.780395	-0.223373	-1.838167	0.216930
2.200	3.192678	-0.760356	640.975581	1.427999	11.651548	-0.213053	-1.817784	0.222785
2.210	3.299208	-0.751188	641.007776	1.474569	11.512450	-0.202260	-1.795992	0.230039
2.220	3.412419	-0.741821	640.975863	1.525494	11.368998	-0.192017	-1.773701	0.237996
2.230	3.523955	-0.726874	640.896322	1.575806	11.227307	-0.183202	-1.751813	0.245875
2.240	3.624615	-0.702995	640.793054	1.621501	11.092618	-0.176323	-1.731076	0.253046
2.250	3.705827	-0.669409	640.690715	1.660310	10.968583	-0.171390	-1.711993	0.259144
2.260	3.761462	-0.627542	640.611062	1.691622	10.856898	-0.167936	-1.694772	0.264064
2.270	3.789382	-0.580630	640.571226	1.715886	10.757287	-0.165208	-1.679327	0.267868
2.280	3.792183	-0.533742	640.581515	1.734000	10.667901	-0.162448	-1.665346	0.270692
2.290	3.776844	-0.493716	640.642268	1.747008	10.586142	-0.159135	-1.652426	0.272696
2.300	3.753359	-0.468197	640.741807	1.756138	10.509711	-0.155126	-1.640241	0.274079
2.310	3.732608	-0.463527	640.857746	1.762963	10.437512	-0.150690	-1.628678	0.275094
2.320	3.723893	-0.482217	640.962166	1.769366	10.370053	-0.146443	-1.617889	0.276048
2.330	3.732743	-0.521361	641.029136	1.777130	10.309211	-0.143146	-1.608228	0.277231
2.340	3.759633	-0.572910	641.041983	1.787334	10.257458	-0.141404	-1.600123	0.278817
2.350	3.800036	-0.625798	640.997714	1.799943	10.216840	-0.141420	-1.593896	0.280803
2.360	3.845828	-0.669215	640.907312	1.813951	10.188038	-0.142988	-1.589627	0.283029
2.370	3.887571	-0.695919	640.792621	1.828016	10.169810	-0.145767	-1.587067	0.285274
