Time[s]	Fx[N]	Fy[N]	Fz[N]	Mx[Nm]	My[Nm]	Mz[Nm]	COPx[cm]	COPy[cm]
0.010	3.380067	-4.842272	704.246012	4.699198	11.632722	0.788648	-1.651798	0.667266
0.020	3.346633	-4.979548	704.888368	4.765394	11.644304	0.779625	-1.651936	0.676049
0.030	3.325110	-5.095855	705.423785	4.825523	11.647614	0.770158	-1.651151	0.684060
0.040	3.324896	-5.175473	705.770883	4.875408	11.637006	0.760377	-1.648836	0.690792
0.050	3.350554	-5.212246	705.893905	4.913619	11.611324	0.751046	-1.644911	0.696085
0.060	3.401239	-5.210192	705.807855	4.941702	11.573836	0.743315	-1.639800	0.700148
0.070	3.471221	-5.180726	705.570075	4.963442	11.530500	0.738225	-1.634210	0.703466
0.080	3.551087	-5.137858	705.262110	4.983421	11.487444	0.736216	-1.628819	0.706605
0.090	3.629397	-5.093462	704.967362	5.005412	11.448886	0.736900	-1.624031	0.710020
0.100	3.694806	-5.054351	704.750670	5.031282	11.416360	0.739151	-1.619915	0.713910
0.110	3.738513	-5.021877	704.645654	5.060811	11.389326	0.741404	-1.616320	0.718207
0.120	3.756482	-4.993692	704.653103	5.092436	11.366460	0.742024	-1.613058	0.722687
0.130	3.750515	-4.966486	704.749042	5.124507	11.346703	0.739680	-1.610034	0.727139
0.140	3.727528	-4.938159	704.897195	5.156430	11.329556	0.733682	-1.607264	0.731515
0.150	3.697292	-4.908408	705.059983	5.189216	11.314672	0.724241	-1.604781	0.735996
0.160	3.669596	-4.877901	705.204776	5.225226	11.301271	0.712518	-1.602552	0.740952
0.170	3.651867	-4.847107	705.305824	5.267264	11.287942	0.700381	-1.600432	0.746806
0.180	3.647757	-4.815839	705.344505	5.317376	11.273056	0.689893	-1.598234	0.753869
0.190	3.656782	-4.783724	705.310358	5.375807	11.255521	0.682701	-1.595825	0.762190
0.200	3.674950	-4.751013	705.203488	5.440594	11.235452	0.679556	-1.593221	0.771493
0.210	3.696192	-4.718948	705.037020	5.508076	11.214434	0.680164	-1.590616	0.781246
0.220	3.714097	-4.689349	704.837413	5.574216	11.195269	0.683417	-1.588348	0.790851
0.230	3.723269	-4.663704	704.641148	5.636155	11.181221	0.687858	-1.586796	0.799862
0.240	3.719964	-4.642350	704.487882	5.693234	11.174911	0.692190	-1.586246	0.808138
0.250	3.702223	-4.624342	704.411459	5.746972	11.177208	0.695656	-1.586744	0.815854
0.260	3.669954	-4.608175	704.430832	5.800080	11.186543	0.698148	-1.588026	0.823371
0.270	3.625197	-4.592946	704.543586	5.855058	11.199018	0.700036	-1.589542	0.831043
0.280	3.572377	-4.579096	704.724845	5.913044	11.209333	0.701836	-1.590597	0.839057
0.290	3.518077	-4.568120	704.932864	5.973289	11.212251	0.703931	-1.590542	0.847356
0.300	3.469970	-4.561450	705.120031	6.033388	11.204085	0.706454	-1.588961	0.855654
0.310	3.434994	-4.559279	705.246055	6.090121	11.183713	0.709290	-1.585789	0.863546
0.320	3.417304	-4.559950	705.289331	6.140590	11.152760	0.712093	-1.581303	0.870648
0.330	3.416877	-4.559937	705.252579	6.183159	11.114887	0.714315	-1.576015	0.876730
0.340	3.429509	-4.554273	705.160565	6.217858	11.074518	0.715307	-1.570496	0.881765
0.350	3.448438	-4.537534	705.050728	6.246177	11.035536	0.714525	-1.565212	0.885919
0.360	3.466998	-4.505652	704.960387	6.270505	11.000428	0.711755	-1.560432	0.889483
0.370	3.481129	-4.458304	704.915105	6.293588	10.969987	0.707265	-1.556214	0.892815
0.380	3.490558	-4.400697	704.921744	6.318189	10.943378	0.701851	-1.552425	0.896297
0.390	3.498172	-4.343190	704.967846	6.346839	10.918433	0.696773	-1.548784	0.900302
0.400	3.508108	-4.298062	705.027014	6.381473	10.892213	0.693496	-1.544936	0.905139
0.410	3.523788	-4.274557	705.068289	6.422888	10.861920	0.693261	-1.540549	0.910960
0.420	3.546932	-4.274714	705.066631	6.470243	10.826009	0.696635	-1.535459	0.917678
0.430	3.577620	-4.292348	705.011403	6.520938	10.785069	0.703255	-1.529772	0.924941
0.440	3.614642	-4.315890	704.910087	6.571116	10.741947	0.711896	-1.523875	0.932192
0.450	3.655496	-4.333631	704.785699	6.616729	10.700851	0.720819	-1.518313	0.938829
0.460	3.696205	-4.338629	704.668834	6.654862	10.665755	0.728259	-1.513584	0.944396
0.470	3.731729	-4.330991	704.587408	6.684800	10.638828	0.732886	-1.509937	0.948754
0.480	3.757370	-4.316864	704.558059	6.708286	10.619623	0.734152	-1.507274	0.952127
0.490	3.770668	-4.305042	704.582341	6.728739	10.605344	0.732434	-1.505196	0.954997
0.500	3.772720	-4.302881	704.648456	6.749691	10.592025	0.728875	-1.503164	0.957881
0.510	3.767978	-4.313339	704.736578	6.773213	10.576088	0.724926	-1.500715	0.961099
0.520	3.762451	-4.334343	704.824943	6.799110	10.555656	0.721772	-1.497628	0.964652
0.530	3.761205	-4.360410	704.895123	6.825266	10.531111	0.719932	-1.493997	0.968267
0.540	3.766462	-4.385399	704.935960	6.848902	10.504661	0.719281	-1.490158	0.971564
0.550	3.777261	-4.405024	704.945496	6.868012	10.479178	0.719430	-1.486523	0.974261
0.560	3.790532	-4.418234	704.929862	6.882191	10.456920	0.720195	-1.483399	0.976294
0.570	3.802700	-4.427095	704.898839	6.892498	10.438727	0.721774	-1.480883	0.977800
0.580	3.810899	-4.435297	704.859772	6.900641	10.424012	0.724532	-1.478877	0.979009
0.590	3.813551	-4.445996	704.813225	6.908163	10.411432	0.728564	-1.477190	0.980141
0.600	3.810441	-4.460135	704.753598	6.916165	10.399869	0.733382	-1.475674	0.981359
0.610	3.802386	-4.476115	704.675333	6.925604	10.389175	0.737975	-1.474321	0.982808
0.620	3.790542	-4.490774	704.581591	6.937699	10.380253	0.741205	-1.473251	0.984655
0.630	3.775623	-4.500909	704.490083	6.953877	10.374391	0.742294	-1.472610	0.987079
0.640	3.757619	-4.504566	704.431843	6.975067	10.372188	0.741147	-1.472419	0.990169
0.650	3.736421	-4.501765	704.442458	7.000848	10.372697	0.738369	-1.472469	0.993814
0.660	3.713065	-4.494577	704.549217	7.029212	10.373338	0.735027	-1.472337	0.997689
0.670	3.690768	-4.486580	704.759542	7.057271	10.370773	0.732279	-1.471534	1.001373
0.680	3.674745	-4.481766	705.055093	7.082415	10.362354	0.730984	-1.469723	1.004519
0.690	3.670487	-4.483118	705.393159	7.103073	10.347379	0.731404	-1.466895	1.006967
0.700	3.681217	-4.491252	705.714637	7.118655	10.327422	0.733100	-1.463399	1.008716
0.710	3.705925	-4.503619	705.956640	7.128970	10.305548	0.735073	-1.459799	1.009831
0.720	3.739232	-4.514690	706.066674	7.133845	10.284842	0.736114	-1.456639	1.010364
0.730	3.773456	-4.517203	706.014540	7.133394	10.266967	0.735238	-1.454215	1.010375
0.740	3.802085	-4.504295	705.798657	7.128730	10.251395	0.732033	-1.452453	1.010023
0.750	3.822954	-4.471992	705.445503	7.122542	10.235647	0.726813	-1.450948	1.009652
0.760	3.839221	-4.421229	705.003167	7.118964	10.216538	0.720520	-1.449148	1.009778
0.770	3.857190	-4.358486	704.531682	7.122645	10.192028	0.714427	-1.446639	1.010976
0.780	3.881739	-4.294496	704.093157	7.137378	10.162895	0.709758	-1.443402	1.013698
0.790	3.911800	-4.241333	703.743878	7.164881	10.133322	0.707390	-1.439916	1.018109
0.800	3.938692	-4.208775	703.528975	7.204217	10.109877	0.707697	-1.437024	1.024011
0.810	3.948750	-4.201248	703.478885	7.252015	10.099186	0.710563	-1.435606	1.030879
0.820	3.929297	-4.216542	703.606261	7.303480	10.105361	0.715462	-1.436224	1.038007
0.830	3.875040	-4.246829	703.902321	7.353831	10.128398	0.721580	-1.438893	1.044723
0.840	3.791620	-4.281428	704.332941	7.399644	10.164203	0.727963	-1.443096	1.050589
0.850	3.694580	-4.310014	704.836977	7.439571	10.205997	0.733710	-1.447994	1.055502
0.860	3.604369	-4.325072	705.331424	7.474189	10.246321	0.738187	-1.452696	1.059671
0.870	3.539893	-4.323021	705.727030	7.505182	10.278741	0.741172	-1.456475	1.063468
0.880	3.513565	-4.304026	705.952303	7.534286	10.298816	0.742862	-1.458854	1.067251
0.890	3.529471	-4.270968	705.976544	7.562501	10.304339	0.743746	-1.459587	1.071211
0.900	3.584435	-4.228248	705.820050	7.589871	10.295253	0.744363	-1.458623	1.075327
0.910	3.670458	-4.180939	705.545262	7.615775	10.273539	0.745037	-1.456113	1.079417
0.920	3.776955	-4.134316	705.233072	7.639401	10.243077	0.745690	-1.452439	1.083245
0.930	3.892091	-4.093452	704.956164	7.660028	10.209169	0.745799	-1.448199	1.086596
0.940	4.003478	-4.062602	704.761046	7.677063	10.177645	0.744557	-1.444127	1.089314
0.950	4.098990	-4.044340	704.663613	7.690060	10.153803	0.741176	-1.440943	1.091309
0.960	4.168251	-4.038720	704.655330	7.698904	10.141547	0.735266	-1.439221	1.092577
0.970	4.204730	-4.042954	704.713367	7.704084	10.142922	0.727178	-1.439298	1.093222
0.980	4.207763	-4.051933	704.809387	7.706796	10.157938	0.718157	-1.441232	1.093458
0.990	4.183391	-4.059501	704.915236	7.708725	10.184575	0.710169	-1.444794	1.093568
1.000	4.143150	-4.060091	705.006184	7.711666	10.218978	0.705342	-1.449488	1.093844
1.010	4.100878	-4.050262	705.062797	7.717187	10.256012	0.705171	-1.454624	1.094539
1.020	4.068652	-4.029690	705.072451	7.726493	10.290302	0.709830	-1.459467	1.095844
1.030	4.053413	-4.001206	705.030985	7.740426	10.317609	0.717951	-1.463426	1.097885
1.040	4.055392	-3.969661	704.943782	7.759453	10.336086	0.727023	-1.466228	1.100719
1.050	4.068665	-3.939960	704.824974	7.783534	10.346885	0.734238	-1.468008	1.104322
1.060	4.083506	-3.915255	704.694556	7.811928	10.353833	0.737419	-1.469265	1.108555
1.070	4.089854	-3.896397	704.574602	7.843052	10.362239	0.735645	-1.470709	1.113161
1.080	4.081044	-3.883002	704.485870	7.874504	10.377227	0.729432	-1.473021	1.117766
1.090	4.056540	-3.875346	704.445105	7.903302	10.402226	0.720505	-1.476655	1.121919
1.100	4.022231	-3.875599	704.462741	7.926495	10.438212	0.711286	-1.481727	1.125183
1.110	3.987686	-3.887308	704.540775	7.942147	10.483931	0.704244	-1.488052	1.127280
1.120	3.961412	-3.913263	704.671340	7.950287	10.536804	0.701244	-1.495279	1.128226
1.130	3.946548	-3.953018	704.837249	7.953140	10.593891	0.703080	-1.503027	1.128365
1.140	3.939386	-4.001662	705.015472	7.954270	10.652430	0.709341	-1.510950	1.128240
1.150	3.931582	-4.050675	705.182780	7.956954	10.709868	0.718618	-1.518736	1.128353
1.160	3.914872	-4.090418	705.320999	7.962712	10.763672	0.728957	-1.526067	1.128949
1.170	3.885688	-4.112949	705.419062	7.970868	10.811396	0.738391	-1.532620	1.129948
1.180	3.847283	-4.114007	705.471302	7.979388	10.851208	0.745422	-1.538150	1.131072
1.190	3.808340	-4.093730	705.474410	7.986369	10.882665	0.749264	-1.542602	1.132056
1.200	3.778929	-4.056333	705.426609	7.991144	10.907206	0.749798	-1.546186	1.132810
1.210	3.765871	-4.009022	705.330411	7.994363	10.927931	0.747353	-1.549335	1.133421
1.220	3.769729	-3.960450	705.196824	7.997174	10.948737	0.742521	-1.552579	1.134034
1.230	3.784613	-3.919052	705.046995	8.000211	10.973208	0.736128	-1.556380	1.134706
1.240	3.800649	-3.891588	704.908405	8.003096	11.003758	0.729279	-1.561020	1.135338
1.250	3.807861	-3.881987	704.806100	8.004683	11.041316	0.723275	-1.566575	1.135728
1.260	3.799788	-3.890452	704.753011	8.003776	11.085498	0.719322	-1.572962	1.135685
1.270	3.775413	-3.912992	704.744767	7.999871	11.135061	0.718115	-1.580013	1.135144
1.280	3.738808	-3.941853	704.762270	7.993544	11.188435	0.719538	-1.587547	1.134218
1.290	3.696958	-3.967231	704.780933	7.986335	11.244214	0.722711	-1.595420	1.133166
1.300	3.656960	-3.979955	704.781734	7.980199	11.301496	0.726420	-1.603546	1.132294
1.310	3.623695	-3.974174	704.758180	7.976805	11.359896	0.729698	-1.611886	1.131850
1.320	3.598690	-3.948989	704.715821	7.977016	11.419243	0.732219	-1.620404	1.131948
1.330	3.580402	-3.908539	704.665463	7.980681	11.479209	0.734297	-1.629030	1.132549
1.340	3.565742	-3.860646	704.615056	7.986653	11.539201	0.736560	-1.637660	1.133477
1.350	3.552085	-3.814600	704.565695	7.992959	11.598588	0.739504	-1.646204	1.134452
1.360	3.538570	-3.778769	704.513944	7.997161	11.657080	0.743162	-1.654627	1.135132
1.370	3.525906	-3.758720	704.458040	7.996909	11.714963	0.746995	-1.662975	1.135186
1.380	3.514837	-3.756288	704.402978	7.990536	11.773075	0.750001	-1.671355	1.134370
1.390	3.504226	-3.769701	704.360852	7.977430	11.832567	0.751017	-1.679901	1.132577
1.400	3.489898	-3.794510	704.346379	7.958060	11.894583	0.749140	-1.688741	1.129850
1.410	3.465080	-3.824890	704.370470	7.933722	11.959894	0.744116	-1.697955	1.126356
1.420	3.422724	-3.854911	704.435058	7.906146	12.028512	0.736489	-1.707540	1.122338
1.430	3.359009	-3.879559	704.530621	7.877007	12.099424	0.727400	-1.717374	1.118050
1.440	3.276254	-3.895569	704.636367	7.847327	12.170611	0.718131	-1.727219	1.113670
1.450	3.183350	-3.902130	704.723534	7.816913	12.239439	0.709656	-1.736772	1.109217
1.460	3.093030	-3.901223	704.763198	7.784196	12.303345	0.702406	-1.745742	1.104512
1.470	3.017182	-3.897126	704.738120	7.746776	12.360573	0.696330	-1.753924	1.099242
1.480	2.962510	-3.894949	704.653632	7.702560	12.410737	0.691157	-1.761253	1.093099
1.490	2.928694	-3.898656	704.540270	7.650868	12.454979	0.686696	-1.767816	1.085938
1.500	2.909841	-3.909545	704.444410	7.592841	12.495656	0.683012	-1.773831	1.077848
1.510	2.898188	-3.925998	704.410401	7.530965	12.535640	0.680395	-1.779593	1.069116
1.520	2.887928	-3.944609	704.463308	7.468071	12.577505	0.679218	-1.785402	1.060108
1.530	2.877182	-3.962099	704.601140	7.406378	12.622932	0.679747	-1.791500	1.051145
1.540	2.867497	-3.977130	704.799174	7.346985	12.672470	0.681968	-1.798026	1.042422
1.550	2.861693	-3.991324	705.021309	7.289824	12.725544	0.685507	-1.804987	1.033986
1.560	2.861562	-4.009144	705.230724	7.233939	12.780541	0.689672	-1.812250	1.025755
1.570	2.866623	-4.036515	705.395965	7.177888	12.835017	0.693629	-1.819548	1.017569
1.580	2.874189	-4.078518	705.493713	7.120139	12.886254	0.696613	-1.826558	1.009242
1.590	2.880234	-4.137042	705.510970	7.059322	12.932209	0.698055	-1.833027	1.000597
1.600	2.880271	-4.209474	705.447076	6.994286	12.972486	0.697613	-1.838903	0.991469
1.610	2.869961	-4.288986	705.313268	6.924057	13.008705	0.695197	-1.844387	0.981700
1.620	2.845720	-4.366284	705.127554	6.847902	13.043949	0.691047	-1.849871	0.971158
1.630	2.805643	-4.432187	704.906484	6.765591	13.081460	0.685815	-1.855772	0.959786
1.640	2.750473	-4.480366	704.659591	6.677683	13.123212	0.680495	-1.862348	0.947647
1.650	2.683888	-4.509386	704.391610	6.585512	13.169041	0.676148	-1.869562	0.934922
1.660	2.611707	-4.523211	704.111419	6.490663	13.216735	0.673506	-1.877080	0.921823
1.670	2.540308	-4.529770	703.840962	6.394183	13.263048	0.672682	-1.884381	0.908470
1.680	2.475063	-4.538219	703.617697	6.296163	13.305118	0.673154	-1.890958	0.894827
1.690	2.419328	-4.556210	703.488655	6.196240	13.341609	0.674074	-1.896492	0.880788
1.700	2.374157	-4.588334	703.498184	6.094860	13.373004	0.674743	-1.900929	0.866365
1.710	2.338671	-4.635988	703.673440	5.994427	13.400939	0.675009	-1.904426	0.851876
1.720	2.311063	-4.698031	704.012803	5.899327	13.426911	0.675337	-1.907197	0.837957
1.730	2.290002	-4.771364	704.481953	5.814547	13.451031	0.676465	-1.909351	0.825365
1.740	2.275970	-4.851215	705.019440	5.743584	13.471534	0.678845	-1.910803	0.814670
1.750	2.271875	-4.931548	705.549424	5.686804	13.485308	0.682203	-1.911320	0.806011
1.760	2.282491	-5.006089	705.996970	5.641098	13.489124	0.685543	-1.910649	0.799026
1.770	2.312786	-5.069836	706.301878	5.600870	13.480896	0.687644	-1.908659	0.792985
1.780	2.365663	-5.120330	706.428973	5.559796	13.460463	0.687757	-1.905423	0.787028
1.790	2.439911	-5.157882	706.373755	5.512608	13.429743	0.686063	-1.901223	0.780409
1.800	2.529248	-5.184505	706.162490	5.456394	13.392365	0.683634	-1.896499	0.772683
1.810	2.623101	-5.202202	705.846393	5.391172	13.352873	0.681931	-1.891753	0.763788
1.820	2.709372	-5.211701	705.491157	5.319671	13.315671	0.682089	-1.887433	0.754038
1.830	2.778479	-5.212377	705.164407	5.246402	13.283941	0.684353	-1.883808	0.743997
1.840	2.827047	-5.203249	704.923644	5.176266	13.258907	0.687957	-1.880900	0.734302
1.850	2.859316	-5.184266	704.806144	5.113067	13.239734	0.691485	-1.878493	0.725457
1.860	2.885287	-5.157115	704.821398	5.058434	13.224110	0.693528	-1.876236	0.717690
1.870	2.916217	-5.125360	704.947301	5.011541	13.209246	0.693279	-1.873792	0.710910
1.880	2.959632	-5.094098	705.132736	4.969786	13.192823	0.690818	-1.870970	0.704801
1.890	3.016287	-5.069264	705.308924	4.930105	13.173507	0.687038	-1.867764	0.698999
1.900	3.080471	-5.056458	705.408457	4.890310	13.150975	0.683320	-1.864306	0.693259
1.910	3.143139	-5.059444	705.386178	4.849834	13.125676	0.681073	-1.860779	0.687543
1.920	3.195906	-5.078864	705.233710	4.809616	13.098557	0.681265	-1.857336	0.681989
1.930	3.233850	-5.111749	704.981869	4.771345	13.070820	0.684099	-1.854065	0.676804
1.940	3.256196	-5.151912	704.690702	4.736659	13.043619	0.688998	-1.850971	0.672161
1.950	3.265412	-5.191004	704.431809	4.706833	13.017732	0.694918	-1.847976	0.668174
1.960	3.265885	-5.220016	704.269007	4.682998	12.993364	0.700830	-1.844943	0.664945
1.970	3.262913	-5.231087	704.242274	4.666410	12.970216	0.706095	-1.841726	0.662614
1.980	3.261901	-5.219303	704.358284	4.658209	12.947738	0.710570	-1.838232	0.661341
1.990	3.267446	-5.183936	704.589423	4.658593	12.925416	0.714453	-1.834461	0.661178
2.000	3.282291	-5.128627	704.881635	4.665952	12.902896	0.718029	-1.830505	0.661948
2.010	3.306545	-5.060577	705.169452	4.676712	12.879877	0.721491	-1.826494	0.663204
2.020	3.337691	-4.989245	705.394112	4.686244	12.855942	0.724882	-1.822519	0.664344
2.030	3.371551	-4.924865	705.518857	4.690480	12.830523	0.728120	-1.818594	0.664827
2.040	3.403840	-4.876686	705.536195	4.687457	12.803061	0.731032	-1.814657	0.664382
2.050	3.431666	-4.850832	705.465210	4.678044	12.773138	0.733343	-1.810598	0.663115
2.060	3.454432	-4.848326	705.341057	4.665541	12.740393	0.734660	-1.806274	0.661459
2.070	3.473977	-4.864334	705.201611	4.654267	12.704354	0.734495	-1.801521	0.659991
2.080	3.493931	-4.889366	705.076636	4.647714	12.664531	0.732381	-1.796192	0.659179
2.090	3.518371	-4.912169	704.982801	4.647110	12.620990	0.728109	-1.790255	0.659181
2.100	3.550125	-4.923153	704.924341	4.651101	12.575167	0.722035	-1.783903	0.659801
2.110	3.589336	-4.917044	704.896695	4.656701	12.530329	0.715283	-1.777612	0.660622
2.120	3.632932	-4.893983	704.890446	4.661024	12.491129	0.709649	-1.772067	0.661241
2.130	3.675158	-4.858981	704.894691	4.662834	12.462195	0.707103	-1.767951	0.661494
2.140	3.708855	-4.820071	704.900293	4.663100	12.446383	0.709056	-1.765694	0.661526
2.150	3.727085	-4.785769	704.902948	4.664351	12.443593	0.715757	-1.765292	0.661701
2.160	3.724913	-4.762713	704.904823	4.669281	12.450721	0.726162	-1.766298	0.662399
2.170	3.701210	-4.754251	704.913067	4.679322	12.462724	0.738305	-1.767980	0.663815
2.180	3.659868	-4.760249	704.934920	4.693760	12.474218	0.749937	-1.769556	0.665843
2.190	3.609555	-4.777618	704.971829	4.709727	12.480950	0.759119	-1.770418	0.668073
2.200	3.561478	-4.800974	705.016336	4.723118	12.480701	0.764637	-1.770271	0.669930
2.210	3.525726	-4.823315	705.053759	4.730143	12.473507	0.766239	-1.769157	0.670891
2.220	3.507852	-4.837098	705.067442	4.728856	12.461311	0.764692	-1.767393	0.670696
2.230	3.507478	-4.836003	705.044798	4.719922	12.447203	0.761550	-1.765449	0.669450
2.240	3.519538	-4.817170	704.981993	4.706234	12.434517	0.758601	-1.763806	0.667568
2.250	3.537175	-4.783045	704.886350	4.691571	12.426038	0.757105	-1.762843	0.665578
2.260	3.554390	-4.741785	704.776077	4.678989	12.423553	0.757231	-1.762766	0.663897
2.270	3.567075	-4.705472	704.677016	4.669772	12.427795	0.758029	-1.763616	0.662683
2.280	3.572486	-4.686216	704.616539	4.663349	12.438567	0.758026	-1.765296	0.661828
2.290	3.568417	-4.691455	704.615769	4.658091	12.454809	0.756071	-1.767603	0.661082
2.300	3.553316	-4.720452	704.682569	4.652500	12.474522	0.751889	-1.770233	0.660226
2.310	3.527552	-4.763822	704.807937	4.646208	12.494740	0.746038	-1.772787	0.659216
2.320	3.494809	-4.806495	704.967183	4.640268	12.511809	0.739404	-1.774807	0.658225
2.330	3.462249	-4.832841	705.125539	4.636591	12.522061	0.732667	-1.775863	0.657555
2.340	3.438785	-4.831785	705.246614	4.636910	12.522695	0.726122	-1.775648	0.657488
2.350	3.431995	-4.800050	705.301429	4.641918	12.512496	0.719867	-1.774064	0.658147
2.360	3.445011	-4.742768	705.275593	4.651015	12.492120	0.714140	-1.771239	0.659461
2.370	3.474752	-4.671757	705.172836	4.662568	12.463907	0.709490	-1.767497	0.661195
2.380	3.512437	-4.602230	705.014403	4.674408	12.431438	0.706651	-1.763288	0.663023
2.390	3.546425	-4.548778	704.834867	4.684353	12.399025	0.706217	-1.759139	0.664603
2.400	3.566355	-4.521580	704.675337	4.690728	12.371189	0.708320	-1.755587	0.665658
