Time[s]	Fx[N]	Fy[N]	Fz[N]	Mx[Nm]	My[Nm]	Mz[Nm]	COPx[cm]	COPy[cm]
0.010	4.337609	-1.894355	652.817239	-4.806261	15.999235	-0.239145	-2.450798	-0.736234
0.020	4.409001	-1.856441	652.460185	-4.764711	15.991186	-0.241489	-2.450906	-0.730268
0.030	4.474262	-1.822040	652.206310	-4.720395	15.989298	-0.243776	-2.451571	-0.723758
0.040	4.528192	-1.791943	652.128317	-4.671550	15.998881	-0.246166	-2.453333	-0.716354
0.050	4.568724	-1.763509	652.246011	-4.617648	16.023598	-0.248651	-2.456680	-0.707961
0.060	4.596082	-1.732236	652.522491	-4.559632	16.065159	-0.251163	-2.462009	-0.698770
0.070	4.610717	-1.694689	652.877243	-4.499569	16.123499	-0.253699	-2.469606	-0.689191
0.080	4.611538	-1.650793	653.210814	-4.439798	16.197264	-0.256339	-2.479638	-0.679688
0.090	4.595873	-1.603933	653.432898	-4.382005	16.284220	-0.259140	-2.492103	-0.670613
0.100	4.561579	-1.558964	653.485068	-4.326771	16.381280	-0.261992	-2.506757	-0.662107
0.110	4.510288	-1.519558	653.351622	-4.273782	16.484272	-0.264481	-2.523032	-0.654132
0.120	4.449674	-1.486504	653.057052	-4.222479	16.587950	-0.265830	-2.540046	-0.646571
0.130	4.392548	-1.457657	652.654027	-4.172767	16.686696	-0.265010	-2.556745	-0.639354
0.140	4.351964	-1.429262	652.208314	-4.125506	16.775930	-0.261092	-2.572174	-0.632544
0.150	4.334173	-1.397805	651.785777	-4.082647	16.853642	-0.253782	-2.585764	-0.626379
0.160	4.333306	-1.361449	651.443525	-4.047009	16.921339	-0.243853	-2.597514	-0.621237
0.170	4.331267	-1.320453	651.224917	-4.021737	16.983931	-0.233146	-2.607998	-0.617565
0.180	4.303393	-1.276596	651.156889	-4.009513	17.048546	-0.224052	-2.618193	-0.615752
0.190	4.227334	-1.232228	651.247824	-4.011662	17.122619	-0.218693	-2.629202	-0.615996
0.200	4.091148	-1.189728	651.485155	-4.027493	17.211761	-0.218211	-2.641927	-0.618202
0.210	3.897483	-1.151649	651.833846	-4.054162	17.318017	-0.222505	-2.656815	-0.621963
0.220	3.662857	-1.121113	652.238112	-4.087164	17.439057	-0.230421	-2.673726	-0.626637
0.230	3.413037	-1.101612	652.628119	-4.121363	17.568652	-0.240252	-2.691985	-0.631502
0.240	3.176461	-1.095833	652.931601	-4.152373	17.698359	-0.250289	-2.710599	-0.635958
0.250	2.977592	-1.104012	653.088628	-4.177937	17.819847	-0.259271	-2.728550	-0.639720
0.260	2.831854	-1.122925	653.066587	-4.198757	17.926974	-0.266621	-2.745045	-0.642929
0.270	2.743532	-1.146503	652.870912	-4.218264	18.016855	-0.272456	-2.759635	-0.646110
0.280	2.707237	-1.168152	652.546414	-4.241174	18.089744	-0.277346	-2.772177	-0.649942
0.290	2.712115	-1.183848	652.166692	-4.271310	18.148107	-0.281907	-2.782741	-0.654941
0.300	2.746710	-1.194519	651.814775	-4.309705	18.195550	-0.286387	-2.791522	-0.661186
0.310	2.802114	-1.206426	651.561995	-4.353899	18.236035	-0.290485	-2.798818	-0.668225
0.320	2.872161	-1.229079	651.451451	-4.398728	18.273426	-0.293540	-2.805033	-0.675220
0.330	2.951216	-1.271236	651.489534	-4.438143	18.311146	-0.294972	-2.810658	-0.681230
0.340	3.031567	-1.336562	651.646815	-4.467244	18.351789	-0.294679	-2.816217	-0.685531
0.350	3.102549	-1.420982	651.868101	-4.483850	18.396772	-0.293141	-2.822162	-0.687846
0.360	3.152292	-1.513147	652.089581	-4.489186	18.446196	-0.291177	-2.828782	-0.688431
0.370	3.171247	-1.598040	652.258272	-4.487547	18.499002	-0.289546	-2.836147	-0.688002
0.380	3.155613	-1.662210	652.346850	-4.485077	18.553395	-0.288665	-2.844100	-0.687530
0.390	3.108989	-1.698349	652.357750	-4.488027	18.607496	-0.288575	-2.852345	-0.687970
0.400	3.041666	-1.707298	652.315222	-4.500956	18.660098	-0.289144	-2.860595	-0.689997
0.410	2.967948	-1.696934	652.250326	-4.525378	18.711267	-0.290326	-2.868725	-0.693810
0.420	2.902278	-1.678827	652.187081	-4.559291	18.762456	-0.292293	-2.876852	-0.699077
0.430	2.855063	-1.664233	652.135949	-4.597894	18.815962	-0.295374	-2.885282	-0.705052
0.440	2.829362	-1.660848	652.095548	-4.635316	18.873999	-0.299833	-2.894361	-0.710834
0.450	2.819780	-1.671215	652.059141	-4.666695	18.937864	-0.305623	-2.904317	-0.715686
0.460	2.814429	-1.693054	652.021662	-4.689658	19.007631	-0.312223	-2.915184	-0.719249
0.470	2.799622	-1.721123	651.984373	-4.704523	19.082366	-0.318612	-2.926813	-0.721570
0.480	2.765591	-1.749630	651.955609	-4.713226	19.160530	-0.323388	-2.938932	-0.722937
0.490	2.710857	-1.774094	651.947143	-4.717656	19.240215	-0.325068	-2.951193	-0.723626
0.500	2.643343	-1.791954	651.967824	-4.718328	19.319120	-0.322527	-2.963201	-0.723706
0.510	2.577783	-1.802008	652.017945	-4.713986	19.394378	-0.315482	-2.974516	-0.722984
0.520	2.530426	-1.803328	652.087139	-4.702166	19.462495	-0.304855	-2.984646	-0.721095
0.530	2.513078	-1.794473	652.156513	-4.680285	19.519716	-0.292792	-2.993103	-0.717663
0.540	2.528707	-1.773528	652.204632	-4.646700	19.563030	-0.282203	-2.999523	-0.712460
0.550	2.570243	-1.739078	652.216091	-4.601360	19.591606	-0.275843	-3.003852	-0.705496
0.560	2.622968	-1.691645	652.189102	-4.545942	19.607922	-0.275238	-3.006478	-0.697028
0.570	2.669523	-1.634707	652.137186	-4.483523	19.617728	-0.279938	-3.008221	-0.687512
0.580	2.695567	-1.574468	652.082954	-4.417925	19.628554	-0.287547	-3.010131	-0.677510
0.590	2.693937	-1.518267	652.047707	-4.352878	19.647325	-0.294587	-3.013173	-0.667570
0.600	2.665842	-1.472283	652.043705	-4.291251	19.678115	-0.297827	-3.017914	-0.658123
0.610	2.618941	-1.439571	652.073475	-4.234640	19.720999	-0.295460	-3.024352	-0.649411
0.620	2.563448	-1.419222	652.134605	-4.183510	19.772491	-0.287634	-3.031965	-0.641510
0.630	2.508253	-1.406972	652.224543	-4.137769	19.827370	-0.276215	-3.039961	-0.634409
0.640	2.458818	-1.397025	652.340902	-4.097343	19.881009	-0.263985	-3.047641	-0.628098
0.650	2.417459	-1.384358	652.477489	-4.062343	19.931045	-0.253693	-3.054672	-0.622603
0.660	2.385137	-1.366544	652.620167	-4.032723	19.977676	-0.247298	-3.061149	-0.617928
0.670	2.363231	-1.344347	652.746870	-4.007788	20.022636	-0.245608	-3.067443	-0.613988
0.680	2.354123	-1.321019	652.832833	-3.986047	20.067584	-0.248332	-3.073924	-0.610577
0.690	2.360462	-1.300759	652.858570	-3.965650	20.112908	-0.254426	-3.080745	-0.607429
0.700	2.383883	-1.286924	652.816846	-3.945115	20.157603	-0.262503	-3.087788	-0.604322
0.710	2.424122	-1.280432	652.715901	-3.923849	20.200253	-0.271146	-3.094800	-0.601157
0.720	2.478882	-1.278882	652.577976	-3.902140	20.240394	-0.279072	-3.101605	-0.597958
0.730	2.544079	-1.276899	652.433744	-3.880663	20.279375	-0.285213	-3.108266	-0.594798
0.740	2.614008	-1.267824	652.314587	-3.859767	20.320210	-0.288803	-3.115094	-0.591703
0.750	2.681525	-1.246082	652.245531	-3.838929	20.366540	-0.289543	-3.122527	-0.588571
0.760	2.738648	-1.209150	652.241043	-3.816730	20.421234	-0.287772	-3.130934	-0.585172
0.770	2.777726	-1.158405	652.303804	-3.791470	20.485234	-0.284496	-3.140444	-0.581243
0.780	2.792933	-1.098782	652.424686	-3.761995	20.557007	-0.281175	-3.150863	-0.576617
0.790	2.781755	-1.037570	652.582208	-3.728165	20.632790	-0.279337	-3.161715	-0.571294
0.800	2.746083	-0.982714	652.742112	-3.690686	20.707611	-0.280193	-3.172403	-0.565413
0.810	2.692200	-0.940943	652.859963	-3.650603	20.776892	-0.284380	-3.182442	-0.559171
0.820	2.629128	-0.916082	652.889026	-3.608904	20.838085	-0.291840	-3.191673	-0.552759
0.830	2.565629	-0.907956	652.792440	-3.566433	20.891615	-0.301846	-3.200346	-0.546335
0.840	2.507055	-0.912252	652.556044	-3.524062	20.940678	-0.313177	-3.209024	-0.540040
0.850	2.453353	-0.921573	652.197822	-3.482944	20.990082	-0.324388	-3.218361	-0.534032
0.860	2.398945	-0.927516	651.770037	-3.444651	21.044816	-0.334088	-3.228871	-0.528507
0.870	2.334645	-0.923219	651.350803	-3.411006	21.108972	-0.341176	-3.240799	-0.523682
0.880	2.251248	-0.905583	651.025278	-3.383534	21.185199	-0.345008	-3.254129	-0.519724
0.890	2.143873	-0.876409	650.862074	-3.362764	21.274392	-0.345478	-3.268648	-0.516663
0.900	2.015506	-0.841965	650.893368	-3.347806	21.375334	-0.343043	-3.283999	-0.514340
0.910	1.878086	-0.810965	651.105462	-3.336584	21.484393	-0.338649	-3.299680	-0.512449
0.920	1.750340	-0.791456	651.442586	-3.326683	21.595554	-0.333561	-3.315036	-0.510664
0.930	1.653006	-0.787680	651.822983	-3.316420	21.701050	-0.329073	-3.329286	-0.508791
0.940	1.603188	-0.798246	652.162709	-3.305577	21.792566	-0.326160	-3.341584	-0.506864
0.950	1.609859	-0.816678	652.399181	-3.295424	21.862801	-0.325157	-3.351139	-0.505124
0.960	1.671967	-0.834175	652.505636	-3.288033	21.907019	-0.325628	-3.357369	-0.503909
0.970	1.779494	-0.843157	652.491580	-3.285277	21.924062	-0.326560	-3.360053	-0.503497
0.980	1.916722	-0.839849	652.391252	-3.288007	21.916476	-0.326831	-3.359407	-0.503993
0.990	2.066327	-0.824960	652.247559	-3.295646	21.889824	-0.325738	-3.356061	-0.505275
1.000	2.212841	-0.802618	652.099277	-3.306254	21.851612	-0.323281	-3.350964	-0.507017
1.010	2.344374	-0.778472	651.975521	-3.317030	21.810219	-0.320060	-3.345251	-0.508766
1.020	2.452310	-0.757933	651.896533	-3.325118	21.774001	-0.316867	-3.340101	-0.510068
1.030	2.529764	-0.745100	651.876412	-3.328526	21.750560	-0.314230	-3.336608	-0.510607
1.040	2.570174	-0.742359	651.923289	-3.326864	21.746131	-0.312177	-3.335689	-0.510315
1.050	2.567260	-0.750358	652.035561	-3.321670	21.764995	-0.310331	-3.338007	-0.509431
1.060	2.516768	-0.768180	652.196783	-3.316094	21.808747	-0.308266	-3.343891	-0.508450
1.070	2.419478	-0.793614	652.373577	-3.313960	21.875469	-0.305917	-3.353212	-0.507985
1.080	2.284073	-0.823484	652.519765	-3.318552	21.959153	-0.303810	-3.365286	-0.508575
1.090	2.128148	-0.854018	652.587021	-3.331640	22.049997	-0.302965	-3.378859	-0.510528
1.100	1.976211	-0.881402	652.539217	-3.353055	22.136008	-0.304483	-3.392288	-0.513847
1.110	1.854774	-0.902662	652.365683	-3.380754	22.205774	-0.308968	-3.403884	-0.518230
1.120	1.785906	-0.916710	652.088275	-3.411188	22.251497	-0.316099	-3.412344	-0.523118
1.130	1.781347	-0.924924	651.758784	-3.439903	22.271047	-0.324590	-3.417069	-0.527788
1.140	1.839300	-0.930732	651.446374	-3.462506	22.268133	-0.332566	-3.418260	-0.531511
1.150	1.945197	-0.938211	651.218427	-3.475969	22.250580	-0.338174	-3.416761	-0.533764
1.160	2.076116	-0.950383	651.121317	-3.479817	22.227579	-0.340115	-3.413738	-0.534434
1.170	2.207000	-0.967981	651.167999	-3.476524	22.207048	-0.337898	-3.410341	-0.533890
1.180	2.316349	-0.989133	651.335837	-3.470753	22.193943	-0.331784	-3.407450	-0.532867
1.190	2.389789	-1.009931	651.573783	-3.467711	22.189764	-0.322598	-3.405564	-0.532205
1.200	2.421220	-1.025596	651.816740	-3.471357	22.193072	-0.311593	-3.404802	-0.532566
1.210	2.412240	-1.031872	652.005107	-3.483270	22.200543	-0.300382	-3.404965	-0.534240
1.220	2.370703	-1.026366	652.104567	-3.502536	22.208127	-0.290855	-3.405608	-0.537113
1.230	2.308950	-1.009479	652.117241	-3.526516	22.212075	-0.284941	-3.406147	-0.540779
1.240	2.241792	-0.984413	652.077194	-3.552021	22.209679	-0.284166	-3.405989	-0.544724
1.250	2.184037	-0.956091	652.032227	-3.576382	22.199685	-0.289122	-3.404691	-0.548498
1.260	2.147401	-0.929478	652.022268	-3.598032	22.182328	-0.299099	-3.402081	-0.551826
1.270	2.137303	-0.908303	652.065136	-3.616512	22.159072	-0.312118	-3.398291	-0.554624
1.280	2.150882	-0.894720	652.153726	-3.632083	22.132224	-0.325399	-3.393713	-0.556937
1.290	2.177492	-0.889656	652.261827	-3.645336	22.104649	-0.336116	-3.388923	-0.558876
1.300	2.201827	-0.893308	652.353855	-3.657072	22.079710	-0.342178	-3.384622	-0.560596
1.310	2.208383	-0.905513	652.395923	-3.668366	22.061293	-0.342766	-3.381580	-0.562291
1.320	2.185511	-0.925969	652.367287	-3.680558	22.053627	-0.338512	-3.380554	-0.564185
1.330	2.127880	-0.954237	652.269582	-3.695029	22.060704	-0.331244	-3.382145	-0.566488
1.340	2.037232	-0.989461	652.128836	-3.712822	22.085383	-0.323386	-3.386660	-0.569339
1.350	1.922089	-1.029970	651.986545	-3.734320	22.128380	-0.317163	-3.393993	-0.572760
1.360	1.796915	-1.073184	651.882221	-3.759182	22.187491	-0.313866	-3.403604	-0.576666
1.370	1.680543	-1.116099	651.836019	-3.786608	22.257414	-0.313476	-3.414573	-0.580914
1.380	1.593298	-1.156168	651.841105	-3.815808	22.330425	-0.314800	-3.425747	-0.585389
1.390	1.552775	-1.191939	651.870248	-3.846407	22.397835	-0.316073	-3.435935	-0.590057
1.400	1.569136	-1.222951	651.892973	-3.878521	22.451932	-0.315765	-3.444113	-0.594963
1.410	1.641406	-1.248910	651.893606	-3.912511	22.487882	-0.313222	-3.449625	-0.600176
1.420	1.756360	-1.268817	651.880189	-3.948649	22.505043	-0.308895	-3.452328	-0.605732
1.430	1.891020	-1.280800	651.879819	-3.986962	22.507197	-0.304093	-3.452660	-0.611610
1.440	2.018544	-1.282927	651.924069	-4.027339	22.501470	-0.300418	-3.451548	-0.617762
1.450	2.115784	-1.274755	652.033313	-4.069726	22.496085	-0.299113	-3.450143	-0.624159
1.460	2.169811	-1.258823	652.207553	-4.114177	22.497572	-0.300578	-3.449450	-0.630808
1.470	2.180952	-1.241210	652.425964	-4.160611	22.508436	-0.304214	-3.449960	-0.637714
1.480	2.161346	-1.230459	652.652993	-4.208360	22.526265	-0.308631	-3.451492	-0.644808
1.490	2.129995	-1.234933	652.847826	-4.255782	22.544704	-0.312088	-3.453286	-0.651880
1.500	2.106626	-1.259548	652.974501	-4.300268	22.555897	-0.313009	-3.454330	-0.658566
1.510	2.106681	-1.303269	653.009820	-4.338620	22.553342	-0.310468	-3.453752	-0.664403
1.520	2.138550	-1.358446	652.946531	-4.367576	22.534064	-0.304518	-3.451135	-0.668902
1.530	2.202779	-1.412345	652.791574	-4.384275	22.499408	-0.296289	-3.446645	-0.671619
1.540	2.292415	-1.450480	652.562279	-4.386771	22.454439	-0.287760	-3.440965	-0.672238
1.550	2.394041	-1.460831	652.283790	-4.374808	22.406381	-0.281312	-3.435066	-0.670691
1.560	2.489805	-1.437579	651.988219	-4.350719	22.362736	-0.279277	-3.429929	-0.667300
1.570	2.560756	-1.383010	651.713255	-4.319917	22.329683	-0.283580	-3.426305	-0.662855
1.580	2.591028	-1.307067	651.498182	-4.290391	22.311146	-0.295441	-3.424591	-0.658542
1.590	2.571544	-1.225083	651.377490	-4.271216	22.308585	-0.315051	-3.424832	-0.655720
1.600	2.501918	-1.154625	651.373857	-4.270663	22.321234	-0.341287	-3.426793	-0.655639
1.610	2.390127	-1.112092	651.492600	-4.294702	22.346334	-0.371666	-3.430021	-0.659210
1.620	2.250551	-1.109489	651.719350	-4.346308	22.379161	-0.402656	-3.433865	-0.666899
1.630	2.101335	-1.151908	652.021802	-4.425460	22.413000	-0.430322	-3.437462	-0.678729
1.640	1.961776	-1.236480	652.354732	-4.529426	22.439478	-0.451167	-3.439766	-0.694320
1.650	1.849823	-1.353397	652.666575	-4.653017	22.449595	-0.462924	-3.439673	-0.712924
1.660	1.779570	-1.488830	652.906669	-4.788835	22.435447	-0.465062	-3.436241	-0.733464
1.670	1.758987	-1.628644	653.033514	-4.927805	22.392192	-0.458813	-3.428950	-0.754602
1.680	1.788563	-1.761484	653.023771	-5.060254	22.319455	-0.446742	-3.417863	-0.774896
1.690	1.861541	-1.880285	652.879802	-5.177464	22.221491	-0.432044	-3.403611	-0.793020
1.700	1.965839	-1.982055	652.632294	-5.273285	22.105970	-0.417777	-3.387201	-0.808002
1.710	2.087057	-2.066364	652.335490	-5.345255	21.981978	-0.406189	-3.369735	-0.819403
1.720	2.211599	-2.133377	652.055002	-5.394881	21.858048	-0.398250	-3.352179	-0.827366
1.730	2.328994	-2.182469	651.850912	-5.426937	21.740794	-0.393441	-3.335240	-0.832543
1.740	2.432887	-2.212142	651.761069	-5.447902	21.634261	-0.389875	-3.319355	-0.835874
1.750	2.520645	-2.221122	651.790336	-5.463984	21.539840	-0.384785	-3.304719	-0.838304
1.760	2.592122	-2.209729	651.910474	-5.479370	21.456589	-0.375380	-3.291340	-0.840510
1.770	2.648367	-2.180518	652.071711	-5.495326	21.381878	-0.359854	-3.279068	-0.842749
1.780	2.690780	-2.137882	652.221828	-5.510379	21.312300	-0.338170	-3.267646	-0.844863
1.790	2.720738	-2.087031	652.324626	-5.521338	21.244670	-0.312231	-3.256764	-0.846410
1.800	2.739538	-2.033000	652.369669	-5.524661	21.176825	-0.285296	-3.246139	-0.846861
1.810	2.748581	-1.979991	652.369575	-5.517701	21.108022	-0.260881	-3.235593	-0.845794
1.820	2.749645	-1.931034	652.347450	-5.499563	21.038929	-0.241589	-3.225111	-0.843042
1.830	2.745032	-1.887779	652.321972	-5.471449	20.971311	-0.228360	-3.214871	-0.838765
1.840	2.737432	-1.850453	652.297884	-5.436487	20.907493	-0.220399	-3.205206	-0.833436
1.850	2.729506	-1.818143	652.265797	-5.399061	20.849712	-0.215744	-3.196505	-0.827739
1.860	2.723341	-1.789362	652.210196	-5.363814	20.799528	-0.212119	-3.189084	-0.822406
1.870	2.720050	-1.762640	652.121085	-5.334515	20.757485	-0.207716	-3.183072	-0.818025
1.880	2.719788	-1.736785	652.003561	-5.313063	20.723078	-0.201639	-3.178369	-0.814882
1.890	2.722242	-1.710782	651.880870	-5.298946	20.694932	-0.193976	-3.174649	-0.812870
1.900	2.727314	-1.683521	651.789467	-5.289411	20.671086	-0.185543	-3.171436	-0.811521
1.910	2.735665	-1.653598	651.767914	-5.280370	20.649341	-0.177466	-3.168205	-0.810161
1.920	2.748988	-1.619286	651.843503	-5.267830	20.627685	-0.170805	-3.164515	-0.808143
1.930	2.770019	-1.578725	652.021063	-5.249361	20.604781	-0.166391	-3.160140	-0.805091
1.940	2.802267	-1.530441	652.277908	-5.224941	20.580322	-0.164926	-3.155146	-0.801030
1.950	2.849398	-1.474173	652.567401	-5.196743	20.555020	-0.167228	-3.149869	-0.796353
1.960	2.914177	-1.411826	652.830450	-5.167975	20.530117	-0.174352	-3.144785	-0.791626
1.970	2.996986	-1.348072	653.010820	-5.141492	20.506609	-0.187321	-3.140317	-0.787352
1.980	3.094274	-1.290089	653.069046	-5.118899	20.484663	-0.206489	-3.136676	-0.783822
1.990	3.197575	-1.246122	652.991492	-5.100446	20.463637	-0.230886	-3.133829	-0.781089
2.000	3.293835	-1.223130	652.793050	-5.085471	20.442842	-0.258039	-3.131596	-0.779033
2.010	3.367382	-1.224347	652.512881	-5.072954	20.422665	-0.284481	-3.129849	-0.777449
2.020	3.403237	-1.247555	652.203924	-5.061804	20.405363	-0.306757	-3.128678	-0.776107
2.030	3.390784	-1.284550	651.919467	-5.050763	20.394913	-0.322426	-3.128441	-0.774753
2.040	3.326471	-1.322106	651.701621	-5.038099	20.395807	-0.330689	-3.129623	-0.773068
2.050	3.214570	-1.344664	651.575299	-5.021395	20.411215	-0.332437	-3.132595	-0.770655
2.060	3.065903	-1.338443	651.547918	-4.997696	20.441370	-0.329807	-3.137355	-0.767050
2.070	2.895322	-1.295655	651.612118	-4.964103	20.482956	-0.325404	-3.143428	-0.761819
2.080	2.718900	-1.217076	651.748770	-4.918673	20.529899	-0.321458	-3.149971	-0.754689
2.090	2.551351	-1.111976	651.930167	-4.861358	20.575262	-0.319156	-3.156053	-0.745687
2.100	2.403775	-0.995705	652.125137	-4.794640	20.613383	-0.318315	-3.160955	-0.735233
2.110	2.282151	-0.886045	652.306361	-4.723560	20.641348	-0.317488	-3.164364	-0.724132
2.120	2.187426	-0.799346	652.456934	-4.654929	20.659219	-0.314512	-3.166373	-0.713446
2.130	2.117519	-0.747113	652.572165	-4.595787	20.669118	-0.307382	-3.167331	-0.704257
2.140	2.070138	-0.733666	652.655339	-4.551526	20.673668	-0.295166	-3.167624	-0.697386
2.150	2.044508	-0.755538	652.710086	-4.524473	20.674539	-0.278601	-3.167492	-0.693183
2.160	2.040934	-0.803010	652.733585	-4.513637	20.671686	-0.260035	-3.166941	-0.691498
2.170	2.058771	-0.863434	652.713828	-4.515730	20.663612	-0.242699	-3.165800	-0.691839
2.180	2.094457	-0.925154	652.632401	-4.526906	20.648449	-0.229631	-3.163871	-0.693638
2.190	2.141044	-0.980552	652.472619	-4.544374	20.625268	-0.222768	-3.161093	-0.696485
2.200	2.189643	-1.027289	652.230734	-4.567244	20.594920	-0.222573	-3.157613	-0.700250
2.210	2.232115	-1.067641	651.925632	-4.596523	20.560002	-0.228307	-3.153734	-0.705069
2.220	2.263727	-1.106397	651.601398	-4.634473	20.523967	-0.238674	-3.149773	-0.711244
2.230	2.284476	-1.148064	651.319281	-4.683665	20.489779	-0.252417	-3.145889	-0.719104
2.240	2.298557	-1.194472	651.140645	-4.745962	20.458737	-0.268520	-3.141984	-0.728869
2.250	2.312500	-1.243921	651.107444	-4.821722	20.430020	-0.285984	-3.137734	-0.740542
2.260	2.333069	-1.292269	651.228499	-4.909490	20.401105	-0.303502	-3.132711	-0.753881
2.270	2.365747	-1.335229	651.477290	-5.006296	20.368756	-0.319435	-3.126549	-0.768453
2.280	2.413937	-1.370539	651.801646	-5.108380	20.330021	-0.332238	-3.119050	-0.783732
2.290	2.478603	-1.399158	652.140425	-5.211950	20.282862	-0.341065	-3.110199	-0.799207
2.300	2.557866	-1.425313	652.440125	-5.313710	20.226351	-0.346146	-3.100108	-0.814436
2.310	2.646397	-1.455521	652.665876	-5.411051	20.160674	-0.348626	-3.088973	-0.829069
