Time[s]	Fx[N]	Fy[N]	Fz[N]	Mx[Nm]	My[Nm]	Mz[Nm]	COPx[cm]	COPy[cm]
0.010	6.922249	-0.826877	634.483917	6.266061	-9.579712	-0.279922	1.509843	0.987584
0.020	7.361955	-0.842652	632.471954	6.238898	-10.089421	-0.303071	1.595236	0.986431
0.030	7.793632	-0.854270	630.281096	6.210259	-10.578876	-0.323097	1.678438	0.985316
0.040	8.209646	-0.858585	627.794400	6.178680	-11.031506	-0.337714	1.757185	0.984188
0.050	8.604653	-0.856287	624.997015	6.142544	-11.436973	-0.345968	1.829924	0.982812
0.060	8.975434	-0.851970	621.982256	6.099970	-11.791708	-0.348392	1.895827	0.980731
0.070	9.319511	-0.853252	618.926682	6.048633	-12.097651	-0.346727	1.954618	0.977278
0.080	9.633416	-0.869530	616.045667	5.985747	-12.359944	-0.343320	2.006336	0.971640
0.090	9.911819	-0.910481	613.544809	5.908462	-12.584427	-0.340383	2.051102	0.963004
0.100	10.148114	-0.984058	611.581134	5.814665	-12.775572	-0.339305	2.088941	0.950759
0.110	10.335919	-1.094254	610.242652	5.703874	-12.935243	-0.340218	2.119688	0.934689
0.120	10.470249	-1.239626	609.547731	5.577806	-13.062493	-0.341978	2.142981	0.915073
0.130	10.547377	-1.413481	609.459611	5.440401	-13.154364	-0.342602	2.158365	0.892660
0.140	10.563522	-1.605468	609.907669	5.297367	-13.207422	-0.340093	2.165479	0.868552
0.150	10.513484	-1.803492	610.807027	5.155412	-13.219443	-0.333313	2.164259	0.844033
0.160	10.390723	-1.995183	612.071630	5.021309	-13.190575	-0.322536	2.155070	0.820379
0.170	10.189507	-2.169008	613.620688	4.900978	-13.123507	-0.309391	2.138700	0.798698
0.180	9.908342	-2.315484	615.380628	4.798795	-13.022662	-0.296282	2.116196	0.779809
0.190	9.552824	-2.428330	617.284187	4.717265	-12.892934	-0.285608	2.088654	0.764197
0.200	9.136236	-2.504645	619.267106	4.656945	-12.738681	-0.279120	2.057058	0.752009
0.210	8.677571	-2.543510	621.262959	4.616489	-12.563453	-0.277570	2.022244	0.743081
0.220	8.197935	-2.543796	623.197569	4.592837	-12.370343	-0.280638	1.984979	0.736979
0.230	7.716683	-2.503088	624.985910	4.581727	-12.162453	-0.287095	1.946036	0.733093
0.240	7.248289	-2.419165	626.535411	4.578549	-11.943009	-0.295120	1.906199	0.730773
0.250	6.800676	-2.293567	627.758349	4.579335	-11.715119	-0.302623	1.866183	0.729474
0.260	6.375649	-2.134988	628.591254	4.581552	-11.481607	-0.307468	1.826562	0.728860
0.270	5.971568	-1.960128	629.014268	4.584471	-11.245380	-0.307589	1.787778	0.728834
0.280	5.587449	-1.791212	629.062457	4.589113	-11.010378	-0.301145	1.750284	0.729516
0.290	5.226747	-1.651201	628.824457	4.597825	-10.782732	-0.286821	1.714744	0.731178
0.300	4.899136	-1.558684	628.428020	4.613623	-10.571441	-0.264263	1.682204	0.734153
0.310	4.619491	-1.524137	628.014884	4.639419	-10.387899	-0.234440	1.654085	0.738744
0.320	4.404470	-1.548346	627.709985	4.677412	-10.244060	-0.199739	1.631973	0.745155
0.330	4.267857	-1.622810	627.592878	4.728892	-10.149697	-0.163683	1.617242	0.753497
0.340	4.216219	-1.731435	627.680687	4.794497	-10.109806	-0.130255	1.610661	0.763843
0.350	4.246607	-1.852882	627.929065	4.874669	-10.123265	-0.102997	1.612167	0.776309
0.360	4.347503	-1.963196	628.250541	4.969981	-10.183320	-0.084150	1.620901	0.791083
0.370	4.502657	-2.038536	628.542138	5.081115	-10.279627	-0.074191	1.635471	0.808397
0.380	4.695924	-2.057972	628.711224	5.208404	-10.400849	-0.071985	1.654313	0.828426
0.390	4.914615	-2.006437	628.691408	5.351068	-10.536756	-0.075496	1.675982	0.851144
0.400	5.149832	-1.877834	628.446064	5.506448	-10.679163	-0.082662	1.699297	0.876201
0.410	5.394091	-1.677643	627.962537	5.669655	-10.821678	-0.091992	1.723300	0.902865
0.420	5.638071	-1.423699	627.243406	5.833961	-10.958764	-0.102674	1.747131	0.930095
0.430	5.868813	-1.143982	626.301186	5.991870	-11.084897	-0.114293	1.769899	0.956707
0.440	6.070745	-0.871405	625.159171	6.136425	-11.194459	-0.126411	1.790657	0.981578
0.450	6.229239	-0.637090	623.855853	6.262293	-11.282436	-0.138243	1.808501	1.003804
0.460	6.334955	-0.464427	622.447474	6.366441	-11.345437	-0.148566	1.822714	1.022808
0.470	6.386594	-0.365631	621.005081	6.448465	-11.382393	-0.155892	1.832898	1.038392
0.480	6.390366	-0.341107	619.607058	6.510546	-11.394506	-0.158834	1.838989	1.050754
0.490	6.356288	-0.380754	618.330989	6.556936	-11.384454	-0.156551	1.841158	1.060425
0.500	6.293353	-0.466368	617.247763	6.592972	-11.355198	-0.149098	1.839650	1.068124
0.510	6.206165	-0.574903	616.417849	6.623905	-11.308935	-0.137560	1.834622	1.074580
0.520	6.094532	-0.682731	615.888010	6.654026	-11.246588	-0.123894	1.826077	1.080395
0.530	5.955694	-0.770467	615.687518	6.686425	-11.168003	-0.110487	1.813908	1.086009
0.540	5.787650	-0.827001	615.824720	6.723328	-11.072668	-0.099581	1.798023	1.091760
0.550	5.591905	-0.850978	616.285594	6.766603	-10.960586	-0.092749	1.778491	1.097966
0.560	5.374572	-0.848989	617.035548	6.817995	-10.832843	-0.090616	1.755627	1.104960
0.570	5.145684	-0.831375	618.024519	6.878861	-10.691626	-0.092900	1.729968	1.113040
0.580	4.917193	-0.807652	619.193841	6.949487	-10.539803	-0.098691	1.702181	1.122344
0.590	4.700361	-0.783509	620.482470	7.028320	-10.380456	-0.106809	1.672965	1.132719
0.600	4.502996	-0.760247	621.830901	7.111592	-10.216630	-0.116129	1.642992	1.143654
0.610	4.327082	-0.736271	623.182959	7.193722	-10.051254	-0.125792	1.612890	1.154351
0.620	4.167691	-0.709522	624.486376	7.268512	-9.886982	-0.135236	1.583218	1.163919
0.630	4.014167	-0.679885	625.692533	7.330622	-9.725790	-0.144082	1.554404	1.171601
0.640	3.853961	-0.650758	626.755288	7.376523	-9.568535	-0.152004	1.526678	1.176938
0.650	3.678069	-0.629058	627.629125	7.404510	-9.414873	-0.158704	1.500070	1.179759
0.660	3.485885	-0.623285	628.267906	7.414006	-9.263728	-0.164001	1.474487	1.180071
0.670	3.287033	-0.640352	628.626458	7.404950	-9.114101	-0.167861	1.449844	1.177957
0.680	3.098819	-0.682775	628.667007	7.377821	-8.965779	-0.170308	1.426157	1.173566
0.690	2.939828	-0.747759	628.370422	7.334334	-8.819644	-0.171277	1.403574	1.167199
0.700	2.822188	-0.828595	627.749443	7.278278	-8.677562	-0.170573	1.382329	1.159424
0.710	2.745960	-0.917452	626.859070	7.215923	-8.542072	-0.168015	1.362678	1.151124
0.720	2.698390	-1.007907	625.798954	7.155658	-8.416155	-0.163657	1.344866	1.143444
0.730	2.658569	-1.095848	624.704115	7.106991	-8.303299	-0.157934	1.329157	1.137657
0.740	2.605470	-1.178415	623.724147	7.079267	-8.207810	-0.151690	1.315936	1.135000
0.750	2.525913	-1.251797	622.995985	7.080503	-8.135021	-0.146145	1.305790	1.136525
0.760	2.419326	-1.309426	622.618427	7.116492	-8.091048	-0.142888	1.299520	1.142994
0.770	2.297824	-1.342032	622.635578	7.190120	-8.081933	-0.143811	1.298020	1.154788
0.780	2.182024	-1.339949	623.032342	7.300834	-8.112294	-0.150802	1.302066	1.171823
0.790	2.094511	-1.296662	623.740984	7.444390	-8.183873	-0.165111	1.312063	1.193507
0.800	2.053527	-1.211789	624.655447	7.613225	-8.294436	-0.186672	1.327842	1.218788
0.810	2.069103	-1.092107	625.649517	7.797639	-8.437508	-0.213810	1.348600	1.246327
0.820	2.142545	-0.950351	626.595101	7.987550	-8.603204	-0.243590	1.373008	1.274755
0.830	2.268555	-0.802474	627.377659	8.174275	-8.780067	-0.272718	1.399487	1.302927
0.840	2.438422	-0.664248	627.907537	8.351692	-8.957510	-0.298615	1.426565	1.330083
0.850	2.642817	-0.547927	628.127795	8.516524	-9.128166	-0.320201	1.453234	1.355858
0.860	2.873416	-0.459543	628.019486	8.667805	-9.289384	-0.338019	1.479155	1.380181
0.870	3.123295	-0.397520	627.603980	8.805983	-9.443202	-0.353614	1.504643	1.403111
0.880	3.386631	-0.353304	626.940226	8.932183	-9.594679	-0.368458	1.530398	1.424726
0.890	3.658371	-0.314199	626.115052	9.048048	-9.749273	-0.383015	1.557106	1.445109
0.900	3.934169	-0.267533	625.226887	9.156108	-9.910544	-0.396435	1.585112	1.464446
0.910	4.210302	-0.204432	624.366577	9.260259	-10.079256	-0.407036	1.614317	1.483145
0.920	4.483114	-0.121564	623.601455	9.365776	-10.253976	-0.413254	1.644316	1.501885
0.930	4.747989	-0.020429	622.968415	9.478615	-10.432390	-0.414534	1.674626	1.521524
0.940	4.998466	0.094901	622.477733	9.604196	-10.612404	-0.411765	1.704865	1.542898
0.950	5.226320	0.219976	622.124148	9.746087	-10.792546	-0.407066	1.734790	1.566582
0.960	5.422916	0.351065	621.899056	9.905011	-10.971795	-0.403045	1.764241	1.592704
0.970	5.581350	0.485264	621.798397	10.078385	-11.149220	-0.401834	1.793060	1.620844
0.980	5.698449	0.620298	621.823476	10.260539	-11.323773	-0.404375	1.821059	1.650073
0.990	5.775992	0.754329	621.975492	10.443673	-11.494392	-0.410214	1.848046	1.679113
1.000	5.820958	0.885508	622.247591	10.619405	-11.660352	-0.417801	1.873909	1.706621
1.010	5.844785	1.011140	622.619147	10.780522	-11.821635	-0.425103	1.898694	1.731479
1.020	5.861554	1.126897	623.055449	10.922423	-11.979031	-0.430269	1.922627	1.753042
1.030	5.885203	1.226736	623.513359	11.043811	-12.133784	-0.432135	1.946034	1.771223
1.040	5.926497	1.303837	623.950672	11.146511	-12.286918	-0.430441	1.969213	1.786441
1.050	5.990941	1.352341	624.334640	11.234531	-12.438602	-0.425730	1.992297	1.799441
1.060	6.078460	1.369450	624.645490	11.312703	-12.587804	-0.419044	2.015192	1.811060
1.070	6.184710	1.357343	624.874273	11.385317	-12.732347	-0.411554	2.037585	1.822017
1.080	6.303101	1.324143	625.018067	11.455204	-12.869361	-0.404236	2.059038	1.832780
1.090	6.426675	1.283105	625.075987	11.523552	-12.996155	-0.397647	2.079132	1.843544
1.100	6.549497	1.249773	625.047397	11.590390	-13.111298	-0.391842	2.097649	1.854322
1.110	6.667493	1.237893	624.931889	11.655346	-13.215452	-0.386478	2.114703	1.865059
1.120	6.778557	1.255645	624.730416	11.718191	-13.311466	-0.381085	2.130754	1.875720
1.130	6.881826	1.303704	624.447372	11.778941	-13.403562	-0.375411	2.146468	1.886298
1.140	6.976567	1.375832	624.093278	11.837631	-13.495928	-0.369638	2.162486	1.896773
1.150	7.061495	1.461459	623.686779	11.894150	-13.591193	-0.364332	2.179170	1.907071
1.160	7.134989	1.549117	623.253812	11.948375	-13.689354	-0.360134	2.196433	1.917096
1.170	7.196007	1.629548	622.822550	12.000453	-13.787517	-0.357376	2.213715	1.926785
1.180	7.244997	1.697731	622.415416	12.050819	-13.880616	-0.355823	2.230121	1.936138
1.190	7.284110	1.753282	622.042219	12.099712	-13.962852	-0.354704	2.244679	1.945159
1.200	7.316386	1.799067	621.699088	12.146398	-14.029258	-0.352958	2.256599	1.953742
1.210	7.344278	1.838543	621.375350	12.188692	-14.076867	-0.349558	2.265437	1.961567
1.220	7.368438	1.873145	621.065675	12.223238	-14.105200	-0.343773	2.271129	1.968107
1.230	7.387695	1.901183	620.780759	12.246541	-14.116123	-0.335349	2.273930	1.972764
1.240	7.400456	1.918964	620.549763	12.256258	-14.113146	-0.324627	2.274297	1.975065
1.250	7.406673	1.923448	620.412357	12.252139	-14.100404	-0.312574	2.272747	1.974838
1.260	7.408873	1.914729	620.404561	12.236209	-14.081635	-0.300584	2.269750	1.972295
1.270	7.411158	1.896705	620.545868	12.212172	-14.059558	-0.290057	2.265676	1.967972
1.280	7.416470	1.875477	620.833422	12.184223	-14.035798	-0.281906	2.260799	1.962559
1.290	7.423877	1.856418	621.244319	12.155616	-14.011121	-0.276245	2.255332	1.956656
1.300	7.427866	1.841481	621.743140	12.127433	-13.985651	-0.272431	2.249426	1.950554
1.310	7.420339	1.828053	622.290246	12.097980	-13.958836	-0.269436	2.243139	1.944106
1.320	7.394270	1.809760	622.847446	12.062957	-13.929297	-0.266319	2.236390	1.936743
1.330	7.347208	1.778571	623.380339	12.016305	-13.894846	-0.262580	2.228952	1.927604
1.340	7.283245	1.727100	623.858960	11.951495	-13.852870	-0.258264	2.220513	1.915737
1.350	7.212836	1.650234	624.258344	11.863040	-13.801047	-0.253881	2.210791	1.900341
1.360	7.150400	1.545904	624.559043	11.747988	-13.738109	-0.250282	2.199649	1.881005
1.370	7.110117	1.415315	624.746592	11.606976	-13.664283	-0.248546	2.187172	1.857869
1.380	7.101097	1.262881	624.809330	11.444310	-13.581057	-0.249851	2.173632	1.831648
1.390	7.123608	1.095870	624.735110	11.266772	-13.490199	-0.255246	2.159347	1.803448
1.400	7.167877	0.923656	624.508912	11.081466	-13.392451	-0.265343	2.144477	1.774429
1.410	7.216139	0.756568	624.114145	10.893579	-13.286616	-0.280026	2.128876	1.745447
1.420	7.247557	0.604440	623.539313	10.705004	-13.169639	-0.298321	2.112078	1.716813
1.430	7.244551	0.475019	622.788669	10.514388	-13.037721	-0.318548	2.093442	1.688275
1.440	7.198397	0.372409	621.892595	10.318506	-12.887903	-0.338703	2.072368	1.659210
1.450	7.111849	0.295925	620.912769	10.114412	-12.719278	-0.356879	2.048481	1.628959
1.460	6.997475	0.239879	619.938674	9.901534	-12.533268	-0.371530	2.021695	1.597180
1.470	6.872061	0.194733	619.074662	9.682914	-12.332971	-0.381527	1.992162	1.564095
1.480	6.749322	0.149439	618.419663	9.465037	-12.121998	-0.386187	1.960157	1.530520
1.490	6.634014	0.094205	618.044869	9.256174	-11.903370	-0.385316	1.925972	1.497654
1.500	6.520109	0.022873	617.977534	9.063869	-11.678857	-0.379227	1.889851	1.466699
1.510	6.393873	-0.065683	618.198747	8.892761	-11.448999	-0.368585	1.851993	1.438496
1.520	6.240513	-0.167407	618.657626	8.743737	-11.213788	-0.354080	1.812600	1.413340
1.530	6.051407	-0.274409	619.295957	8.614572	-10.973621	-0.336105	1.771951	1.391027
1.540	5.828759	-0.377691	620.070927	8.501416	-10.729966	-0.314659	1.730442	1.371039
1.550	5.585786	-0.470476	620.964033	8.400246	-10.485347	-0.289607	1.688560	1.352775
1.560	5.342649	-0.550766	621.972342	8.307722	-10.242679	-0.261206	1.646806	1.335706
1.570	5.120149	-0.621964	623.088810	8.221304	-10.004375	-0.230574	1.605610	1.319443
1.580	4.933812	-0.691227	624.283740	8.138879	-9.771754	-0.199777	1.565274	1.303715
1.590	4.790334	-0.766159	625.496578	8.058334	-9.544970	-0.171415	1.525983	1.288310
1.600	4.687096	-0.851257	626.640636	7.977486	-9.323317	-0.147883	1.487825	1.273056
1.610	4.614354	-0.945699	627.618121	7.894588	-9.105601	-0.130676	1.450819	1.257865
1.620	4.559124	-1.043563	628.340538	7.809215	-8.890469	-0.119996	1.414912	1.242832
1.630	4.509614	-1.136382	628.748029	7.723011	-8.676717	-0.114742	1.379999	1.228316
1.640	4.459109	-1.216815	628.820629	7.639714	-8.463607	-0.112849	1.345949	1.214927
1.650	4.408260	-1.281635	628.576845	7.564265	-8.251016	-0.111940	1.312650	1.203395
1.660	4.364740	-1.332471	628.060890	7.501371	-8.039195	-0.110193	1.280003	1.194370
1.670	4.339664	-1.373824	627.325547	7.454241	-7.828144	-0.107115	1.247860	1.188257
1.680	4.341499	-1.409286	626.418807	7.423966	-7.616922	-0.103847	1.215947	1.185144
1.690	4.369829	-1.438045	625.379222	7.409633	-7.403352	-0.102774	1.183818	1.184822
1.700	4.412014	-1.453876	624.240304	7.408919	-7.184336	-0.106559	1.150893	1.186870
1.710	4.444644	-1.447418	623.040368	7.418907	-6.956612	-0.117071	1.116559	1.190759
1.720	4.439435	-1.410589	621.831923	7.436732	-6.717595	-0.134666	1.080291	1.195939
1.730	4.371313	-1.340674	620.685434	7.459736	-6.465939	-0.158118	1.041742	1.201854
1.740	4.225619	-1.241983	619.685816	7.485147	-6.201701	-0.185111	1.000782	1.207894
1.750	4.002039	-1.124453	618.923809	7.509726	-5.926259	-0.212999	0.957510	1.213352
1.760	3.714356	-1.000317	618.485401	7.529909	-5.642175	-0.239485	0.912257	1.217476
1.770	3.386584	-0.880733	618.441128	7.542510	-5.353060	-0.263002	0.865573	1.219600
1.780	3.046838	-0.773880	618.835649	7.545592	-5.063404	-0.282782	0.818215	1.219321
1.790	2.720682	-0.684748	619.677824	7.539020	-4.778321	-0.298716	0.771098	1.216603
1.800	2.425836	-0.615840	620.932725	7.524490	-4.503227	-0.311124	0.725236	1.211804
1.810	2.169893	-0.567721	622.519049	7.505135	-4.243419	-0.320564	0.681653	1.205607
1.820	1.951659	-0.538953	624.315756	7.484970	-4.003554	-0.327729	0.641271	1.198908
1.830	1.765174	-0.525735	626.178394	7.468213	-3.787024	-0.333366	0.604784	1.192665
1.840	1.604386	-0.521953	627.960148	7.458390	-3.595425	-0.338183	0.572556	1.187717
1.850	1.466505	-0.520083	629.530041	7.457221	-3.428387	-0.342704	0.544595	1.184570
1.860	1.352929	-0.512828	630.783614	7.463614	-3.283973	-0.347141	0.520618	1.183229
1.870	1.267666	-0.494839	631.646940	7.473324	-3.159563	-0.351357	0.500210	1.183149
1.880	1.214260	-0.463881	632.077795	7.479813	-3.052907	-0.354956	0.482995	1.183369
1.890	1.193062	-0.421175	632.065947	7.476288	-2.962890	-0.357508	0.468763	1.182833
1.900	1.200592	-0.371040	631.631616	7.458178	-2.889669	-0.358795	0.457493	1.180780
1.910	1.231426	-0.319858	630.821033	7.424766	-2.834082	-0.358928	0.449269	1.177000
1.920	1.281239	-0.274389	629.700169	7.379010	-2.796654	-0.358237	0.444125	1.171829
1.930	1.348693	-0.240001	628.348628	7.325636	-2.776646	-0.357002	0.441896	1.165855
1.940	1.434772	-0.219772	626.854687	7.268657	-2.771545	-0.355189	0.442135	1.159544
1.950	1.540188	-0.214808	625.311166	7.209781	-2.777186	-0.352329	0.444129	1.152991
1.960	1.662933	-0.225003	623.811182	7.148471	-2.788492	-0.347613	0.447009	1.145935
1.970	1.797747	-0.249293	622.442653	7.083361	-2.800615	-0.340169	0.449939	1.137994
1.980	1.937705	-0.285309	621.280847	7.013962	-2.810070	-0.329462	0.452303	1.128952
1.990	2.076537	-0.329138	620.379697	6.941679	-2.815432	-0.315667	0.453824	1.118940
2.000	2.209806	-0.375768	619.764882	6.869693	-2.817265	-0.299839	0.454570	1.108435
2.010	2.333972	-0.420236	619.432970	6.801956	-2.817266	-0.283727	0.454814	1.098094
2.020	2.444107	-0.459102	619.358985	6.741803	-2.816887	-0.269235	0.454807	1.088513
2.030	2.532188	-0.491679	619.509568	6.690756	-2.815976	-0.257814	0.454549	1.080009
2.040	2.587779	-0.520407	619.854934	6.647990	-2.812108	-0.250063	0.453672	1.072507
2.050	2.601225	-0.549922	620.373550	6.610731	-2.801051	-0.245706	0.451510	1.065605
2.060	2.567667	-0.584899	621.048172	6.575432	-2.778315	-0.243875	0.447359	1.058764
2.070	2.489412	-0.627507	621.856864	6.539192	-2.741107	-0.243519	0.440794	1.051559
2.080	2.375196	-0.675805	622.764859	6.500845	-2.689803	-0.243739	0.431913	1.043868
2.090	2.236680	-0.724093	623.721561	6.461339	-2.628315	-0.243958	0.421392	1.035933
2.100	2.084126	-0.765210	624.663607	6.423262	-2.563298	-0.243946	0.410348	1.028275
2.110	1.923642	-0.793643	625.522882	6.389586	-2.502652	-0.243725	0.400090	1.021479
2.120	1.757442	-0.807886	626.238192	6.362025	-2.453994	-0.243358	0.391863	1.015911
2.130	1.586752	-0.811086	626.768672	6.339729	-2.423666	-0.242700	0.386692	1.011494
2.140	1.415668	-0.809910	627.104949	6.319083	-2.416441	-0.241244	0.385333	1.007660
2.150	1.254061	-0.812229	627.272762	6.294936	-2.435694	-0.238230	0.388299	1.003540
2.160	1.118153	-0.824566	627.325595	6.262810	-2.483686	-0.233003	0.395916	0.998335
2.170	1.028253	-0.850245	627.327567	6.221004	-2.561774	-0.225447	0.408363	0.991668
2.180	1.004260	-0.888825	627.332070	6.171472	-2.670568	-0.216270	0.425702	0.983765
2.190	1.060475	-0.936702	627.363574	6.119068	-2.810020	-0.206925	0.447909	0.975362
2.200	1.201637	-0.988340	627.409520	6.069663	-2.979434	-0.199156	0.474879	0.967416
2.210	1.421522	-1.037633	627.426501	6.028268	-3.177326	-0.194345	0.506406	0.960793
2.220	1.704409	-1.079221	627.359718	5.998128	-3.401191	-0.193007	0.542144	0.956091
2.230	2.028677	-1.109609	627.168379	5.981037	-3.647390	-0.194712	0.581565	0.953657
2.240	2.371388	-1.127686	626.845402	5.978305	-3.911399	-0.198462	0.623982	0.953713
2.250	2.712799	-1.134331	626.421233	5.991473	-4.188438	-0.203350	0.668630	0.956461
2.260	3.039858	-1.131299	625.949518	6.022100	-4.474257	-0.209141	0.714795	0.962074
2.270	3.347756	-1.120075	625.482490	6.070568	-4.765682	-0.216460	0.761921	0.970542
2.280	3.639021	-1.101213	625.049226	6.134546	-5.060683	-0.226498	0.809646	0.981450
2.290	3.920666	-1.074332	624.647023	6.208109	-5.357986	-0.240400	0.857762	0.993859
2.300	4.200776	-1.038656	624.247886	6.282209	-5.656439	-0.258677	0.906121	1.006364
2.310	4.485806	-0.993786	623.814240	6.346549	-5.954341	-0.280902	0.954505	1.017378
2.320	4.778972	-0.940382	623.314587	6.392267	-6.248928	-0.305774	1.002532	1.025528
2.330	5.079375	-0.880491	622.732144	6.414500	-6.536191	-0.331419	1.049599	1.030058
2.340	5.381583	-0.817410	622.065409	6.413821	-6.811158	-0.355745	1.094926	1.031052
2.350	5.675926	-0.755134	621.324754	6.395879	-7.068598	-0.376752	1.137666	1.029394
2.360	5.949959	-0.697591	620.529916	6.369338	-7.303879	-0.392796	1.177039	1.026435
2.370	6.191077	-0.647999	619.710237	6.343019	-7.513640	-0.402841	1.212444	1.023546
2.380	6.389592	-0.608418	618.906405	6.323442	-7.696037	-0.406703	1.243490	1.021712
