Time[s]	Fx[N]	Fy[N]	Fz[N]	Mx[Nm]	My[Nm]	Mz[Nm]	COPx[cm]	COPy[cm]
0.010	0.204994	0.572671	718.001689	4.555289	13.907398	0.000112	-1.936959	0.634440
0.020	0.719925	0.368355	718.686483	4.011491	13.260224	0.052869	-1.845064	0.558170
0.030	1.320441	0.136859	719.202220	3.452072	12.564219	0.109082	-1.746966	0.479986
0.040	2.071333	-0.140611	719.390548	2.867276	11.782495	0.171657	-1.637844	0.398570
0.050	3.002923	-0.471847	719.103609	2.256092	10.896853	0.242350	-1.515338	0.313737
0.060	4.106658	-0.854289	718.216299	1.626839	9.910318	0.321147	-1.379851	0.226511
0.070	5.340104	-1.278230	716.642200	0.994623	8.844288	0.405942	-1.234129	0.138789
0.080	6.638766	-1.730290	714.349642	0.376912	7.732114	0.492775	-1.082399	0.052763
0.090	7.931148	-2.195858	711.372630	-0.210801	6.611684	0.576640	-0.929426	-0.029633
0.100	9.153073	-2.660230	707.812099	-0.757732	5.519120	0.652584	-0.779744	-0.107053
0.110	10.257444	-3.108792	703.826236	-1.258479	4.484531	0.716684	-0.637165	-0.178805
0.120	11.217022	-3.526957	699.612403	-1.712136	3.529877	0.766608	-0.504548	-0.244726
0.130	12.020686	-3.900551	695.385111	-2.120711	2.668556	0.801688	-0.383752	-0.304969
0.140	12.666735	-4.216920	691.354474	-2.487567	1.906246	0.822610	-0.275726	-0.359811
0.150	13.157839	-4.466444	687.708730	-2.816309	1.242605	0.830894	-0.180688	-0.409521
0.160	13.500241	-4.644017	684.603383	-3.110211	0.673494	0.828381	-0.098377	-0.454308
0.170	13.706077	-4.750246	682.157302	-3.372209	0.193348	0.816922	-0.028344	-0.494345
0.180	13.795149	-4.792146	680.453055	-3.605352	-0.202695	0.798342	0.029788	-0.529846
0.190	13.792973	-4.782900	679.536734	-3.813370	-0.517246	0.774517	0.076117	-0.561172
0.200	13.724602	-4.740205	679.413871	-4.000823	-0.749895	0.747354	0.110374	-0.588864
0.210	13.606536	-4.683178	680.042521	-4.172480	-0.897371	0.718541	0.131958	-0.613562
0.220	13.440394	-4.628453	681.329456	-4.332136	-0.954592	0.689172	0.140107	-0.635836
0.230	13.211719	-4.586534	683.136762	-4.481550	-0.916470	0.659434	0.134156	-0.656025
0.240	12.895667	-4.559673	685.302329	-4.620274	-0.780317	0.628527	0.113865	-0.674195
0.250	12.468767	-4.542163	687.670316	-4.746627	-0.548492	0.594903	0.079761	-0.690247
0.260	11.922934	-4.523164	690.121188	-4.859376	-0.230518	0.556852	0.033402	-0.704134
0.270	11.275945	-4.491143	692.589406	-4.959153	0.156403	0.513352	-0.022582	-0.716031
0.280	10.573045	-4.438263	695.061156	-5.048824	0.589076	0.464882	-0.084752	-0.726386
0.290	9.877660	-4.362977	697.552705	-5.132654	1.041897	0.413761	-0.149365	-0.735809
0.300	9.253924	-4.269981	700.078432	-5.214927	1.491023	0.363736	-0.212979	-0.744906
0.310	8.747678	-4.168131	702.622149	-5.298941	1.917648	0.318949	-0.272927	-0.754166
0.320	8.373897	-4.067812	705.122923	-5.386981	2.309393	0.282731	-0.327516	-0.763978
0.330	8.115869	-3.978803	707.478511	-5.481069	2.659856	0.256679	-0.375963	-0.774733
0.340	7.935991	-3.908885	709.561601	-5.583675	2.967148	0.240307	-0.418166	-0.786919
0.350	7.792447	-3.863193	711.241190	-5.697661	3.232329	0.231296	-0.454463	-0.801087
0.360	7.653856	-3.844568	712.403032	-5.825308	3.458329	0.226221	-0.485446	-0.817698
0.370	7.506203	-3.854832	712.965541	-5.966884	3.649337	0.221609	-0.511853	-0.836911
0.380	7.351285	-3.895942	712.889226	-6.119560	3.810378	0.215024	-0.534498	-0.858417
0.390	7.199975	-3.969583	712.178868	-6.277334	3.946831	0.205835	-0.554191	-0.881427
0.400	7.064806	-4.074727	710.878940	-6.432185	4.064026	0.195353	-0.571690	-0.904821
0.410	6.954873	-4.204474	709.064563	-6.575961	4.167283	0.186239	-0.587716	-0.927414
0.420	6.873628	-4.344389	706.831654	-6.702140	4.262498	0.181390	-0.603043	-0.948195
0.430	6.818527	-4.473941	704.289406	-6.806698	4.356937	0.182685	-0.618629	-0.966463
0.440	6.781321	-4.570815	701.555898	-6.887956	4.459580	0.190075	-0.635670	-0.981811
0.450	6.748669	-4.616352	698.756015	-6.945801	4.580551	0.201446	-0.655529	-0.994024
0.460	6.703678	-4.599929	696.021318	-6.980870	4.729720	0.213410	-0.679537	-1.002968
0.470	6.628920	-4.520803	693.491336	-6.994058	4.915026	0.222672	-0.708736	-1.008528
0.480	6.510419	-4.387120	691.312960	-6.986251	5.141266	0.227271	-0.743696	-1.010577
0.490	6.340877	-4.212904	689.631920	-6.957951	5.409848	0.227044	-0.784454	-1.008937
0.500	6.120193	-4.014146	688.572586	-6.908552	5.719609	0.223157	-0.830647	-1.003315
0.510	5.852361	-3.804975	688.209415	-6.835488	6.068369	0.217073	-0.881762	-0.993228
0.520	5.539629	-3.594649	688.540562	-6.733772	6.454569	0.209510	-0.937428	-0.977978
0.530	5.176593	-3.386019	689.476533	-6.596453	6.878321	0.199862	-0.997615	-0.956734
0.540	4.747573	-3.175738	690.852634	-6.416135	7.341445	0.186202	-1.062664	-0.928727
0.550	4.229705	-2.955902	692.465252	-6.187223	7.846440	0.165837	-1.133117	-0.893507
0.560	3.601762	-2.716339	694.122292	-5.908203	8.394669	0.136245	-1.209393	-0.851176
0.570	2.855981	-2.446968	695.691163	-5.583143	8.984236	0.096162	-1.291411	-0.802532
0.580	2.008275	-2.139936	697.126656	-5.221860	9.608152	0.046480	-1.378251	-0.749055
0.590	1.102122	-1.791406	698.467362	-4.838582	10.253442	-0.009406	-1.467992	-0.692743
0.600	0.203363	-1.402818	699.801882	-4.449433	10.901702	-0.066008	-1.557827	-0.635813
0.610	-0.613431	-0.981543	701.219454	-4.069413	11.531258	-0.116867	-1.644458	-0.580334
0.620	-1.282841	-0.540921	702.766029	-3.709734	12.120420	-0.156074	-1.724674	-0.527876
0.630	-1.764359	-0.099484	704.421917	-3.376225	12.650879	-0.179702	-1.795924	-0.479290
0.640	-2.050285	0.321141	706.104922	-3.069132	13.110248	-0.186600	-1.856700	-0.434657
0.650	-2.163312	0.699963	707.691939	-2.784259	13.493159	-0.178311	-1.906643	-0.393428
0.660	-2.145901	1.021637	709.048003	-2.515039	13.800848	-0.158255	-1.946391	-0.354706
0.670	-2.046812	1.281225	710.053920	-2.254939	14.039534	-0.130602	-1.977249	-0.317573
0.680	-1.910336	1.486391	710.627863	-1.999531	14.218060	-0.099281	-2.000774	-0.281375
0.690	-1.770918	1.655226	710.738851	-1.747750	14.345283	-0.067412	-2.018362	-0.245906
0.700	-1.652323	1.809920	710.410515	-1.502242	14.427794	-0.037191	-2.030909	-0.211461
0.710	-1.568440	1.968848	709.714008	-1.268872	14.468575	-0.010033	-2.038649	-0.178786
0.720	-1.523473	2.140475	708.751083	-1.055472	14.467009	0.013230	-2.041197	-0.148920
0.730	-1.511332	2.321400	707.631446	-0.869982	14.420183	0.032223	-2.037810	-0.122943
0.740	-1.515772	2.498769	706.450840	-0.718531	14.324946	0.046997	-2.027734	-0.101710
0.750	-1.512850	2.655557	705.276859	-0.604238	14.179933	0.058052	-2.010548	-0.085674
0.760	-1.475983	2.776390	704.147439	-0.527259	13.986838	0.066368	-1.986351	-0.074879
0.770	-1.382261	2.851758	703.082112	-0.485912	13.750427	0.073422	-1.955736	-0.069112
0.780	-1.217782	2.879311	702.100219	-0.478190	13.477180	0.081116	-1.919552	-0.068109
0.790	-0.979707	2.862141	701.236412	-0.502900	13.173130	0.091606	-1.878558	-0.071716
0.800	-0.673817	2.805244	700.544679	-0.560076	12.841921	0.107038	-1.833134	-0.079949
0.810	-0.308565	2.712310	700.087863	-0.650772	12.484168	0.129235	-1.783229	-0.092956
0.820	0.111038	2.584677	699.917066	-0.776508	12.098540	0.159383	-1.728568	-0.110943
0.830	0.585773	2.422831	700.049923	-0.938626	11.684060	0.197741	-1.669032	-0.134080
0.840	1.118861	2.229131	700.456395	-1.137597	11.242446	0.243405	-1.605017	-0.162408
0.850	1.708537	2.009783	701.057304	-1.372214	10.779354	0.294220	-1.537585	-0.195735
0.860	2.340847	1.774652	701.736888	-1.638749	10.304022	0.346967	-1.468360	-0.233528
0.870	2.987244	1.534855	702.366872	-1.930468	9.827535	0.397863	-1.399203	-0.274852
0.880	3.609139	1.299428	702.835619	-2.238062	9.360426	0.443325	-1.331809	-0.318433
0.890	4.168032	1.072842	703.073032	-2.551187	8.910516	0.480775	-1.267367	-0.362862
0.900	4.636940	0.854542	703.062027	-2.860602	8.481759	0.509175	-1.206403	-0.406878
0.910	5.008082	0.640443	702.832025	-3.159940	8.074465	0.529026	-1.148847	-0.449601
0.920	5.293388	0.425358	702.437536	-3.446402	7.686681	0.541886	-1.094287	-0.490635
0.930	5.517720	0.205048	701.931847	-3.720355	7.316016	0.549649	-1.042269	-0.530017
0.940	5.708079	-0.022896	701.347851	-3.984429	6.961152	0.553923	-0.992539	-0.568110
0.950	5.883803	-0.259275	700.693949	-4.242646	6.622523	0.555698	-0.945138	-0.605492
0.960	6.051936	-0.503965	699.965124	-4.499690	6.302094	0.555352	-0.900344	-0.642845
0.970	6.208994	-0.756341	699.161966	-4.759998	6.002529	0.552905	-0.858532	-0.680815
0.980	6.347060	-1.015110	698.306730	-5.026497	5.726196	0.548397	-0.820012	-0.719812
0.990	6.460268	-1.277628	697.447479	-5.299335	5.474474	0.542212	-0.784930	-0.759819
1.000	6.548268	-1.539051	696.648536	-5.575193	5.247672	0.535172	-0.753274	-0.800288
1.010	6.615518	-1.791755	695.973785	-5.847553	5.045491	0.528302	-0.724954	-0.840197
1.020	6.667756	-2.025461	695.473045	-6.107767	4.867643	0.522346	-0.699904	-0.878218
1.030	6.708336	-2.228355	695.178230	-6.346562	4.714134	0.517323	-0.678119	-0.912940
1.040	6.736634	-2.389145	695.108146	-6.555671	4.584967	0.512462	-0.659605	-0.943115
1.050	6.749197	-2.499420	695.275108	-6.729474	4.479373	0.506629	-0.644259	-0.967887
1.060	6.742763	-2.555411	695.687043	-6.866463	4.394938	0.499011	-0.631741	-0.987005
1.070	6.717578	-2.558517	696.343753	-6.970032	4.327039	0.489652	-0.621394	-1.000947
1.080	6.679452	-2.514741	697.230304	-7.048005	4.268923	0.479528	-0.612269	-1.010858
1.090	6.639512	-2.433771	698.311434	-7.110695	4.212573	0.470165	-0.603251	-1.018270
1.100	6.611686	-2.328302	699.529816	-7.168066	4.150109	0.463027	-0.593271	-1.024698
1.110	6.609195	-2.213449	700.809644	-7.227145	4.075166	0.459040	-0.581494	-1.031257
1.120	6.641876	-2.105688	702.065179	-7.290708	3.983680	0.458420	-0.567423	-1.038466
1.130	6.715488	-2.021040	703.211455	-7.357597	3.873835	0.460767	-0.550878	-1.046285
1.140	6.832630	-1.972826	704.173426	-7.424216	3.745490	0.465265	-0.531899	-1.054316
1.150	6.993836	-1.969538	704.891540	-7.486290	3.599614	0.470860	-0.510662	-1.062049
1.160	7.197612	-2.013294	705.324116	-7.540112	3.438140	0.476439	-0.487455	-1.069028
1.170	7.439421	-2.099197	705.447781	-7.583030	3.264184	0.481014	-0.462711	-1.074924
1.180	7.710753	-2.215900	705.256464	-7.613457	3.082340	0.483901	-0.437052	-1.079530
1.190	7.999639	-2.347431	704.758785	-7.630758	2.898773	0.484845	-0.411314	-1.082747
1.200	8.292848	-2.475995	703.974091	-7.635172	2.721118	0.484022	-0.386537	-1.084581
1.210	8.578426	-2.585164	702.928504	-7.627698	2.558220	0.481871	-0.363937	-1.085131
1.220	8.846563	-2.662594	701.652836	-7.609846	2.419644	0.478795	-0.344849	-1.084560
1.230	9.087913	-2.701558	700.183566	-7.583282	2.314803	0.474914	-0.330599	-1.083042
1.240	9.290675	-2.701118	698.567004	-7.549483	2.251696	0.469988	-0.322331	-1.080710
1.250	9.439024	-2.665377	696.865509	-7.509572	2.235614	0.463529	-0.320810	-1.077621
1.260	9.514823	-2.602391	695.163251	-7.464395	2.268361	0.454941	-0.326306	-1.073762
1.270	9.502606	-2.523024	693.568210	-7.414845	2.348328	0.443656	-0.338586	-1.069087
1.280	9.395869	-2.439635	692.207490	-7.362304	2.471343	0.429381	-0.357023	-1.063598
1.290	9.201923	-2.364396	691.214350	-7.308994	2.631870	0.412462	-0.380760	-1.057413
1.300	8.942994	-2.307174	690.707408	-7.257900	2.824110	0.394191	-0.408872	-1.050792
1.310	8.652528	-2.273211	690.765481	-7.212080	3.042798	0.376723	-0.440497	-1.044071
1.320	8.367339	-2.261374	691.404619	-7.173442	3.283749	0.362483	-0.474939	-1.037517
1.330	8.118011	-2.264035	692.565457	-7.141468	3.544325	0.353253	-0.511768	-1.031161
1.340	7.920993	-2.269185	694.117380	-7.112563	3.823814	0.349376	-0.550889	-1.024692
1.350	7.775267	-2.264159	695.881014	-7.080508	4.123486	0.349431	-0.592556	-1.017488
1.360	7.664548	-2.239347	697.663438	-7.037958	4.446042	0.350523	-0.637276	-1.008790
1.370	7.563673	-2.190322	699.294498	-6.978233	4.794543	0.349068	-0.685626	-0.997896
1.380	7.446321	-2.117762	700.652083	-6.896522	5.171303	0.341782	-0.738070	-0.984300
1.390	7.290936	-2.025578	701.670014	-6.790056	5.577346	0.326526	-0.794867	-0.967699
1.400	7.082940	-1.918238	702.330483	-6.657508	6.012586	0.302710	-0.856091	-0.947917
1.410	6.813635	-1.798511	702.648489	-6.498263	6.476299	0.271197	-0.921698	-0.924824
1.420	6.478126	-1.666589	702.656624	-6.312145	6.967256	0.233834	-0.991559	-0.898326
1.430	6.074691	-1.520791	702.395490	-6.099809	7.483258	0.192853	-1.065391	-0.868429
1.440	5.606275	-1.359182	701.910587	-5.863641	8.020468	0.150429	-1.142662	-0.835383
1.450	5.082726	-1.181161	701.253040	-5.608723	8.573227	0.108518	-1.222558	-0.799814
1.460	4.521491	-0.988307	700.480765	-5.343225	9.134863	0.068942	-1.304085	-0.762794
1.470	3.945345	-0.784231	699.658006	-5.077723	9.699280	0.033463	-1.386289	-0.725744
1.480	3.377485	-0.573518	698.852924	-4.823302	10.262543	0.003628	-1.468484	-0.690174
1.490	2.836006	-0.360273	698.133928	-4.589000	10.823519	-0.019630	-1.550350	-0.657324
1.500	2.330117	-0.147159	697.565907	-4.379612	11.383073	-0.036386	-1.631828	-0.627842
1.510	1.859544	0.064402	697.207777	-4.194787	11.942065	-0.047786	-1.712842	-0.601655
1.520	1.417199	0.272890	697.112066	-4.029824	12.499042	-0.055635	-1.792975	-0.578074
1.530	0.994034	0.475083	697.325698	-3.877778	13.048688	-0.061635	-1.871247	-0.556093
1.540	0.584438	0.665429	697.889327	-3.732111	13.581679	-0.066657	-1.946108	-0.534771
1.550	0.190440	0.837085	698.831928	-3.588909	14.085900	-0.070440	-2.015635	-0.513558
1.560	-0.176660	0.984213	700.159195	-3.447934	14.548429	-0.071892	-2.077874	-0.492450
1.570	-0.497923	1.104270	701.838593	-3.312276	14.957518	-0.069800	-2.131191	-0.471943
1.580	-0.751333	1.199037	703.787783	-3.186958	15.304026	-0.063578	-2.174523	-0.452829
1.590	-0.917884	1.273853	705.873221	-3.077077	15.582132	-0.053662	-2.207497	-0.435925
1.600	-0.986994	1.335367	707.921987	-2.986119	15.789448	-0.041447	-2.230394	-0.421815
1.610	-0.959048	1.388667	709.744923	-2.915002	15.926752	-0.028806	-2.244011	-0.410711
1.620	-0.844018	1.434895	711.164921	-2.862122	15.997565	-0.017392	-2.249487	-0.402456
1.630	-0.657133	1.470337	712.042232	-2.824174	16.007739	-0.007946	-2.248145	-0.396630
1.640	-0.414237	1.487498	712.290431	-2.797207	15.965100	0.000094	-2.241375	-0.392706
1.650	-0.129442	1.477990	711.881577	-2.777448	15.878962	0.008453	-2.230562	-0.390156
1.660	0.184159	1.436231	710.843927	-2.761704	15.759279	0.019319	-2.216982	-0.388511
1.670	0.512226	1.362430	709.256864	-2.747467	15.615526	0.034355	-2.201674	-0.387373
1.680	0.837885	1.263618	707.245031	-2.732904	15.455643	0.053870	-2.185331	-0.386415
1.690	1.143117	1.152300	704.969931	-2.716815	15.285371	0.076545	-2.168230	-0.385380
1.700	1.412679	1.043260	702.616155	-2.698587	15.108021	0.099841	-2.150252	-0.384077
1.710	1.638950	0.949561	700.371925	-2.678083	14.924612	0.120916	-2.130955	-0.382380
1.720	1.825628	0.879138	698.407358	-2.655481	14.734356	0.137652	-2.109708	-0.380220
1.730	1.988532	0.833319	696.855714	-2.631098	14.535541	0.149424	-2.085875	-0.377567
1.740	2.152405	0.807799	695.801312	-2.605253	14.326792	0.157343	-2.059035	-0.374425
1.750	2.343886	0.795328	695.273931	-2.578216	14.108494	0.163870	-2.029199	-0.370820
1.760	2.582527	0.788493	695.246468	-2.550318	13.884011	0.171901	-1.996991	-0.366822
1.770	2.872961	0.781241	695.633479	-2.522275	13.660359	0.183634	-1.963729	-0.362587
1.780	3.201163	0.768938	696.292666	-2.495652	13.448096	0.199704	-1.931386	-0.358420
1.790	3.536152	0.747739	697.035619	-2.473103	13.260381	0.218965	-1.902396	-0.354803
1.800	3.836424	0.714384	697.653676	-2.457944	13.111331	0.238996	-1.879347	-0.352316
1.810	4.059019	0.666938	697.958322	-2.452954	13.013989	0.257068	-1.864580	-0.351447
1.820	4.168745	0.606135	697.826948	-2.458961	12.978257	0.271088	-1.859810	-0.352374
1.830	4.145674	0.536502	697.239452	-2.474055	13.009210	0.280124	-1.865817	-0.354836
1.840	3.989832	0.466260	696.292281	-2.494038	13.106155	0.284376	-1.882278	-0.358188
1.850	3.722532	0.405405	695.183285	-2.514009	13.262621	0.284808	-1.907788	-0.361633
1.860	3.383691	0.362205	694.170089	-2.530351	13.467247	0.282727	-1.940050	-0.364514
1.870	3.024696	0.339630	693.512964	-2.542134	13.705278	0.279510	-1.976211	-0.366559
1.880	2.697578	0.333691	693.417546	-2.551247	13.960396	0.276423	-2.013274	-0.367924
1.890	2.443273	0.334778	693.992314	-2.561331	14.216639	0.274453	-2.048530	-0.369072
1.900	2.282915	0.331448	695.230809	-2.576183	14.460202	0.274097	-2.079914	-0.370551
1.910	2.215350	0.314951	697.021044	-2.598391	14.680851	0.275216	-2.106228	-0.372785
1.920	2.221493	0.282576	699.177028	-2.628590	14.872658	0.277030	-2.127166	-0.375955
1.930	2.273340	0.238525	701.481994	-2.665369	15.033799	0.278304	-2.143148	-0.379963
1.940	2.343823	0.192151	703.730499	-2.705649	15.165438	0.277673	-2.155006	-0.384472
1.950	2.414012	0.154622	705.757879	-2.745419	15.269992	0.274065	-2.163630	-0.389003
1.960	2.475887	0.135592	707.451156	-2.780684	15.349247	0.267109	-2.169655	-0.393057
1.970	2.531145	0.141032	708.743716	-2.808402	15.402848	0.257323	-2.173261	-0.396251
1.980	2.587957	0.172332	709.602983	-2.827049	15.427613	0.246002	-2.174119	-0.398399
1.990	2.657818	0.226250	710.021096	-2.836677	15.417895	0.234855	-2.171470	-0.399520
2.000	2.753680	0.295415	710.012396	-2.838600	15.366900	0.225569	-2.164314	-0.399796
2.010	2.889133	0.369530	709.613368	-2.835081	15.268528	0.219466	-2.151669	-0.399525
2.020	3.077386	0.437336	708.878468	-2.829129	15.119270	0.217332	-2.132844	-0.399099
2.030	3.328852	0.488844	707.870361	-2.824179	14.919713	0.219432	-2.107690	-0.398968
2.040	3.647393	0.517140	706.649244	-2.823416	14.675356	0.225632	-2.076753	-0.399550
2.050	4.026748	0.519335	705.266988	-2.828856	14.396430	0.235513	-2.041274	-0.401104
2.060	4.449252	0.496664	703.768240	-2.840675	14.096626	0.248404	-2.003021	-0.403638
2.070	4.888057	0.453831	702.196279	-2.857301	13.790993	0.263383	-1.963980	-0.406909
2.080	5.312384	0.397628	700.598921	-2.876340	13.493649	0.279366	-1.926016	-0.410554
2.090	5.694035	0.335007	699.029676	-2.895844	13.216053	0.295293	-1.890628	-0.414266
2.100	6.012992	0.271165	697.541824	-2.915139	12.966370	0.310289	-1.858866	-0.417916
2.110	6.260245	0.208403	696.177073	-2.934673	12.750129	0.323686	-1.831449	-0.421541
2.120	6.436718	0.146196	694.953979	-2.954980	12.571906	0.334849	-1.809027	-0.425205
2.130	6.548445	0.082322	693.862423	-2.975466	12.437394	0.342921	-1.792487	-0.428826
2.140	6.599785	0.014556	692.868961	-2.993818	12.354936	0.346700	-1.783156	-0.432090
2.150	6.587610	-0.057478	691.934420	-3.006502	12.335600	0.344799	-1.782770	-0.434507
2.160	6.499377	-0.130766	691.040489	-3.010157	12.391366	0.336103	-1.793146	-0.435598
2.170	6.316709	-0.198421	690.216898	-3.003199	12.531763	0.320267	-1.815627	-0.435109
2.180	6.023803	-0.250985	689.556822	-2.986740	12.760076	0.298045	-1.850475	-0.433139
2.190	5.617513	-0.279525	689.209151	-2.964231	13.070630	0.271283	-1.896468	-0.430092
2.200	5.114536	-0.279330	689.344634	-2.939926	13.448454	0.242581	-1.950904	-0.426481
2.210	4.551789	-0.252324	690.105424	-2.917006	13.871699	0.214720	-2.010084	-0.422690
2.220	3.978874	-0.206745	691.556529	-2.896466	14.316066	0.190037	-2.070122	-0.418833
2.230	3.445112	-0.154035	693.657700	-2.877347	14.759632	0.169983	-2.127798	-0.414808
2.240	2.986453	-0.104430	696.265872	-2.857932	15.186368	0.155018	-2.181116	-0.410466
2.250	2.617950	-0.063429	699.166086	-2.836927	15.587231	0.144827	-2.229403	-0.405759
2.260	2.334983	-0.030805	702.118134	-2.813845	15.958758	0.138717	-2.272945	-0.400765
2.270	2.122150	-0.002448	704.901911	-2.788627	16.299973	0.135924	-2.312375	-0.395605
2.280	1.965124	0.026250	707.348068	-2.761150	16.609004	0.135723	-2.348067	-0.390352
2.290	1.859813	0.057571	709.348563	-2.731218	16.880816	0.137328	-2.379763	-0.385032
2.300	1.815041	0.090763	710.849256	-2.698937	17.107044	0.139768	-2.406564	-0.379678
2.310	1.848262	0.123489	711.831116	-2.664953	17.278067	0.141870	-2.427271	-0.374380
2.320	1.976602	0.153909	712.288462	-2.630260	17.386528	0.142459	-2.440939	-0.369269
2.330	2.206827	0.181554	712.212612	-2.595812	17.430878	0.140655	-2.447426	-0.364472
2.340	2.527781	0.206251	711.587221	-2.562291	17.417581	0.136136	-2.447708	-0.360081
2.350	2.907975	0.226037	710.397825	-2.530166	17.361116	0.129239	-2.443858	-0.356162
2.360	3.299598	0.235989	708.652904	-2.499899	17.281668	0.120885	-2.438665	-0.352768
