Time[s]	Fx[N]	Fy[N]	Fz[N]	Mx[Nm]	My[Nm]	Mz[Nm]	COPx[cm]	COPy[cm]
0.010	4.332605	0.101560	580.554087	4.306527	7.714735	0.074159	-1.328857	0.741796
0.020	4.522163	0.185216	580.775527	4.461325	7.516419	0.073958	-1.294204	0.768167
0.030	4.695115	0.273668	580.997334	4.607455	7.325031	0.071478	-1.260768	0.793025
0.040	4.837938	0.367639	581.214837	4.737420	7.146343	0.065229	-1.229553	0.815089
0.050	4.942880	0.462503	581.417066	4.845959	6.984197	0.055095	-1.201237	0.833474
0.060	5.009556	0.549098	581.584516	4.930355	6.840295	0.042418	-1.176148	0.847745
0.070	5.044702	0.616527	581.689829	4.990051	6.714738	0.029504	-1.154350	0.857854
0.080	5.059834	0.655641	581.703319	5.025846	6.607122	0.018736	-1.135823	0.863988
0.090	5.067305	0.661725	581.603537	5.038956	6.517679	0.011680	-1.120640	0.866390
0.100	5.076020	0.635449	581.389703	5.030349	6.447887	0.008570	-1.109047	0.865229
0.110	5.088476	0.581996	581.089978	5.000592	6.400207	0.008378	-1.101414	0.860554
0.120	5.100351	0.509004	580.760116	4.950223	6.377075	0.009382	-1.098057	0.852370
0.130	5.102699	0.424169	580.471260	4.880352	6.379597	0.009915	-1.099038	0.840757
0.140	5.085696	0.333113	580.290539	4.793062	6.406571	0.008908	-1.104028	0.825976
0.150	5.042390	0.238066	580.261139	4.691334	6.454315	0.006021	-1.112312	0.808487
0.160	4.971144	0.137834	580.388820	4.578461	6.517447	0.001439	-1.122945	0.788861
0.170	4.876036	0.029204	580.639560	4.457242	6.590387	-0.004483	-1.135022	0.767643
0.180	4.765285	-0.090799	580.949062	4.329310	6.668991	-0.011478	-1.147948	0.745213
0.190	4.648492	-0.223001	581.240765	4.194875	6.751663	-0.019431	-1.161595	0.721710
0.200	4.533832	-0.365626	581.446294	4.052920	6.839426	-0.028284	-1.176278	0.697041
0.210	4.426130	-0.515599	581.521663	3.901823	6.934925	-0.037933	-1.192548	0.670968
0.220	4.326193	-0.670797	581.454282	3.740231	7.040850	-0.048221	-1.210903	0.643254
0.230	4.231114	-0.831781	581.259667	3.567890	7.158696	-0.059021	-1.231583	0.613820
0.240	4.134947	-1.001821	580.971566	3.386060	7.288605	-0.070278	-1.254555	0.582827
0.250	4.029229	-1.185058	580.631747	3.197329	7.430369	-0.081890	-1.279704	0.550664
0.260	3.903542	-1.383751	580.283736	3.004984	7.584796	-0.093484	-1.307084	0.517847
0.270	3.746876	-1.595987	579.970347	2.812278	7.754286	-0.104218	-1.337014	0.484900
0.280	3.550500	-1.814963	579.732053	2.621912	7.941943	-0.112807	-1.369933	0.452263
0.290	3.312043	-2.030296	579.603683	2.435928	8.149565	-0.117843	-1.406058	0.420275
0.300	3.039284	-2.230904	579.608920	2.255967	8.375570	-0.118337	-1.445038	0.389222
0.310	2.751567	-2.408205	579.754057	2.083703	8.613909	-0.114206	-1.485787	0.359412
0.320	2.477250	-2.558235	580.023932	1.921219	8.854542	-0.106431	-1.526582	0.331231
0.330	2.247155	-2.681914	580.382894	1.771204	9.085374	-0.096794	-1.565410	0.305179
0.340	2.085946	-2.783653	580.781303	1.636913	9.294968	-0.087275	-1.600425	0.281847
0.350	2.004590	-2.869112	581.165449	1.521721	9.474977	-0.079417	-1.630341	0.261840
0.360	1.996984	-2.943057	581.487883	1.428316	9.621512	-0.073891	-1.654637	0.245631
0.370	2.042188	-3.008062	581.715362	1.357802	9.735215	-0.070432	-1.673536	0.233413
0.380	2.111392	-3.064299	581.832199	1.309071	9.820413	-0.068080	-1.687843	0.224991
0.390	2.176689	-3.110219	581.838446	1.278653	9.883840	-0.065638	-1.698726	0.219761
0.400	2.218159	-3.143656	581.744959	1.261150	9.933309	-0.062159	-1.707502	0.216787
0.410	2.226823	-3.162813	581.568365	1.250292	9.976571	-0.057280	-1.715460	0.214986
0.420	2.203187	-3.166929	581.327872	1.240396	10.020480	-0.051240	-1.723723	0.213373
0.430	2.153160	-3.156677	581.044303	1.227665	10.070520	-0.044552	-1.733176	0.211286
0.440	2.083874	-3.134340	580.740951	1.210740	10.130658	-0.037539	-1.744437	0.208482
0.450	2.001028	-3.103703	580.445311	1.190391	10.203345	-0.030069	-1.757848	0.205082
0.460	1.908029	-3.069536	580.190183	1.168697	10.289530	-0.021671	-1.773475	0.201433
0.470	1.806359	-3.036762	580.012075	1.148224	10.388641	-0.011946	-1.791108	0.197966
0.480	1.696565	-3.009448	579.945032	1.131515	10.498643	-0.000959	-1.810282	0.195107
0.490	1.579477	-2.989768	580.010302	1.120878	10.616213	0.010655	-1.830349	0.193251
0.500	1.457417	-2.977082	580.206019	1.118389	10.736982	0.021908	-1.850546	0.192757
0.510	1.335110	-2.967419	580.502651	1.126003	10.855802	0.031828	-1.870069	0.193970
0.520	1.219813	-2.953764	580.847458	1.145640	10.967095	0.039755	-1.888120	0.197236
0.530	1.120248	-2.927361	581.176866	1.179091	11.065376	0.045428	-1.903960	0.202880
0.540	1.044507	-2.879965	581.432806	1.227690	11.145946	0.048896	-1.916979	0.211149
0.550	0.997792	-2.806526	581.577704	1.291922	11.205513	0.050420	-1.926744	0.222141
0.560	0.981082	-2.707177	581.602611	1.371281	11.242474	0.050462	-1.933016	0.235776
0.570	0.991428	-2.587312	581.525104	1.464480	11.256680	0.049759	-1.935717	0.251834
0.580	1.023661	-2.455460	581.378493	1.569862	11.248842	0.049334	-1.934857	0.270024
0.590	1.072459	-2.320087	581.198597	1.685647	11.219966	0.050328	-1.930487	0.290029
0.600	1.133609	-2.187089	581.014939	1.809880	11.171166	0.053639	-1.922699	0.311503
0.610	1.203830	-2.059130	580.849099	1.940223	11.104010	0.059558	-1.911686	0.334032
0.620	1.279536	-1.936731	580.717616	2.073863	11.021228	0.067591	-1.897864	0.357121
0.630	1.355649	-1.820127	580.634511	2.207616	10.927401	0.076583	-1.881976	0.380207
0.640	1.425721	-1.710875	580.610464	2.338185	10.829058	0.085051	-1.865116	0.402711
0.650	1.483744	-1.612604	580.649423	2.462470	10.733899	0.091628	-1.848602	0.424089
0.660	1.526645	-1.530697	580.745466	2.577881	10.649287	0.095461	-1.833727	0.443892
0.670	1.555827	-1.470806	580.882064	2.682619	10.580571	0.096434	-1.821466	0.461818
0.680	1.576732	-1.436396	581.034443	2.775940	10.529757	0.095087	-1.812243	0.477758
0.690	1.596775	-1.426165	581.175352	2.858396	10.494803	0.092254	-1.805789	0.491830
0.700	1.622896	-1.432681	581.283639	2.931938	10.469642	0.088595	-1.801124	0.504390
0.710	1.660006	-1.443400	581.352487	2.999700	10.445045	0.084271	-1.796680	0.515987
0.720	1.710958	-1.444109	581.392252	3.065336	10.410345	0.078941	-1.790589	0.527241
0.730	1.777612	-1.423482	581.424733	3.132022	10.355746	0.072085	-1.781098	0.538681
0.740	1.861833	-1.376703	581.470984	3.201514	10.274592	0.063448	-1.767000	0.550589
0.750	1.965425	-1.306628	581.539171	3.273760	10.164856	0.053352	-1.747923	0.562947
0.760	2.089005	-1.222163	581.618996	3.347344	10.029290	0.042693	-1.724375	0.575522
0.770	2.230693	-1.134741	581.685054	3.420581	9.874227	0.032657	-1.697521	0.588047
0.780	2.385574	-1.054384	581.706796	3.492623	9.707527	0.024325	-1.668801	0.600410
0.790	2.546246	-0.986741	581.660887	3.563900	9.536496	0.018359	-1.639528	0.612711
0.800	2.704204	-0.932074	581.542057	3.635672	9.366476	0.014851	-1.610627	0.625178
0.810	2.851463	-0.886431	581.368927	3.708955	9.200438	0.013330	-1.582547	0.637969
0.820	2.981877	-0.844377	581.181573	3.783403	9.039436	0.012875	-1.555355	0.650985
0.830	3.092010	-0.802034	581.029815	3.856671	8.883530	0.012317	-1.528928	0.663765
0.840	3.181713	-0.759158	580.955530	3.924580	8.732750	0.010475	-1.503170	0.675539
0.850	3.254437	-0.719536	580.976162	3.982028	8.587744	0.006407	-1.478158	0.685403
0.860	3.316888	-0.689590	581.077158	4.024351	8.449835	-0.000399	-1.454167	0.692567
0.870	3.377695	-0.675709	581.217474	4.048735	8.320458	-0.009914	-1.431557	0.696596
0.880	3.445238	-0.681265	581.345875	4.055254	8.200343	-0.021557	-1.410579	0.697563
0.890	3.525321	-0.704551	581.420222	4.047110	8.088987	-0.034288	-1.391246	0.696073
0.900	3.619375	-0.738538	581.421150	4.029819	7.984799	-0.046803	-1.373324	0.693098
0.910	3.723686	-0.772560	581.355476	4.009480	7.885900	-0.057834	-1.356468	0.689678
0.920	3.829891	-0.795310	581.249728	3.990776	7.791221	-0.066490	-1.340426	0.686585
0.930	3.926832	-0.798079	581.137790	3.975544	7.701308	-0.072516	-1.325212	0.684097
0.940	4.003466	-0.777169	581.048260	3.962544	7.618339	-0.076365	-1.311137	0.681965
0.950	4.052055	-0.734868	580.996277	3.948408	7.545253	-0.078999	-1.298675	0.679593
0.960	4.070517	-0.678887	580.981299	3.929156	7.484441	-0.081460	-1.288241	0.676296
0.970	4.062970	-0.620438	580.989355	3.901497	7.436668	-0.084396	-1.280001	0.671526
0.980	4.038267	-0.571418	580.998252	3.863483	7.400703	-0.087744	-1.273791	0.664973
0.990	4.007326	-0.541539	580.985713	3.814467	7.373650	-0.090728	-1.269162	0.656551
1.000	3.980493	-0.536495	580.939750	3.754603	7.351655	-0.092149	-1.265476	0.646298
1.010	3.965684	-0.557799	580.867360	3.684234	7.330594	-0.090857	-1.262008	0.634264
1.020	3.967384	-0.603945	580.795824	3.603576	7.306554	-0.086216	-1.258025	0.620455
1.030	3.986448	-0.671898	580.763602	3.512805	7.276130	-0.078335	-1.252856	0.604860
1.040	4.020814	-0.758017	580.803641	3.412322	7.236733	-0.068023	-1.245986	0.587517
1.050	4.067017	-0.858180	580.926692	3.302891	7.187020	-0.056535	-1.237165	0.568556
1.060	4.121997	-0.967470	581.113093	3.185488	7.127347	-0.045272	-1.226499	0.548170
1.070	4.184393	-1.080115	581.317406	3.061028	7.059998	-0.035504	-1.214482	0.526567
1.080	4.254768	-1.190231	581.483603	2.930234	6.988971	-0.028133	-1.201921	0.503924
1.090	4.334681	-1.293382	581.563716	2.793799	6.919317	-0.023531	-1.189778	0.480394
1.100	4.425013	-1.388179	581.532680	2.652661	6.856172	-0.021488	-1.178983	0.456150
1.110	4.524138	-1.476750	581.394883	2.508066	6.803792	-0.021287	-1.170253	0.431388
1.120	4.626574	-1.563507	581.181039	2.361263	6.764969	-0.021875	-1.164004	0.406287
1.130	4.722652	-1.652868	580.936814	2.213006	6.741062	-0.022083	-1.160378	0.380938
1.140	4.799601	-1.747441	580.707643	2.063256	6.732561	-0.020878	-1.159372	0.355300
1.150	4.844026	-1.847756	580.525855	1.911300	6.739846	-0.017609	-1.160990	0.329236
1.160	4.845101	-1.953379	580.404926	1.756307	6.763773	-0.012205	-1.165354	0.302600
1.170	4.797451	-2.064171	580.341642	1.598100	6.805890	-0.005233	-1.172738	0.275372
1.180	4.702799	-2.180604	580.323222	1.437814	6.868204	0.002246	-1.183513	0.247761
1.190	4.569983	-2.302944	580.335339	1.278218	6.952527	0.008997	-1.198019	0.220255
1.200	4.413423	-2.429950	580.368050	1.123604	7.059546	0.014008	-1.216391	0.193602
1.210	4.250316	-2.557952	580.417987	0.979246	7.187994	0.016798	-1.238417	0.168714
1.220	4.096989	-2.680904	580.486780	0.850450	7.334379	0.017563	-1.263488	0.146506
1.230	3.965212	-2.791655	580.577609	0.741260	7.493388	0.017151	-1.290678	0.127676
1.240	3.859617	-2.884166	580.692622	0.653127	7.658764	0.016852	-1.318902	0.112474
1.250	3.777254	-2.955826	580.832240	0.584161	7.824363	0.018061	-1.347095	0.100573
1.260	3.709558	-3.008562	580.995042	0.529568	7.985198	0.021876	-1.374400	0.091148
1.270	3.645953	-3.047821	581.176475	0.483205	8.138294	0.028753	-1.400314	0.083143
1.280	3.577660	-3.079776	581.366272	0.439479	8.283103	0.038300	-1.424765	0.075594
1.290	3.500228	-3.108257	581.546269	0.394659	8.421335	0.049291	-1.448094	0.067864
1.300	3.413984	-3.133116	581.690804	0.347246	8.556331	0.059944	-1.470941	0.059696
1.310	3.322408	-3.150816	581.771022	0.297611	8.692266	0.068458	-1.494104	0.051156
1.320	3.229325	-3.156844	581.762686	0.247304	8.833480	0.073625	-1.518399	0.042509
1.330	3.136186	-3.148631	581.655023	0.198339	8.984043	0.075267	-1.544566	0.034099
1.340	3.040580	-3.127598	581.456939	0.152562	9.147521	0.074284	-1.573207	0.026238
1.350	2.936493	-3.099368	581.197632	0.111115	9.326805	0.072281	-1.604756	0.019118
1.360	2.816098	-3.072172	580.921212	0.074030	9.524015	0.070928	-1.639468	0.012744
1.370	2.672293	-3.054297	580.677562	0.040194	9.740480	0.071323	-1.677433	0.006922
1.380	2.500995	-3.051814	580.512524	0.007883	9.976766	0.073595	-1.718613	0.001358
1.390	2.302283	-3.067354	580.459136	-0.024271	10.232573	0.076880	-1.762841	-0.004181
1.400	2.079972	-3.099878	580.530225	-0.056470	10.506432	0.079656	-1.809799	-0.009727
1.410	1.839931	-3.145017	580.713086	-0.087657	10.795410	0.080295	-1.858992	-0.015095
1.420	1.587942	-3.195739	580.968654	-0.116192	11.095198	0.077602	-1.909776	-0.020000
1.430	1.328017	-3.243493	581.237722	-0.140795	11.400730	0.071155	-1.961457	-0.024223
1.440	1.061838	-3.279948	581.454139	-0.161090	11.707139	0.061338	-2.013424	-0.027705
1.450	0.789593	-3.298934	581.561650	-0.177472	12.010588	0.049109	-2.065230	-0.030516
1.460	0.511948	-3.297948	581.529732	-0.190467	12.308575	0.035616	-2.116586	-0.032753
1.470	0.232239	-3.278628	581.364185	-0.200034	12.599619	0.021808	-2.167251	-0.034408
1.480	-0.042175	-3.246062	581.108636	-0.205197	12.882491	0.008186	-2.216882	-0.035311
1.490	-0.300053	-3.207268	580.834262	-0.204237	13.155364	-0.005247	-2.264908	-0.035163
1.500	-0.527817	-3.169451	580.618957	-0.195270	13.415204	-0.018842	-2.310500	-0.033631
1.510	-0.712050	-3.138514	580.522627	-0.176834	13.657576	-0.033035	-2.352635	-0.030461
1.520	-0.842391	-3.117918	580.568116	-0.148145	13.876959	-0.048086	-2.390238	-0.025517
1.530	-0.914146	-3.107833	580.735429	-0.108983	14.067527	-0.063893	-2.422364	-0.018766
1.540	-0.929813	-3.104676	580.971380	-0.059393	14.224277	-0.079948	-2.448361	-0.010223
1.550	-0.898917	-3.101436	581.210436	0.000542	14.344157	-0.095433	-2.467980	0.000093
1.560	-0.836160	-3.089149	581.398073	0.070781	14.426771	-0.109441	-2.481393	0.012174
1.570	-0.758436	-3.059416	581.507323	0.151193	14.474346	-0.121279	-2.489108	0.026000
1.580	-0.681351	-3.007139	581.542500	0.241332	14.490968	-0.130727	-2.491816	0.041499
1.590	-0.615883	-2.932360	581.529784	0.340188	14.481441	-0.138104	-2.490232	0.058499
1.600	-0.565881	-2.840253	581.500022	0.446078	14.450243	-0.144090	-2.484994	0.076712
1.610	-0.527217	-2.739059	581.472252	0.556801	14.400865	-0.149417	-2.476621	0.095757
1.620	-0.489200	-2.636710	581.445773	0.670099	14.335660	-0.154561	-2.465520	0.115247
1.630	-0.438351	-2.537652	581.404246	0.784221	14.256092	-0.159524	-2.452010	0.134884
1.640	-0.363575	-2.441441	581.329333	0.898252	14.163172	-0.163754	-2.436342	0.154517
1.650	-0.260727	-2.343874	581.216433	1.011988	14.057798	-0.166259	-2.418686	0.174116
1.660	-0.134378	-2.240183	581.083646	1.125386	13.940881	-0.165968	-2.399118	0.193670
1.670	0.004164	-2.128633	580.968521	1.237829	13.813349	-0.162225	-2.377642	0.213063
1.680	0.141674	-2.012483	580.914117	1.347622	13.676159	-0.155168	-2.354248	0.231983
1.690	0.268566	-1.899198	580.951973	1.452156	13.530261	-0.145735	-2.328981	0.249961
1.700	0.382799	-1.797466	581.090215	1.548880	13.376383	-0.135339	-2.301946	0.266547
1.710	0.490447	-1.713807	581.310484	1.636644	13.214611	-0.125429	-2.273245	0.281544
1.720	0.602590	-1.650442	581.572112	1.716538	13.044055	-0.117136	-2.242896	0.295155
1.730	0.729920	-1.605086	581.820462	1.791607	12.862944	-0.111060	-2.210810	0.307931
1.740	0.877676	-1.572347	581.998224	1.865578	12.669340	-0.107127	-2.176869	0.320547
1.750	1.043257	-1.545946	582.059376	1.941337	12.462274	-0.104519	-2.141066	0.333529
1.760	1.217293	-1.520707	581.982888	2.019992	12.242748	-0.101769	-2.103627	0.347088
1.770	1.387081	-1.493343	581.780309	2.100879	12.014023	-0.097108	-2.065045	0.361112
1.780	1.540574	-1.461817	581.492710	2.182377	11.780860	-0.089006	-2.025969	0.375306
1.790	1.669609	-1.424080	581.177841	2.263056	11.547925	-0.076734	-1.986986	0.389391
1.800	1.772013	-1.377472	580.893271	2.342570	11.318045	-0.060651	-1.948386	0.403270
1.810	1.852521	-1.319458	580.682304	2.421868	11.091138	-0.042110	-1.910018	0.417073
1.820	1.922248	-1.249334	580.566770	2.502652	10.864368	-0.023012	-1.871338	0.431070
1.830	1.996399	-1.169740	580.547043	2.586432	10.633419	-0.005270	-1.831621	0.445516
1.840	2.090522	-1.086769	580.606883	2.673709	10.394311	0.009592	-1.790249	0.460503
1.850	2.216326	-1.008227	580.719886	2.763696	10.145005	0.020619	-1.746971	0.475909
1.860	2.378433	-0.940755	580.855349	2.854639	9.886256	0.027463	-1.702017	0.491454
1.870	2.573094	-0.887301	580.983155	2.944470	9.621465	0.030376	-1.656066	0.506808
1.880	2.789267	-0.846228	581.078507	3.031283	9.355627	0.030185	-1.610045	0.521665
1.890	3.011763	-0.812299	581.127002	3.113344	9.093714	0.028172	-1.564841	0.535743
1.900	3.225644	-0.778950	581.128866	3.188765	8.839121	0.025775	-1.521026	0.548719
1.910	3.420651	-0.740821	581.099376	3.255278	8.592857	0.024147	-1.478724	0.560193
1.920	3.594115	-0.695665	581.062976	3.310472	8.353877	0.023755	-1.437689	0.569727
1.930	3.751100	-0.645033	581.042325	3.352377	8.120373	0.024253	-1.397553	0.576959
1.940	3.901530	-0.593645	581.048100	3.379968	7.891365	0.024704	-1.358126	0.581702
1.950	4.055496	-0.547746	581.076003	3.393242	7.667855	0.024037	-1.319596	0.583958
1.960	4.218717	-0.513059	581.112614	3.392894	7.453133	0.021496	-1.282563	0.583862
1.970	4.389858	-0.493208	581.145328	3.379916	7.252155	0.016861	-1.247907	0.581596
1.980	4.560350	-0.489263	581.169359	3.355371	7.070172	0.010363	-1.216543	0.577348
1.990	4.716554	-0.500465	581.187975	3.320300	6.911007	0.002389	-1.189117	0.571295
2.000	4.843740	-0.525434	581.206856	3.275603	6.775614	-0.006789	-1.165783	0.563586
2.010	4.930881	-0.562972	581.226386	3.221881	6.661577	-0.017046	-1.146124	0.554325
2.020	4.974727	-0.612021	581.236227	3.159367	6.563823	-0.028248	-1.129287	0.543560
2.030	4.981510	-0.671036	581.215881	3.088056	6.476252	-0.040070	-1.114259	0.531310
2.040	4.965416	-0.737447	581.142971	3.007981	6.393600	-0.051965	-1.100177	0.517597
2.050	4.944316	-0.807825	581.007102	2.919515	6.312847	-0.063287	-1.086535	0.502492
2.060	4.934347	-0.878820	580.822386	2.823545	6.233752	-0.073504	-1.073263	0.486129
2.070	4.945277	-0.948319	580.629823	2.721378	6.158516	-0.082353	-1.060661	0.468694
2.080	4.978135	-1.016066	580.485175	2.614366	6.090921	-0.089850	-1.049281	0.450376
2.090	5.025609	-1.083316	580.437258	2.503470	6.035325	-0.096162	-1.039789	0.431308
2.100	5.074793	-1.151754	580.508321	2.388981	5.995830	-0.101473	-1.032859	0.411533
2.110	5.111238	-1.222548	580.686468	2.270536	5.975757	-0.105980	-1.029085	0.391009
2.120	5.123025	-1.296291	580.931874	2.147354	5.977371	-0.109968	-1.028928	0.369640
2.130	5.103721	-1.373863	581.191270	2.018587	6.001658	-0.113804	-1.032648	0.347319
2.140	5.053426	-1.457357	581.413159	1.883668	6.048074	-0.117732	-1.040237	0.323981
2.150	4.977670	-1.550221	581.558765	1.742598	6.114399	-0.121629	-1.051381	0.299643
2.160	4.884554	-1.656304	581.607650	1.596123	6.197028	-0.124927	-1.065500	0.274433
2.170	4.781300	-1.778139	581.559415	1.445807	6.291891	-0.126817	-1.081900	0.248609
2.180	4.671671	-1.915218	581.432586	1.294040	6.395746	-0.126576	-1.099998	0.222561
2.190	4.555334	-2.063077	581.259995	1.143975	6.507278	-0.123808	-1.119513	0.196810
2.200	4.429131	-2.213723	581.079891	0.999281	6.627405	-0.118488	-1.140533	0.171970
2.210	4.289328	-2.357397	580.924579	0.863649	6.758597	-0.110898	-1.163421	0.148668
2.220	4.133646	-2.485183	580.811137	0.740178	6.903541	-0.101531	-1.188603	0.127439
2.230	3.962283	-2.591539	580.738525	0.630912	7.063826	-0.091019	-1.216352	0.108640
2.240	3.777861	-2.675683	580.692603	0.536729	7.239256	-0.080040	-1.246659	0.092429
2.250	3.584799	-2.741177	580.656891	0.457576	7.428030	-0.069187	-1.279246	0.078803
2.260	3.388579	-2.793954	580.623733	0.392832	7.627523	-0.058811	-1.313677	0.067657
2.270	3.194916	-2.839825	580.599519	0.341566	7.835042	-0.048886	-1.349474	0.058830
2.280	3.008651	-2.882559	580.600360	0.302625	8.048087	-0.038991	-1.386166	0.052123
2.290	2.832529	-2.923124	580.640364	0.274658	8.264071	-0.028433	-1.423268	0.047303
2.300	2.666313	-2.960077	580.719686	0.256146	8.479955	-0.016494	-1.460249	0.044108
2.310	2.506691	-2.990669	580.819875	0.245414	8.692293	-0.002724	-1.496556	0.042253
2.320	2.348260	-3.012136	580.909694	0.240602	8.897785	0.012780	-1.531699	0.041418
2.330	2.185594	-3.022727	580.958785	0.239649	9.093962	0.029204	-1.565337	0.041251
2.340	2.016032	-3.022144	580.952626	0.240455	9.279503	0.045054	-1.597291	0.041390
2.350	1.842316	-3.011392	580.901158	0.241256	9.453961	0.058424	-1.627465	0.041531
2.360	1.673745	-2.992287	580.835706	0.241123	9.617116	0.067493	-1.655738	0.041513
2.370	1.524765	-2.967037	580.794502	0.240303	9.768500	0.071082	-1.681920	0.041375
2.380	1.410848	-2.938132	580.804176	0.240150	9.907402	0.069086	-1.705808	0.041348
2.390	1.342912	-2.908418	580.867980	0.242595	10.033290	0.062580	-1.727293	0.041764
2.400	1.322577	-2.880896	580.967458	0.249347	10.146255	0.053545	-1.746441	0.042919
