Time[s]	Fx[N]	Fy[N]	Fz[N]	Mx[Nm]	My[Nm]	Mz[Nm]	COPx[cm]	COPy[cm]
0.010	1.538347	-4.418232	684.992971	-5.541340	4.906311	0.270286	-0.716257	-0.808963
0.020	1.526163	-4.332983	685.038626	-5.551216	4.842406	0.280865	-0.706881	-0.810351
0.030	1.529222	-4.254808	685.076833	-5.556632	4.775502	0.290928	-0.697075	-0.811096
0.040	1.559065	-4.189593	685.090674	-5.554668	4.703607	0.299889	-0.686567	-0.810793
0.050	1.620181	-4.141417	685.051621	-5.545458	4.626594	0.307030	-0.675364	-0.809495
0.060	1.709418	-4.112219	684.926181	-5.532073	4.546191	0.311541	-0.663749	-0.807689
0.070	1.817210	-4.101633	684.689256	-5.519410	4.465222	0.312712	-0.652153	-0.806119
0.080	1.929879	-4.106994	684.337532	-5.512646	4.386558	0.310220	-0.640993	-0.805545
0.090	2.032455	-4.123762	683.896695	-5.515739	4.312310	0.304337	-0.630550	-0.806516
0.100	2.111649	-4.146458	683.419805	-5.530399	4.243572	0.295969	-0.620932	-0.809224
0.110	2.158589	-4.169789	682.977719	-5.555761	4.180637	0.286494	-0.612119	-0.813461
0.120	2.170762	-4.189511	682.644411	-5.588786	4.123372	0.277483	-0.604029	-0.818696
0.130	2.152630	-4.202737	682.481024	-5.625153	4.071409	0.270365	-0.596560	-0.824221
0.140	2.114710	-4.207744	682.522802	-5.660312	4.023913	0.266138	-0.589565	-0.829322
0.150	2.071379	-4.203478	682.772249	-5.690385	3.979020	0.265195	-0.582774	-0.833424
0.160	2.037947	-4.189182	683.199704	-5.712662	3.933337	0.267318	-0.575723	-0.836163
0.170	2.027678	-4.164555	683.749817	-5.725666	3.882020	0.271832	-0.567754	-0.837392
0.180	2.049304	-4.130559	684.350873	-5.729004	3.819572	0.277809	-0.558131	-0.837144
0.190	2.105533	-4.090336	684.924181	-5.723285	3.741111	0.284250	-0.546208	-0.835609
0.200	2.192907	-4.049316	685.392561	-5.710146	3.643586	0.290196	-0.531606	-0.833121
0.210	2.303123	-4.013879	685.688967	-5.692188	3.526579	0.294783	-0.514312	-0.830141
0.220	2.425516	-3.988869	685.766732	-5.672573	3.392549	0.297232	-0.494709	-0.827187
0.230	2.549917	-3.975206	685.611013	-5.654301	3.246563	0.296838	-0.473528	-0.824710
0.240	2.668823	-3.969026	685.247812	-5.639487	3.095692	0.293010	-0.451762	-0.822985
0.250	2.777979	-3.963065	684.745053	-5.629146	2.948292	0.285462	-0.430568	-0.822079
0.260	2.875243	-3.949862	684.201305	-5.623653	2.813276	0.274484	-0.411177	-0.821930
0.270	2.958492	-3.925413	683.722416	-5.623561	2.699303	0.261082	-0.394795	-0.822492
0.280	3.023790	-3.891552	683.392807	-5.630179	2.613736	0.246815	-0.382465	-0.823857
0.290	3.064856	-3.855712	683.252651	-5.645509	2.561391	0.233357	-0.374882	-0.826270
0.300	3.074306	-3.827996	683.290760	-5.671607	2.543384	0.222029	-0.372226	-0.830043
0.310	3.046381	-3.816948	683.455801	-5.709768	2.556618	0.213546	-0.374072	-0.835426
0.320	2.980039	-3.826137	683.679846	-5.759973	2.594279	0.208053	-0.379458	-0.842496
0.330	2.881037	-3.853135	683.903233	-5.820843	2.647264	0.205301	-0.387082	-0.851121
0.340	2.761929	-3.891082	684.090194	-5.889959	2.706029	0.204809	-0.395566	-0.860992
0.350	2.639702	-3.931780	684.229974	-5.964233	2.762299	0.205959	-0.403709	-0.871671
0.360	2.531597	-3.968669	684.326075	-6.040163	2.810261	0.208118	-0.410661	-0.882644
0.370	2.450418	-3.998427	684.382702	-6.114188	2.847075	0.210785	-0.416006	-0.893387
0.380	2.401035	-4.020889	684.397960	-6.183327	2.872674	0.213695	-0.419737	-0.903470
0.390	2.379401	-4.037921	684.367327	-6.245924	2.889043	0.216804	-0.422148	-0.912657
0.400	2.374247	-4.052204	684.293323	-6.301975	2.899296	0.220157	-0.423692	-0.920946
0.410	2.370527	-4.066430	684.193399	-6.352731	2.906889	0.223734	-0.424864	-0.928499
0.420	2.353264	-4.082775	684.099836	-6.399795	2.915150	0.227379	-0.426129	-0.935506
0.430	2.310894	-4.102297	684.050486	-6.444276	2.926994	0.230822	-0.427892	-0.942076
0.440	2.237776	-4.124325	684.074361	-6.486527	2.944540	0.233771	-0.430442	-0.948220
0.450	2.135613	-4.146346	684.179159	-6.526606	2.968485	0.236011	-0.433875	-0.953932
0.460	2.013407	-4.164915	684.347517	-6.565099	2.997478	0.237486	-0.438005	-0.959322
0.470	1.885602	-4.177464	684.544259	-6.603628	3.027907	0.238403	-0.442325	-0.964675
0.480	1.768617	-4.184116	684.730388	-6.644593	3.054362	0.239307	-0.446068	-0.970395
0.490	1.676541	-4.188443	684.875697	-6.690319	3.070655	0.241039	-0.448352	-0.976866
0.500	1.617205	-4.196667	684.964201	-6.742167	3.071005	0.244497	-0.448345	-0.984309
0.510	1.590002	-4.215688	684.992533	-6.800051	3.050918	0.250252	-0.445394	-0.992719
0.520	1.586528	-4.250785	684.965487	-6.862525	3.007561	0.258192	-0.439082	-1.001879
0.530	1.594208	-4.303867	684.892324	-6.927285	2.939749	0.267373	-0.429228	-1.011441
0.540	1.601928	-4.372852	684.784824	-6.991901	2.847755	0.276209	-0.415861	-1.021036
0.550	1.605735	-4.452285	684.656461	-7.054594	2.733018	0.282968	-0.399181	-1.030385
0.560	1.612260	-4.534845	684.522002	-7.114860	2.597729	0.286438	-0.379495	-1.039391
0.570	1.637933	-4.613212	684.396941	-7.173679	2.444355	0.286545	-0.357155	-1.048175
0.580	1.703517	-4.681925	684.295943	-7.233137	2.275255	0.284649	-0.332496	-1.057019
0.590	1.825754	-4.738913	684.229978	-7.295540	2.092533	0.283307	-0.305823	-1.066241
0.600	2.009735	-4.786241	684.203297	-7.362394	1.898033	0.285499	-0.277408	-1.076054
0.610	2.245572	-4.829592	684.212398	-7.433727	1.693341	0.293569	-0.247488	-1.086465
0.620	2.511048	-4.876453	684.248264	-7.508007	1.479738	0.308348	-0.216257	-1.097264
0.630	2.779204	-4.933493	684.301003	-7.582686	1.258209	0.328858	-0.183868	-1.108092
0.640	3.027740	-5.003987	684.364251	-7.655227	1.029628	0.352760	-0.150450	-1.118590
0.650	3.246432	-5.086386	684.436800	-7.724299	0.795051	0.377315	-0.116161	-1.128563
0.660	3.439519	-5.174830	684.520887	-7.790576	0.555900	0.400371	-0.081210	-1.138106
0.670	3.622113	-5.261477	684.618400	-7.856512	0.313830	0.420906	-0.045840	-1.147575
0.680	3.812247	-5.339470	684.726719	-7.924893	0.070273	0.438896	-0.010263	-1.157380
0.690	4.022316	-5.405097	684.835539	-7.996774	-0.174032	0.454742	0.025412	-1.167693
0.700	4.253860	-5.458234	684.926197	-8.069944	-0.419026	0.468686	0.061178	-1.178221
0.710	4.497746	-5.501055	684.975009	-8.138922	-0.664565	0.480572	0.097020	-1.188207
0.720	4.738904	-5.535723	684.960518	-8.196680	-0.909145	0.489975	0.132730	-1.196665
0.730	4.962636	-5.562171	684.871832	-8.237251	-1.148882	0.496476	0.167751	-1.202743
0.740	5.159383	-5.577023	684.713953	-8.257938	-1.377433	0.499848	0.201169	-1.206042
0.750	5.326140	-5.574302	684.507504	-8.260116	-1.587066	0.500057	0.231855	-1.206724
0.760	5.464574	-5.547854	684.283310	-8.248569	-1.770373	0.497168	0.258719	-1.205432
0.770	5.577315	-5.494579	684.074658	-8.229867	-1.921834	0.491278	0.280939	-1.203066
0.780	5.664513	-5.417109	683.910279	-8.210546	-2.038565	0.482598	0.298075	-1.200530
0.790	5.722354	-5.324548	683.809584	-8.195574	-2.120122	0.471641	0.310046	-1.198517
0.800	5.744026	-5.230604	683.780582	-8.187366	-2.167770	0.459348	0.317027	-1.197367
0.810	5.722426	-5.149640	683.820934	-8.185443	-2.183778	0.446997	0.319349	-1.197016
0.820	5.653332	-5.092355	683.921629	-8.186807	-2.171024	0.435875	0.317437	-1.197039
0.830	5.537907	-5.062900	684.070349	-8.186990	-2.132742	0.426879	0.311772	-1.196805
0.840	5.383610	-5.058249	684.251383	-8.181494	-2.072137	0.420242	0.302833	-1.195685
0.850	5.203078	-5.069571	684.442949	-8.167137	-1.991903	0.415506	0.291025	-1.193253
0.860	5.011218	-5.084916	684.616599	-8.142868	-1.893985	0.411759	0.276649	-1.189406
0.870	4.821604	-5.092493	684.742121	-8.109830	-1.779868	0.408043	0.259933	-1.184363
0.880	4.643547	-5.083640	684.796460	-8.070772	-1.651292	0.403754	0.241136	-1.178565
0.890	4.480774	-5.054643	684.771982	-8.029175	-1.510916	0.398829	0.220645	-1.172533
0.900	4.331850	-5.006931	684.680184	-7.988411	-1.362474	0.393630	0.198994	-1.166736
0.910	4.191972	-4.945942	684.549835	-7.951009	-1.210358	0.388589	0.176811	-1.161495
0.920	4.055426	-4.879428	684.420577	-7.918062	-1.058855	0.383807	0.154708	-1.156900
0.930	3.917780	-4.815890	684.333404	-7.888935	-0.911382	0.378843	0.133178	-1.152791
0.940	3.777016	-4.763128	684.319284	-7.861542	-0.769939	0.372800	0.112512	-1.148812
0.950	3.633483	-4.726567	684.388050	-7.833235	-0.634948	0.364662	0.092776	-1.144561
0.960	3.489264	-4.707534	684.521416	-7.801958	-0.505550	0.353751	0.073854	-1.139768
0.970	3.347575	-4.702383	684.674496	-7.767118	-0.380271	0.340116	0.055540	-1.134425
0.980	3.212264	-4.703324	684.787802	-7.729711	-0.257768	0.324692	0.037642	-1.128775
0.990	3.087075	-4.700927	684.806518	-7.691677	-0.137337	0.309133	0.020055	-1.123190
1.000	2.974587	-4.687236	684.699433	-7.654884	-0.018965	0.295369	0.002770	-1.117992
1.010	2.875395	-4.658146	684.469845	-7.620384	0.097054	0.285041	-0.014179	-1.113327
1.020	2.788133	-4.614294	684.154928	-7.588351	0.210735	0.279047	-0.030802	-1.109157
1.030	2.710281	-4.560583	683.815000	-7.558562	0.322941	0.277339	-0.047226	-1.105352
1.040	2.639043	-4.504815	683.517246	-7.530892	0.435492	0.279053	-0.063713	-1.101785
1.050	2.571721	-4.455804	683.319227	-7.505314	0.550689	0.282886	-0.080590	-1.098361
1.060	2.505714	-4.421211	683.256459	-7.481436	0.670361	0.287561	-0.098113	-1.094967
1.070	2.438665	-4.405463	683.336467	-7.458121	0.794866	0.292166	-0.116321	-1.091427
1.080	2.369050	-4.408269	683.539965	-7.433732	0.922498	0.296231	-0.134959	-1.087534
1.090	2.296964	-4.424389	683.828210	-7.407024	1.049633	0.299547	-0.153494	-1.083170
1.100	2.224637	-4.444986	684.153873	-7.378174	1.171568	0.301897	-0.171243	-1.078438
1.110	2.156435	-4.460368	684.471701	-7.349216	1.283674	0.302914	-0.187542	-1.073706
1.120	2.098345	-4.463203	684.746007	-7.323421	1.382336	0.302174	-0.201876	-1.069509
1.130	2.056974	-4.450928	684.954068	-7.303707	1.465374	0.299441	-0.213938	-1.066306
1.140	2.038086	-4.426295	685.085972	-7.290833	1.531951	0.294929	-0.223614	-1.064222
1.150	2.044908	-4.395960	685.141755	-7.282480	1.582262	0.289422	-0.230939	-1.062916
1.160	2.076675	-4.367902	685.127086	-7.273968	1.617262	0.284188	-0.236053	-1.061696
1.170	2.128048	-4.348800	685.049556	-7.260325	1.638568	0.280696	-0.239190	-1.059825
1.180	2.189944	-4.342230	684.917352	-7.238658	1.648518	0.280245	-0.240689	-1.056866
1.190	2.251790	-4.348161	684.740492	-7.209679	1.650231	0.283603	-0.241001	-1.052907
1.200	2.304380	-4.363692	684.533302	-7.177805	1.647499	0.290772	-0.240675	-1.048569
1.210	2.342093	-4.384478	684.316311	-7.149744	1.644394	0.300944	-0.240297	-1.044801
1.220	2.363730	-4.406067	684.115840	-7.132121	1.644651	0.312662	-0.240405	-1.042531
1.230	2.371912	-4.424690	683.960072	-7.129186	1.651090	0.324136	-0.241401	-1.042340
1.240	2.371385	-4.437724	683.872208	-7.141739	1.665350	0.333612	-0.243518	-1.044309
1.250	2.366744	-4.444159	683.863630	-7.167614	1.687952	0.339680	-0.246826	-1.048106
1.260	2.360413	-4.445024	683.930463	-7.203038	1.718498	0.341503	-0.251268	-1.053183
1.270	2.351922	-4.443341	684.055043	-7.243849	1.755729	0.338975	-0.256665	-1.058957
1.280	2.339055	-4.443381	684.211116	-7.286109	1.797329	0.332787	-0.262686	-1.064892
1.290	2.320500	-4.449452	684.370246	-7.326302	1.839581	0.324347	-0.268799	-1.070517
1.300	2.298633	-4.464490	684.507375	-7.361457	1.877243	0.315509	-0.274247	-1.075439
1.310	2.280642	-4.488713	684.604548	-7.389313	1.904038	0.308170	-0.278122	-1.079355
1.320	2.276987	-4.518739	684.652416	-7.408517	1.913885	0.303875	-0.279541	-1.082084
1.330	2.297739	-4.547974	684.649767	-7.418813	1.902546	0.303507	-0.277886	-1.083592
1.340	2.348553	-4.568767	684.602111	-7.421093	1.868964	0.307134	-0.273000	-1.084001
1.350	2.428180	-4.575641	684.520006	-7.417147	1.815579	0.313974	-0.265234	-1.083555
1.360	2.528580	-4.567888	684.416849	-7.409028	1.747379	0.322569	-0.255309	-1.082532
1.370	2.637604	-4.550010	684.305945	-7.398297	1.670241	0.331202	-0.244078	-1.081139
1.380	2.743133	-4.529732	684.198076	-7.385585	1.589473	0.338496	-0.232312	-1.079451
1.390	2.836927	-4.514613	684.101227	-7.370789	1.509169	0.343944	-0.220606	-1.077441
1.400	2.916592	-4.508977	684.022556	-7.353832	1.432368	0.348037	-0.209404	-1.075086
1.410	2.984973	-4.512789	683.970626	-7.335569	1.361584	0.351922	-0.199071	-1.072498
1.420	3.047508	-4.522864	683.955473	-7.318234	1.299271	0.356749	-0.189964	-1.069987
1.430	3.108944	-4.535164	683.985886	-7.304993	1.247984	0.363079	-0.182458	-1.068004
1.440	3.170860	-4.546379	684.065699	-7.298682	1.210171	0.370605	-0.176909	-1.066956
1.450	3.230772	-4.554095	684.191682	-7.300314	1.187723	0.378239	-0.173595	-1.066998
1.460	3.282845	-4.556411	684.353587	-7.308161	1.181548	0.384460	-0.172652	-1.067893
1.470	3.319811	-4.552095	684.534532	-7.317906	1.191402	0.387752	-0.174046	-1.069034
1.480	3.335358	-4.541194	684.710249	-7.323799	1.215987	0.387012	-0.177592	-1.069620
1.490	3.326183	-4.525143	684.849256	-7.320389	1.253158	0.381836	-0.182983	-1.068905
1.500	3.293026	-4.505896	684.918369	-7.304208	1.300110	0.372658	-0.189820	-1.066435
1.510	3.240471	-4.484770	684.894968	-7.274848	1.353615	0.360647	-0.197638	-1.062184
1.520	3.175697	-4.462099	684.780212	-7.234969	1.410445	0.347375	-0.205970	-1.056539
1.530	3.106628	-4.437977	684.603479	-7.189164	1.468065	0.334377	-0.214440	-1.050121
1.540	3.039991	-4.413293	684.413204	-7.142191	1.525357	0.322803	-0.222871	-1.043550
1.550	2.979798	-4.389899	684.259222	-7.097407	1.582964	0.313354	-0.231340	-1.037240
1.560	2.926680	-4.369543	684.176748	-7.056049	1.642916	0.306419	-0.240130	-1.031320
1.570	2.878286	-4.352357	684.178376	-7.017376	1.707571	0.302223	-0.249580	-1.025665
1.580	2.830573	-4.336131	684.254086	-6.979355	1.778275	0.300786	-0.259885	-1.019995
1.590	2.779461	-4.316994	684.376789	-6.939511	1.854366	0.301745	-0.270957	-1.013990
1.600	2.722376	-4.291122	684.511668	-6.895716	1.933061	0.304265	-0.282400	-1.007392
1.610	2.659282	-4.256621	684.627213	-6.846682	2.010313	0.307155	-0.293636	-1.000060
1.620	2.592897	-4.214742	684.703853	-6.792091	2.082235	0.309154	-0.304107	-0.991975
1.630	2.527974	-4.169798	684.736002	-6.732521	2.146452	0.309251	-0.313471	-0.983229
1.640	2.470000	-4.127497	684.727008	-6.669394	2.202827	0.306990	-0.321709	-0.974022
1.650	2.423821	-4.092261	684.681566	-6.604920	2.253302	0.302682	-0.329102	-0.964670
1.660	2.392474	-4.065016	684.602034	-6.541848	2.300943	0.297373	-0.336099	-0.955569
1.670	2.376322	-4.042901	684.491511	-6.482905	2.348706	0.292454	-0.343131	-0.947113
1.680	2.372693	-4.021154	684.360258	-6.430012	2.398525	0.289020	-0.350477	-0.939565
1.690	2.376408	-3.995942	684.228614	-6.383579	2.451133	0.287320	-0.358233	-0.932960
1.700	2.381318	-3.966320	684.122489	-6.342250	2.506508	0.286635	-0.366383	-0.927064
1.710	2.382390	-3.934223	684.063956	-6.303367	2.564476	0.285661	-0.374888	-0.921459
1.720	2.377262	-3.902808	684.063233	-6.264113	2.624993	0.283173	-0.383735	-0.915721
1.730	2.366226	-3.874545	684.116190	-6.222855	2.687942	0.278543	-0.392907	-0.909620
1.740	2.350595	-3.850302	684.206928	-6.179953	2.752755	0.271862	-0.402328	-0.903229
1.750	2.330700	-3.829538	684.312682	-6.137506	2.818309	0.263696	-0.411845	-0.896886
1.760	2.305088	-3.810863	684.409258	-6.098223	2.883287	0.254751	-0.421281	-0.891020
1.770	2.271313	-3.792392	684.476723	-6.064196	2.946706	0.245716	-0.430505	-0.885961
1.780	2.227451	-3.772027	684.504801	-6.036358	3.008190	0.237245	-0.439470	-0.881858
1.790	2.173255	-3.747955	684.496150	-6.014737	3.067870	0.229948	-0.448194	-0.878710
1.800	2.110488	-3.719377	684.465154	-5.999007	3.126171	0.224254	-0.456732	-0.876452
1.810	2.042537	-3.687107	684.431627	-5.988785	3.183803	0.220258	-0.465175	-0.875001
1.820	1.973588	-3.653574	684.411645	-5.983534	3.241949	0.217695	-0.473684	-0.874259
1.830	1.907682	-3.622021	684.409629	-5.982321	3.302321	0.216115	-0.482506	-0.874085
1.840	1.847791	-3.595218	684.415436	-5.983801	3.366827	0.215095	-0.491927	-0.874294
1.850	1.794876	-3.574353	684.408173	-5.986556	3.436912	0.214404	-0.502173	-0.874705
1.860	1.746972	-3.558650	684.365676	-5.989633	3.513012	0.214061	-0.513324	-0.875209
1.870	1.698726	-3.545772	684.276243	-5.992953	3.594547	0.214290	-0.525306	-0.875809
1.880	1.642065	-3.532794	684.147922	-5.997337	3.680506	0.215364	-0.537969	-0.876614
1.890	1.568318	-3.517328	684.010809	-6.004144	3.770197	0.217350	-0.551190	-0.877785
1.900	1.471373	-3.498496	683.909616	-6.014650	3.863576	0.219914	-0.564925	-0.879451
1.910	1.350705	-3.477508	683.887592	-6.029410	3.960885	0.222354	-0.579172	-0.881638
1.920	1.212695	-3.457536	683.967776	-6.047891	4.061851	0.223923	-0.593866	-0.884236
1.930	1.069120	-3.442595	684.140121	-6.068624	4.165105	0.224255	-0.608809	-0.887044
1.940	0.933052	-3.435580	684.360500	-6.089873	4.268320	0.223589	-0.623695	-0.889863
1.950	0.813947	-3.436408	684.561771	-6.110523	4.369007	0.222644	-0.638220	-0.892618
1.960	0.714249	-3.441483	684.672484	-6.130665	4.465387	0.222246	-0.652193	-0.895416
1.970	0.629106	-3.445086	684.637433	-6.151502	4.556778	0.222948	-0.665575	-0.898505
1.980	0.549182	-3.442159	684.434693	-6.174635	4.643381	0.224849	-0.678426	-0.902151
1.990	0.465126	-3.431109	684.084579	-6.201172	4.725779	0.227667	-0.690818	-0.906492
2.000	0.371576	-3.415128	683.647774	-6.231140	4.804466	0.230984	-0.702769	-0.911455
2.010	0.268937	-3.401283	683.212975	-6.263440	4.879463	0.234541	-0.714194	-0.916762
2.020	0.162415	-3.397789	682.877233	-6.296286	4.949903	0.238394	-0.724860	-0.922023
2.030	0.059276	-3.410633	682.723486	-6.327911	5.013587	0.242864	-0.734351	-0.926863
2.040	-0.033860	-3.440849	682.800012	-6.357184	5.066811	0.248280	-0.742064	-0.931046
2.050	-0.112301	-3.483589	683.106861	-6.383918	5.104694	0.254637	-0.747276	-0.934542
2.060	-0.172785	-3.529583	683.594037	-6.408834	5.121981	0.261381	-0.749272	-0.937521
2.070	-0.211887	-3.568452	684.173445	-6.433389	5.113925	0.267455	-0.747460	-0.940316
2.080	-0.224474	-3.592401	684.741603	-6.459578	5.076859	0.271649	-0.741427	-0.943360
2.090	-0.203334	-3.598727	685.205487	-6.489658	5.008300	0.273112	-0.730919	-0.947111
2.100	-0.140485	-3.590567	685.502828	-6.525639	4.906869	0.271770	-0.715806	-0.951949
2.110	-0.029705	-3.576028	685.611120	-6.568603	4.772406	0.268461	-0.696081	-0.958065
2.120	0.130945	-3.566056	685.544986	-6.618180	4.606438	0.264715	-0.671938	-0.965390
2.130	0.337728	-3.571346	685.345844	-6.672578	4.412727	0.262282	-0.643869	-0.973607
2.140	0.581389	-3.598998	685.069263	-6.729225	4.197338	0.262610	-0.612688	-0.982269
2.150	0.848510	-3.650129	684.774209	-6.785772	3.967943	0.266365	-0.579453	-0.990950
2.160	1.123507	-3.719663	684.515531	-6.841032	3.732489	0.273144	-0.545275	-0.999398
2.170	1.390802	-3.798644	684.337825	-6.895587	3.497697	0.281500	-0.511107	-1.007629
2.180	1.636942	-3.877997	684.268083	-6.951919	3.267937	0.289381	-0.477581	-1.015964
2.190	1.852541	-3.951849	684.307869	-7.013988	3.044825	0.294891	-0.444950	-1.024976
2.200	2.033823	-4.018945	684.430156	-7.086264	2.827562	0.297015	-0.413126	-1.035352
2.210	2.183283	-4.081999	684.586040	-7.172353	2.613805	0.295987	-0.381808	-1.047692
2.220	2.308983	-4.145896	684.721072	-7.273616	2.400758	0.293141	-0.350618	-1.062274
2.230	2.422421	-4.215855	684.794393	-7.388257	2.186156	0.290366	-0.319243	-1.078901
2.240	2.535581	-4.296096	684.791702	-7.511347	1.968887	0.289405	-0.287516	-1.096881
2.250	2.658185	-4.388981	684.726744	-7.635899	1.749089	0.291297	-0.255443	-1.115175
2.260	2.795900	-4.494440	684.632184	-7.754680	1.527773	0.296149	-0.223152	-1.132678
2.270	2.949634	-4.609739	684.545109	-7.862112	1.306281	0.303267	-0.190825	-1.148516
2.280	3.115643	-4.729692	684.493108	-7.955564	1.085904	0.311514	-0.158644	-1.162256
2.290	3.286338	-4.847360	684.485264	-8.035636	0.867840	0.319657	-0.126787	-1.173968
2.300	3.451985	-4.955160	684.510376	-8.105456	0.653332	0.326636	-0.095445	-1.184125
2.310	3.603349	-5.046368	684.542596	-8.169439	0.443717	0.331740	-0.064820	-1.193416
2.320	3.734599	-5.116924	684.552421	-8.232095	0.240255	0.334714	-0.035097	-1.202552
2.330	3.845251	-5.167164	684.519015	-8.297207	0.043897	0.335749	-0.006413	-1.212122
2.340	3.940241	-5.202628	684.439179	-8.367236	-0.144730	0.335334	0.021146	-1.222495
2.350	4.028007	-5.233032	684.329377	-8.442817	-0.325083	0.334041	0.047504	-1.233736
2.360	4.117214	-5.269189	684.220027	-8.522502	-0.496364	0.332285	0.072544	-1.245579
2.370	4.213121	-5.318785	684.144644	-8.603052	-0.657261	0.330177	0.096071	-1.257490
