Time[s]	Fx[N]	Fy[N]	Fz[N]	Mx[Nm]	My[Nm]	Mz[Nm]	COPx[cm]	COPy[cm]
0.010	1.748619	-5.977413	575.384035	-11.636028	-9.103838	0.423318	1.582219	-2.022306
0.020	1.965707	-5.846550	573.403625	-11.609888	-9.204984	0.420231	1.605324	-2.024732
0.030	2.158242	-5.728450	571.627730	-11.590477	-9.320299	0.421216	1.630484	-2.027627
0.040	2.310258	-5.636699	570.229470	-11.582902	-9.459964	0.429018	1.658975	-2.031270
0.050	2.418810	-5.584312	569.322172	-11.589141	-9.627257	0.444095	1.691003	-2.035603
0.060	2.493324	-5.581087	568.946794	-11.607900	-9.818272	0.464561	1.725693	-2.040244
0.070	2.550632	-5.629986	569.074005	-11.635901	-10.023941	0.486934	1.761448	-2.044708
0.080	2.608545	-5.724280	569.617991	-11.670069	-10.233340	0.507335	1.796527	-2.048754
0.090	2.680705	-5.847298	570.456424	-11.709386	-10.436833	0.522642	1.829558	-2.052635
0.100	2.774016	-5.975622	571.451326	-11.755153	-10.627867	0.531195	1.859803	-2.057070
0.110	2.888270	-6.084848	572.467545	-11.809383	-10.803044	0.532985	1.887102	-2.062891
0.120	3.016994	-6.155829	573.387329	-11.872380	-10.960916	0.529396	1.911608	-2.070569
0.130	3.149064	-6.179291	574.120581	-11.941174	-11.100454	0.522693	1.933471	-2.079907
0.140	3.271398	-6.157404	574.611353	-12.009932	-11.220147	0.515419	1.952650	-2.090097
0.150	3.372886	-6.102099	574.841216	-12.072106	-11.318250	0.509827	1.968935	-2.100077
0.160	3.448499	-6.031082	574.828873	-12.123033	-11.393904	0.507443	1.982138	-2.108981
0.170	3.501462	-5.963173	574.624159	-12.161580	-11.448267	0.508788	1.992305	-2.116441
0.180	3.541677	-5.914384	574.295622	-12.190219	-11.484770	0.513291	1.999801	-2.122638
0.190	3.580467	-5.895528	573.914536	-12.213860	-11.508297	0.519419	2.005228	-2.128167
0.200	3.623907	-5.911418	573.541857	-12.238289	-11.523893	0.525047	2.009251	-2.133809
0.210	3.668119	-5.961315	573.224567	-12.268923	-11.535767	0.528017	2.012434	-2.140334
0.220	3.699098	-6.040117	573.002328	-12.310196	-11.547050	0.526781	2.015184	-2.148368
0.230	3.697665	-6.139966	572.917647	-12.365565	-11.560217	0.520963	2.017780	-2.158349
0.240	3.648029	-6.252098	573.018903	-12.437855	-11.577789	0.511657	2.020490	-2.170584
0.250	3.546757	-6.368703	573.349638	-12.529509	-11.602855	0.501298	2.023696	-2.185317
0.260	3.408177	-6.484451	573.927627	-12.642248	-11.639052	0.493041	2.027965	-2.202760
0.270	3.263122	-6.597301	574.725861	-12.776122	-11.689919	0.489863	2.033999	-2.222994
0.280	3.150470	-6.708363	575.667981	-12.928437	-11.757868	0.493692	2.042474	-2.245815
0.290	3.104243	-6.820846	576.642621	-13.093306	-11.843280	0.504838	2.053834	-2.270610
0.300	3.141393	-6.938384	577.530272	-13.262135	-11.944177	0.521851	2.068147	-2.296353
0.310	3.255620	-7.063244	578.229544	-13.424792	-12.056534	0.541841	2.085078	-2.321706
0.320	3.420037	-7.194911	578.671129	-13.570947	-12.174866	0.561169	2.103935	-2.345192
0.330	3.597310	-7.329448	578.816260	-13.691286	-12.292686	0.576360	2.123763	-2.365394
0.340	3.752553	-7.459729	578.646371	-13.778618	-12.402826	0.584910	2.143421	-2.381181
0.350	3.863495	-7.576351	578.155297	-13.828925	-12.497991	0.585704	2.161701	-2.391905
0.360	3.924467	-7.669064	577.351803	-13.842185	-12.571854	0.578940	2.177503	-2.397530
0.370	3.943995	-7.728663	576.271253	-13.822563	-12.620510	0.565714	2.190029	-2.398621
0.380	3.938333	-7.749141	574.987416	-13.777614	-12.643664	0.547581	2.198946	-2.396159
0.390	3.924070	-7.729553	573.614138	-13.716609	-12.644904	0.526267	2.204427	-2.391261
0.400	3.912320	-7.674849	572.292424	-13.648653	-12.630822	0.503559	2.207057	-2.384909
0.410	3.905960	-7.595347	571.166659	-13.581260	-12.609305	0.481232	2.207640	-2.377810
0.420	3.900319	-7.505075	570.358878	-13.519632	-12.587697	0.460889	2.206978	-2.370373
0.430	3.886511	-7.419453	569.949942	-13.466536	-12.571608	0.443677	2.205739	-2.362758
0.440	3.855677	-7.352638	569.971782	-13.422611	-12.564701	0.429993	2.204443	-2.354961
0.450	3.802387	-7.314836	570.409253	-13.387030	-12.569183	0.419357	2.203538	-2.346917
0.460	3.726216	-7.309980	571.207713	-13.358223	-12.586293	0.410575	2.203453	-2.338593
0.470	3.631557	-7.334276	572.284121	-13.334244	-12.616355	0.402191	2.204561	-2.330004
0.480	3.526290	-7.376255	573.541310	-13.312477	-12.658560	0.393080	2.207088	-2.321102
0.490	3.420295	-7.418637	574.883813	-13.288849	-12.711031	0.382915	2.211061	-2.311571
0.500	3.324616	-7.441704	576.230553	-13.257215	-12.771520	0.372281	2.216391	-2.300679
0.510	3.251431	-7.427280	577.519510	-13.209726	-12.838592	0.362427	2.223058	-2.287321
0.520	3.213956	-7.362395	578.703382	-13.138443	-12.912660	0.354816	2.231309	-2.270324
0.530	3.225126	-7.242069	579.740322	-13.037580	-12.996161	0.350749	2.241721	-2.248866
0.540	3.294545	-7.070980	580.585871	-12.905295	-13.092561	0.351118	2.255060	-2.222806
0.550	3.424491	-6.863581	581.190362	-12.744224	-13.204557	0.356234	2.271985	-2.192780
0.560	3.606860	-6.642009	581.502697	-12.560670	-13.332458	0.365622	2.292759	-2.160036
0.570	3.823166	-6.431446	581.479309	-12.362974	-13.473705	0.377868	2.317143	-2.126125
0.580	4.048730	-6.253648	581.096358	-12.159819	-13.623824	0.390753	2.344503	-2.092565
0.590	4.260211	-6.120679	580.362221	-11.958972	-13.778270	0.401815	2.374081	-2.060605
0.600	4.443601	-6.031445	579.325450	-11.766549	-13.934110	0.409289	2.405230	-2.031078
0.610	4.598973	-5.972867	578.072731	-11.586642	-14.090618	0.413022	2.437516	-2.004357
0.620	4.739438	-5.925439	576.714355	-11.421175	-14.248485	0.414821	2.470631	-1.980387
0.630	4.884628	-5.870707	575.360792	-11.270000	-14.408134	0.417885	2.504191	-1.958771
0.640	5.051802	-5.797299	574.099146	-11.131211	-14.568053	0.425499	2.537550	-1.938901
0.650	5.248510	-5.703191	572.978670	-11.001614	-14.723938	0.439639	2.569718	-1.920074
0.660	5.469429	-5.594041	572.010117	-10.877360	-14.868970	0.460173	2.599424	-1.901603
0.670	5.697690	-5.479115	571.177678	-10.754846	-14.995035	0.484948	2.625284	-1.882925
0.680	5.909518	-5.367003	570.457664	-10.631842	-15.094447	0.510610	2.646024	-1.863739
0.690	6.080524	-5.262937	569.836375	-10.508515	-15.161644	0.533724	2.660701	-1.844128
0.700	6.192065	-5.168485	569.320659	-10.387950	-15.194325	0.551800	2.668852	-1.824622
0.710	6.236025	-5.083224	568.937974	-10.275788	-15.193648	0.563931	2.670528	-1.806135
0.720	6.216460	-5.007174	568.727304	-10.178836	-15.163437	0.570915	2.666205	-1.789757
0.730	6.147308	-4.942625	568.725926	-10.102917	-15.108709	0.574864	2.656589	-1.776412
0.740	6.046797	-4.894386	568.957607	-10.050707	-15.034097	0.578406	2.642393	-1.766512
0.750	5.930710	-4.868257	569.425353	-10.020555	-14.942672	0.583762	2.624167	-1.759766
0.760	5.807322	-4.868406	570.108887	-10.006880	-14.835456	0.592038	2.602215	-1.755258
0.770	5.675951	-4.894806	570.965886	-10.001987	-14.711718	0.603002	2.576637	-1.751766
0.780	5.529299	-4.941820	571.936641	-9.998520	-14.569912	0.615333	2.547470	-1.748187
0.790	5.358174	-4.998637	572.952768	-9.991598	-14.409002	0.627137	2.514867	-1.743878
0.800	5.156687	-5.051800	573.949817	-9.980035	-14.229834	0.636465	2.479282	-1.738834
0.810	4.926295	-5.089357	574.880638	-9.966428	-14.036234	0.641741	2.441591	-1.733652
0.820	4.677485	-5.105245	575.723694	-9.956087	-13.835357	0.642099	2.403125	-1.729317
0.830	4.428305	-5.101894	576.481381	-9.955079	-13.636820	0.637585	2.365527	-1.726869
0.840	4.199734	-5.089594	577.168258	-9.968003	-13.450544	0.629107	2.330437	-1.727053
0.850	4.009043	-5.082733	577.794475	-9.996381	-13.284046	0.618085	2.299095	-1.730093
0.860	3.863732	-5.094642	578.352231	-10.038288	-13.140470	0.605929	2.272053	-1.735670
0.870	3.759117	-5.133259	578.811825	-10.089214	-13.018362	0.593627	2.249153	-1.743091
0.880	3.681241	-5.199121	579.129391	-10.143578	-12.913199	0.581593	2.229761	-1.751522
0.890	3.613741	-5.285806	579.262402	-10.196157	-12.819705	0.569833	2.213108	-1.760197
0.900	3.544921	-5.381989	579.185136	-10.242941	-12.733718	0.558317	2.198558	-1.768509
0.910	3.471488	-5.474006	578.897620	-10.281352	-12.652985	0.547348	2.185703	-1.776023
0.920	3.397921	-5.548422	578.426756	-10.310114	-12.577146	0.537680	2.174371	-1.782441
0.930	3.333058	-5.594752	577.822064	-10.329146	-12.507578	0.530283	2.164607	-1.787600
0.940	3.286493	-5.608502	577.148155	-10.339634	-12.447451	0.525919	2.156717	-1.791504
0.950	3.266524	-5.593774	576.474716	-10.344144	-12.401733	0.524772	2.151306	-1.794379
0.960	3.279686	-5.563860	575.865708	-10.346472	-12.376576	0.526362	2.149212	-1.796681
0.970	3.330808	-5.538616	575.370764	-10.351040	-12.377754	0.529768	2.151266	-1.799021
0.980	3.422542	-5.538922	575.020532	-10.361919	-12.408528	0.534070	2.157928	-1.802008
0.990	3.554178	-5.580027	574.824868	-10.381772	-12.467756	0.538771	2.168966	-1.806076
1.000	3.720282	-5.666262	574.771923	-10.411127	-12.549252	0.543959	2.183345	-1.811349
1.010	3.910114	-5.789062	574.828427	-10.448284	-12.642909	0.550101	2.199423	-1.817635
1.020	4.108813	-5.928998	574.944066	-10.489945	-12.737396	0.557640	2.215415	-1.824516
1.030	4.300649	-6.061261	575.061981	-10.532282	-12.823323	0.566628	2.229903	-1.831504
1.040	4.473252	-6.163078	575.132468	-10.571954	-12.895467	0.576587	2.242173	-1.838177
1.050	4.620734	-6.220865	575.122638	-10.606711	-12.953000	0.586617	2.252215	-1.844252
1.060	4.743995	-6.234628	575.017012	-10.635476	-12.997761	0.595635	2.260413	-1.849593
1.070	4.848053	-6.217615	574.811607	-10.658041	-13.031671	0.602611	2.267120	-1.854180
1.080	4.937927	-6.190892	574.509220	-10.674544	-13.054820	0.606682	2.272343	-1.858028
1.090	5.015540	-6.174825	574.120903	-10.684912	-13.065168	0.607168	2.275682	-1.861091
1.100	5.079423	-6.181175	573.671376	-10.688561	-13.059749	0.603612	2.276521	-1.863185
1.110	5.126988	-6.209300	573.201798	-10.684623	-13.036410	0.595977	2.274314	-1.864025
1.120	5.157416	-6.247790	572.765363	-10.672650	-12.995038	0.584926	2.268824	-1.863355
1.130	5.173176	-6.280185	572.416429	-10.653278	-12.937701	0.571951	2.260190	-1.861106
1.140	5.179559	-6.291915	572.197450	-10.628346	-12.867774	0.559147	2.248835	-1.857461
1.150	5.182742	-6.275663	572.128611	-10.600307	-12.788571	0.548605	2.235262	-1.852784
1.160	5.187329	-6.233543	572.203843	-10.571353	-12.702045	0.541695	2.219846	-1.847480
1.170	5.194087	-6.175894	572.394316	-10.542746	-12.607976	0.538568	2.202673	-1.841868
1.180	5.198466	-6.117578	572.657452	-10.514668	-12.503870	0.538152	2.183482	-1.836118
1.190	5.190613	-6.073181	572.947611	-10.486550	-12.385611	0.538596	2.161735	-1.830281
1.200	5.157630	-6.052543	573.224592	-10.457626	-12.248650	0.537887	2.136798	-1.824351
1.210	5.087952	-6.057760	573.457683	-10.427396	-12.089312	0.534327	2.108144	-1.818338
1.220	4.976252	-6.082584	573.625785	-10.395764	-11.905812	0.526787	2.075536	-1.812290
1.230	4.826424	-6.114599	573.716856	-10.362736	-11.698783	0.514825	2.039121	-1.806246
1.240	4.650826	-6.139691	573.729634	-10.327856	-11.471281	0.498753	1.999423	-1.800126
1.250	4.465809	-6.147158	573.677177	-10.289708	-11.228228	0.479596	1.957238	-1.793641
1.260	4.285572	-6.133265	573.588708	-10.245895	-10.975307	0.458906	1.913445	-1.786279
1.270	4.117307	-6.101596	573.506891	-10.193658	-10.717571	0.438484	1.868778	-1.777426
1.280	3.959889	-6.060094	573.480934	-10.130929	-10.458357	0.420121	1.823663	-1.766568
1.290	3.806359	-6.016357	573.558421	-10.057313	-10.199041	0.405343	1.778204	-1.753494
1.300	3.648461	-5.973623	573.778897	-9.974525	-9.939854	0.395098	1.732349	-1.738392
1.310	3.480712	-5.929434	574.170285	-9.886087	-9.681416	0.389410	1.686158	-1.721804
1.320	3.302390	-5.877540	574.746663	-9.796526	-9.426361	0.387217	1.640090	-1.704495
1.330	3.117817	-5.812103	575.504963	-9.710525	-9.180352	0.386587	1.595182	-1.687305
1.340	2.936329	-5.732319	576.419853	-9.632285	-8.951907	0.385351	1.553018	-1.671054
1.350	2.772312	-5.645256	577.439037	-9.565037	-8.750817	0.381943	1.515453	-1.656458
1.360	2.643800	-5.565227	578.482622	-9.510594	-8.585443	0.376056	1.484131	-1.644059
1.370	2.567986	-5.509446	579.449054	-9.468950	-8.459789	0.368799	1.459971	-1.634130
1.380	2.554231	-5.491516	580.227712	-9.438121	-8.371483	0.362243	1.442793	-1.626624
1.390	2.597879	-5.515517	580.716179	-9.414337	-8.311603	0.358550	1.431268	-1.621160
1.400	2.678787	-5.573154	580.838590	-9.392582	-8.266643	0.359090	1.423225	-1.617073
1.410	2.766233	-5.645151	580.560173	-9.367319	-8.222081	0.363909	1.416232	-1.613497
1.420	2.828464	-5.706435	579.893402	-9.333195	-8.166271	0.371740	1.408237	-1.609467
1.430	2.842780	-5.733271	578.894095	-9.285617	-8.093138	0.380446	1.398034	-1.604027
1.440	2.802169	-5.709903	577.649999	-9.221240	-8.002725	0.387688	1.385393	-1.596337
1.450	2.716404	-5.632553	576.266957	-9.138525	-7.899696	0.391582	1.370840	-1.585814
1.460	2.607947	-5.509836	574.856931	-9.038521	-7.790840	0.391145	1.355266	-1.572308
1.470	2.504567	-5.359992	573.528636	-8.925670	-7.682810	0.386405	1.339569	-1.556273
1.480	2.430943	-5.206260	572.378710	-8.808076	-7.580763	0.378242	1.324431	-1.538855
1.490	2.401359	-5.071825	571.481722	-8.696673	-7.487817	0.368081	1.310246	-1.521776
1.500	2.415521	-4.975320	570.880947	-8.603191	-7.404914	0.357598	1.297103	-1.507003
1.510	2.458935	-4.927531	570.585125	-8.537497	-7.330884	0.348438	1.284801	-1.496271
1.520	2.507938	-4.929707	570.575679	-8.505080	-7.262919	0.341924	1.272911	-1.490614
1.530	2.537780	-4.973729	570.822619	-8.505444	-7.197677	0.338779	1.260931	-1.490033
1.540	2.531023	-5.044225	571.300064	-8.531973	-7.132741	0.338919	1.248511	-1.493431
1.550	2.483313	-5.122393	571.990629	-8.573397	-7.067670	0.341420	1.235627	-1.498870
1.560	2.404482	-5.190545	572.874879	-8.616448	-7.003948	0.344689	1.222597	-1.504072
1.570	2.314691	-5.235797	573.912850	-8.648860	-6.943815	0.346813	1.209908	-1.506999
1.580	2.237270	-5.251556	575.031243	-8.661884	-6.888760	0.346057	1.197980	-1.506333
1.590	2.191049	-5.236797	576.127465	-8.651875	-6.838735	0.341342	1.187018	-1.501729
1.600	2.184904	-5.194406	577.091860	-8.620743	-6.792588	0.332600	1.177038	-1.493825
1.610	2.216240	-5.130006	577.838516	-8.575248	-6.749413	0.320859	1.168045	-1.484022
1.620	2.273594	-5.051635	578.329708	-8.525176	-6.709940	0.308059	1.160227	-1.474103
1.630	2.342014	-4.969578	578.582300	-8.480759	-6.677218	0.296643	1.154065	-1.465783
1.640	2.408977	-4.895481	578.654008	-8.450051	-6.656335	0.288985	1.150313	-1.460294
1.650	2.468784	-4.840471	578.616970	-8.437146	-6.653396	0.286802	1.149879	-1.458157
1.660	2.524275	-4.812703	578.530321	-8.441720	-6.674107	0.290705	1.153631	-1.459166
1.670	2.585684	-4.815093	578.421343	-8.459804	-6.722229	0.300092	1.162168	-1.462568
1.680	2.667222	-4.844100	578.279549	-8.485262	-6.798287	0.313401	1.175606	-1.467329
1.690	2.782444	-4.890205	578.063616	-8.511448	-6.898958	0.328588	1.193460	-1.472407
1.700	2.939781	-4.940241	577.718360	-8.532664	-7.017467	0.343663	1.214686	-1.476959
1.710	3.139618	-4.980998	577.196820	-8.545189	-7.144995	0.357128	1.237878	-1.480464
1.720	3.373944	-5.002815	576.480748	-8.547867	-7.272713	0.368269	1.261571	-1.482767
1.730	3.628786	-5.001774	575.592695	-8.542345	-7.393750	0.377224	1.284545	-1.484096
1.740	3.888502	-4.979846	574.595241	-8.533009	-7.504309	0.384801	1.306017	-1.485047
1.750	4.140134	-4.943527	573.576966	-8.526381	-7.603501	0.392131	1.325629	-1.486528
1.760	4.375854	-4.902105	572.629304	-8.529735	-7.691964	0.400302	1.343271	-1.489574
1.770	4.592261	-4.866227	571.821854	-8.549120	-7.769847	0.410104	1.358788	-1.495067
1.780	4.786743	-4.846536	571.184604	-8.587603	-7.834964	0.421947	1.371704	-1.503472
1.790	4.952820	-4.851842	570.703486	-8.644586	-7.881990	0.435853	1.381101	-1.514725
1.800	5.077497	-4.886982	570.331587	-8.716436	-7.903239	0.451438	1.385727	-1.528310
1.810	5.143185	-4.951277	570.012879	-8.797839	-7.890844	0.467838	1.384327	-1.543446
1.820	5.134479	-5.038438	569.709785	-8.883088	-7.839406	0.483640	1.376035	-1.559230
1.830	5.046825	-5.138061	569.423054	-8.966846	-7.747934	0.496892	1.360664	-1.574725
1.840	4.892121	-5.238185	569.194966	-9.044404	-7.620247	0.505279	1.338776	-1.588982
1.850	4.697147	-5.328070	569.094495	-9.111717	-7.463713	0.506545	1.311507	-1.601090
1.860	4.494530	-5.400302	569.191799	-9.165477	-7.286904	0.499185	1.280219	-1.610262
1.870	4.310434	-5.451670	569.534186	-9.203460	-7.097114	0.483157	1.246126	-1.615963
1.880	4.155336	-5.482789	570.133823	-9.225241	-6.898760	0.460256	1.210025	-1.618083
1.890	4.022551	-5.497073	570.970494	-9.233085	-6.693332	0.433839	1.172273	-1.617086
1.900	3.894958	-5.499759	572.004887	-9.232481	-6.480854	0.407921	1.133007	-1.614056
1.910	3.756131	-5.497331	573.192898	-9.231624	-6.262076	0.386001	1.092490	-1.610561
1.920	3.600243	-5.497073	574.491777	-9.239622	-6.040233	0.370106	1.051405	-1.608312
1.930	3.436045	-5.506179	575.854894	-9.263919	-5.821448	0.360434	1.010923	-1.608725
1.940	3.283441	-5.530165	577.220311	-9.307997	-5.613555	0.355639	0.972515	-1.612555
1.950	3.164641	-5.571081	578.503397	-9.370368	-5.423905	0.353543	0.937575	-1.619760
1.960	3.094150	-5.626489	579.601718	-9.445292	-5.257194	0.351934	0.907036	-1.629618
1.970	3.072116	-5.689827	580.413348	-9.524814	-5.114236	0.349175	0.881137	-1.641040
1.980	3.084044	-5.752001	580.862271	-9.601224	-4.992190	0.344550	0.859445	-1.652926
1.990	3.107221	-5.803520	580.920636	-9.668946	-4.886090	0.338343	0.841094	-1.664418
2.000	3.121195	-5.836561	580.618430	-9.725286	-4.791035	0.331699	0.825161	-1.674987
2.010	3.117669	-5.846634	580.036098	-9.770169	-4.704122	0.326214	0.811005	-1.684407
2.020	3.105172	-5.833712	579.282392	-9.805517	-4.625392	0.323349	0.798469	-1.692701
2.030	3.105992	-5.802684	578.464842	-9.834777	-4.557474	0.323879	0.787857	-1.700151
2.040	3.146207	-5.762986	577.662108	-9.862597	-4.504053	0.327623	0.779704	-1.707330
2.050	3.242795	-5.727164	576.907014	-9.894172	-4.467660	0.333534	0.774416	-1.715038
2.060	3.393466	-5.708213	576.186986	-9.934016	-4.447616	0.340016	0.771905	-1.724096
2.070	3.574091	-5.715949	575.463248	-9.984468	-4.439143	0.345345	0.771403	-1.735031
2.080	3.745524	-5.753517	574.701996	-10.044756	-4.434262	0.348081	0.771576	-1.747820
2.090	3.867338	-5.815621	573.903756	-10.111223	-4.424207	0.347412	0.770897	-1.761832
2.100	3.912511	-5.889737	573.116142	-10.178664	-4.402310	0.343307	0.768136	-1.776021
2.110	3.876552	-5.960280	572.422342	-10.242058	-4.365990	0.336433	0.762722	-1.789248
2.120	3.777386	-6.014182	571.910228	-10.297872	-4.316988	0.327890	0.754837	-1.800610
2.130	3.646907	-6.045406	571.637730	-10.344477	-4.259832	0.318880	0.745198	-1.809621
2.140	3.518637	-6.056266	571.612114	-10.381726	-4.199360	0.310408	0.734652	-1.816219
2.150	3.416691	-6.054864	571.792672	-10.410195	-4.138521	0.303074	0.723780	-1.820624
2.160	3.349730	-6.049846	572.113313	-10.430610	-4.077475	0.297025	0.712704	-1.823172
2.170	3.311199	-6.045144	572.511357	-10.443673	-4.014327	0.292055	0.701178	-1.824186
2.180	3.285070	-6.037474	572.947277	-10.450135	-3.946895	0.287816	0.688876	-1.823926
2.190	3.254672	-6.017849	573.407327	-10.450835	-3.874427	0.284069	0.675685	-1.822585
2.200	3.211045	-5.976089	573.891473	-10.446493	-3.798267	0.280871	0.661844	-1.820291
2.210	3.157219	-5.905771	574.396442	-10.437187	-3.721249	0.278616	0.647854	-1.817070
2.220	3.106435	-5.807350	574.904418	-10.421732	-3.646306	0.277884	0.634246	-1.812776
2.230	3.075271	-5.688574	575.382572	-10.397534	-3.575067	0.279156	0.621337	-1.807064
2.240	3.075110	-5.562632	575.791305	-10.361562	-3.507097	0.282563	0.609092	-1.799534
2.250	3.106057	-5.444886	576.094853	-10.312406	-3.440166	0.287736	0.597153	-1.790054
2.260	3.155945	-5.349083	576.268874	-10.252470	-3.371455	0.293803	0.585049	-1.779112
2.270	3.204539	-5.283887	576.303566	-10.188799	-3.299078	0.299485	0.572455	-1.767957
2.280	3.230964	-5.250694	576.203934	-10.131629	-3.222986	0.303315	0.559348	-1.758341
2.290	3.221310	-5.243491	575.988714	-10.091008	-3.144713	0.303961	0.545968	-1.751945
2.300	3.173569	-5.250916	575.687432	-10.073096	-3.066267	0.300597	0.532627	-1.749751
2.310	3.098101	-5.259750	575.334278	-10.077928	-2.988996	0.293241	0.519523	-1.751665
2.320	3.013446	-5.258489	574.959533	-10.099648	-2.913039	0.282924	0.506651	-1.756584
2.330	2.939049	-5.239651	574.582517	-10.128908	-2.837442	0.271567	0.493827	-1.762829
2.340	2.887876	-5.200339	574.211174	-10.156312	-2.760652	0.261527	0.480773	-1.768742
