Time[s]	Fx[N]	Fy[N]	Fz[N]	Mx[Nm]	My[Nm]	Mz[Nm]	COPx[cm]	COPy[cm]
0.010	3.059376	-1.722738	671.085935	7.998972	-10.616477	-0.007384	1.581985	1.191945
0.020	2.963529	-1.625721	671.743231	8.106037	-10.487003	-0.048712	1.561162	1.206717
0.030	2.899233	-1.508371	672.241857	8.205743	-10.367081	-0.089981	1.542165	1.220653
0.040	2.889332	-1.359994	672.458236	8.292302	-10.265301	-0.130413	1.526534	1.233133
0.050	2.944015	-1.183913	672.322910	8.362770	-10.189331	-0.168333	1.515541	1.243862
0.060	3.061654	-0.997791	671.830133	8.417502	-10.145934	-0.201628	1.510193	1.252921
0.070	3.233562	-0.828515	671.029442	8.459946	-10.140862	-0.228561	1.511240	1.260741
0.080	3.449291	-0.703074	670.002683	8.495840	-10.178205	-0.248497	1.519129	1.268031
0.090	3.699356	-0.638460	668.836176	8.531990	-10.259160	-0.262157	1.533882	1.275647
0.100	3.974577	-0.634353	667.598707	8.574981	-10.380662	-0.271314	1.554925	1.284451
0.110	4.263587	-0.671770	666.331385	8.630224	-10.534568	-0.278100	1.580980	1.295185
0.120	4.550746	-0.718672	665.048815	8.701534	-10.708088	-0.284183	1.610121	1.308405
0.130	4.816141	-0.740595	663.747393	8.791112	-10.885680	-0.290079	1.640033	1.324466
0.140	5.038293	-0.712191	662.417412	8.899751	-11.051936	-0.294839	1.668425	1.343526
0.150	5.199178	-0.625132	661.057634	9.027265	-11.194433	-0.296288	1.693413	1.365579
0.160	5.290130	-0.489220	659.690105	9.173217	-11.305621	-0.291871	1.713778	1.390534
0.170	5.316443	-0.326290	658.370053	9.337850	-11.383353	-0.279854	1.729020	1.418329
0.180	5.298433	-0.159636	657.184955	9.522753	-11.430168	-0.260385	1.739262	1.449022
0.190	5.267375	-0.003859	656.240181	9.730738	-11.451583	-0.235905	1.745029	1.482801
0.200	5.256349	0.140146	655.634275	9.964729	-11.453695	-0.210656	1.746964	1.519861
0.210	5.288485	0.282950	655.431930	10.225948	-11.440617	-0.189450	1.745508	1.560185
0.220	5.367080	0.438726	655.644574	10.512111	-11.412532	-0.176151	1.740658	1.603325
0.230	5.472145	0.616121	656.226014	10.816396	-11.365258	-0.172491	1.731912	1.648273
0.240	5.565523	0.812530	657.084401	11.127830	-11.291640	-0.177671	1.718446	1.693516
0.250	5.602999	1.014333	658.105230	11.433278	-11.184258	-0.188865	1.699464	1.737302
0.260	5.548888	1.202446	659.176853	11.720611	-11.038290	-0.202382	1.674557	1.778068
0.270	5.387623	1.360162	660.210902	11.981937	-10.853362	-0.214979	1.643923	1.814865
0.280	5.128173	1.479688	661.153468	12.215571	-10.633854	-0.224861	1.608379	1.847615
0.290	4.800012	1.565043	661.986938	12.425834	-10.387902	-0.232038	1.569200	1.877051
0.300	4.442701	1.630826	662.725480	12.620765	-10.125913	-0.238028	1.527920	1.904373
0.310	4.093559	1.697687	663.407772	12.808777	-9.859275	-0.245070	1.486156	1.930755
0.320	3.778417	1.785858	664.088855	12.995551	-9.599482	-0.255233	1.445512	1.956899
0.330	3.508798	1.908321	664.830437	13.182134	-9.357496	-0.269742	1.407501	1.982781
0.340	3.285680	2.065614	665.687511	13.364696	-9.143211	-0.288676	1.373499	2.007653
0.350	3.106746	2.244250	666.690733	13.535864	-8.965018	-0.311020	1.344704	2.030306
0.360	2.972582	2.419878	667.828445	13.687055	-8.829403	-0.334961	1.322106	2.049487
0.370	2.888310	2.564375	669.036067	13.810913	-8.740470	-0.358225	1.306427	2.064300
0.380	2.860223	2.654165	670.200276	13.903006	-8.699438	-0.378336	1.298036	2.074455
0.390	2.890337	2.676288	671.180420	13.962305	-8.704487	-0.392831	1.296892	2.080261
0.400	2.973330	2.629868	671.842530	13.990373	-8.751331	-0.399606	1.302587	2.082389
0.410	3.098751	2.523006	672.095070	13.989607	-8.834432	-0.397430	1.314462	2.081492
0.420	3.257480	2.367277	671.913339	13.961155	-8.948339	-0.386433	1.331770	2.077821
0.430	3.447892	2.172588	671.342903	13.903298	-9.088529	-0.368248	1.353783	2.070968
0.440	3.677144	1.944247	670.480636	13.811086	-9.251396	-0.345679	1.379816	2.059878
0.450	3.956221	1.682744	669.441003	13.677802	-9.433479	-0.322020	1.409158	2.043168
0.460	4.291423	1.385773	668.320821	13.498122	-9.630288	-0.300307	1.440968	2.019707
0.470	4.676867	1.051639	667.175398	13.271914	-9.835225	-0.282758	1.474159	1.989269
0.480	5.091632	0.683150	666.013403	13.006946	-10.039056	-0.270526	1.507335	1.952956
0.490	5.502616	0.291049	664.809737	12.718998	-10.230231	-0.263741	1.538821	1.913179
0.500	5.871769	-0.104476	663.528817	12.429056	-10.396185	-0.261762	1.566802	1.873175
0.510	6.165269	-0.475725	662.148284	12.158627	-10.525361	-0.263527	1.589578	1.836239
0.520	6.362035	-0.793088	660.675317	11.924937	-10.609312	-0.267859	1.605828	1.804962
0.530	6.458979	-1.032358	659.151885	11.737566	-10.644026	-0.273657	1.614806	1.780707
0.540	6.470637	-1.180563	657.649623	11.597358	-10.629893	-0.280015	1.616346	1.763455
0.550	6.422364	-1.237944	656.258434	11.497681	-10.570366	-0.286303	1.610702	1.752005
0.560	6.339134	-1.215647	655.073982	11.427373	-10.469949	-0.292217	1.598285	1.744440
0.570	6.234672	-1.130578	654.187175	11.374219	-10.332367	-0.297731	1.579421	1.738680
0.580	6.106132	-0.999695	653.675873	11.327637	-10.159566	-0.302909	1.554221	1.732913
0.590	5.937108	-0.836157	653.597874	11.279720	-9.951832	-0.307572	1.522623	1.725789
0.600	5.707530	-0.649115	653.984931	11.224731	-9.708877	-0.310884	1.484572	1.716359
0.610	5.405435	-0.447441	654.838545	11.158101	-9.431506	-0.311036	1.440280	1.703947
0.620	5.034788	-0.245541	656.128908	11.076178	-9.123279	-0.305333	1.390471	1.688110
0.630	4.615943	-0.067649	657.798175	10.977170	-8.791596	-0.290897	1.336519	1.668775
0.640	4.179461	0.052972	659.768043	10.862711	-8.447767	-0.265881	1.280415	1.646444
0.650	3.757355	0.081278	661.949564	10.739010	-8.106053	-0.230675	1.224573	1.622331
0.660	3.376362	-0.007750	664.251321	10.616659	-7.781949	-0.188437	1.171537	1.598289
0.670	3.055401	-0.217202	666.581973	10.508772	-7.490100	-0.144561	1.123658	1.576516
0.680	2.806123	-0.521347	668.845901	10.427851	-7.242155	-0.105229	1.082784	1.559081
0.690	2.633807	-0.867432	670.935241	10.382407	-7.044827	-0.075646	1.050001	1.547453
0.700	2.536695	-1.186681	672.724930	10.374640	-6.898568	-0.058634	1.025466	1.542182
0.710	2.504290	-1.411416	674.076870	10.400053	-6.797385	-0.054095	1.008399	1.542859
0.720	2.517126	-1.492682	674.855200	10.449129	-6.730136	-0.059447	0.997271	1.548351
0.730	2.550160	-1.412304	674.949471	10.510484	-6.683120	-0.070784	0.990166	1.557225
0.740	2.579492	-1.185319	674.298808	10.574449	-6.643229	-0.084233	0.985205	1.568214
0.750	2.589700	-0.852448	672.910169	10.635930	-6.600774	-0.097025	0.980929	1.580587
0.760	2.578373	-0.466120	670.867335	10.695637	-6.551274	-0.107976	0.976538	1.594300
0.770	2.555900	-0.075606	668.330643	10.759311	-6.495909	-0.117305	0.971960	1.609878
0.780	2.540822	0.283655	665.526900	10.835257	-6.440623	-0.125903	0.967748	1.628072
0.790	2.552792	0.593717	662.726133	10.930994	-6.394073	-0.134348	0.964814	1.649398
0.800	2.605445	0.851027	660.203412	11.050156	-6.364798	-0.142133	0.964066	1.673750
0.810	2.700814	1.059359	658.191907	11.190625	-6.358312	-0.147491	0.966027	1.700207
0.820	2.826276	1.222683	656.841424	11.344515	-6.374991	-0.147965	0.970553	1.727131
0.830	2.955081	1.341039	656.197521	11.499982	-6.409507	-0.141479	0.976765	1.752518
0.840	3.051468	1.410469	656.208602	11.644161	-6.452040	-0.127410	0.983230	1.774460
0.850	3.080152	1.426068	656.756416	11.766124	-6.490841	-0.107164	0.988318	1.791551
0.860	3.017653	1.386109	657.695815	11.858855	-6.515214	-0.083991	0.990612	1.803091
0.870	2.861174	1.295041	658.887876	11.919777	-6.517904	-0.062121	0.989228	1.809075
0.880	2.630958	1.163847	660.217142	11.950055	-6.496187	-0.045595	0.983947	1.810019
0.890	2.364406	1.007527	661.593804	11.953284	-6.451674	-0.037250	0.975171	1.806741
0.900	2.103987	0.840976	662.948674	11.934224	-6.389371	-0.038142	0.963781	1.800173
0.910	1.884160	0.675420	664.229514	11.897983	-6.316743	-0.047493	0.950988	1.791246
0.920	1.723436	0.517081	665.402401	11.849670	-6.243161	-0.063128	0.938253	1.780828
0.930	1.625089	0.368321	666.454841	11.794224	-6.179637	-0.082259	0.927240	1.769696
0.940	1.584979	0.230183	667.393661	11.736033	-6.138338	-0.102375	0.919748	1.758487
0.950	1.600533	0.104672	668.233186	11.678203	-6.131355	-0.121840	0.917547	1.747624
0.960	1.674538	-0.004507	668.975903	11.621795	-6.168565	-0.139968	0.922091	1.737252
0.970	1.811509	-0.093070	669.593738	11.565489	-6.255019	-0.156606	0.934151	1.727240
0.980	2.009765	-0.158482	670.020147	11.505913	-6.388792	-0.171519	0.953522	1.717249
0.990	2.255108	-0.202308	670.160301	11.438450	-6.560449	-0.183976	0.978937	1.706823
1.000	2.520691	-0.231566	669.919168	11.358156	-6.754776	-0.192818	1.008297	1.695452
1.010	2.773858	-0.258603	669.238187	11.260584	-6.954539	-0.197048	1.039172	1.682597
1.020	2.986899	-0.299375	668.125768	11.142581	-7.145101	-0.196620	1.069425	1.667737
1.030	3.146923	-0.369959	666.668574	11.003261	-7.318227	-0.192942	1.097731	1.650484
1.040	3.260825	-0.481444	665.018238	10.845129	-7.473604	-0.188715	1.123819	1.630802
1.050	3.353438	-0.634348	663.357480	10.674880	-7.617458	-0.187163	1.148319	1.609220
1.060	3.459092	-0.814908	661.856854	10.503179	-7.758833	-0.191022	1.172283	1.586926
1.070	3.608541	-0.995814	660.636487	10.342878	-7.905078	-0.201723	1.196585	1.565593
1.080	3.815029	-1.142464	659.745921	10.205838	-8.058423	-0.218965	1.221443	1.546935
1.090	4.064789	-1.223306	659.169236	10.099393	-8.214991	-0.240714	1.246264	1.532140
1.100	4.317166	-1.220541	658.853081	10.023955	-8.366590	-0.263579	1.269872	1.521425
1.110	4.516447	-1.136997	658.745591	9.972872	-8.504447	-0.283517	1.291006	1.513919
1.120	4.612074	-0.996675	658.829053	9.934614	-8.623336	-0.296708	1.308888	1.507920
1.130	4.579150	-0.839330	659.131604	9.896376	-8.724405	-0.300423	1.323621	1.501426
1.140	4.430176	-0.711417	659.712914	9.847726	-8.815604	-0.293635	1.336279	1.492729
1.150	4.212784	-0.655862	660.631491	9.783054	-8.909645	-0.277250	1.348656	1.480864
1.160	3.994723	-0.702439	661.909762	9.702152	-9.020404	-0.253904	1.362785	1.465782
1.170	3.842935	-0.860087	663.511811	9.608968	-9.159250	-0.227387	1.380420	1.448199
1.180	3.805331	-1.112793	665.338997	9.509230	-9.332516	-0.201841	1.402671	1.429231
1.190	3.901135	-1.420879	667.238971	9.407960	-9.540567	-0.180954	1.429858	1.409984
1.200	4.120783	-1.728838	669.020998	9.307865	-9.778122	-0.167352	1.461557	1.391267
1.210	4.432606	-1.978878	670.474843	9.209022	-10.035273	-0.162315	1.496741	1.373507
1.220	4.792625	-2.126757	671.395508	9.109643	-10.298927	-0.165748	1.533958	1.356822
1.230	5.154807	-2.154753	671.615736	9.007275	-10.554707	-0.176293	1.571540	1.341135
1.240	5.480355	-2.076889	671.041943	8.899854	-10.789285	-0.191515	1.607841	1.326274
1.250	5.745011	-1.934082	669.682461	8.786406	-10.992728	-0.208248	1.641484	1.312026
1.260	5.943026	-1.780665	667.655666	8.667468	-11.160163	-0.223143	1.671545	1.298194
1.270	6.086362	-1.667082	665.171504	8.545420	-11.292037	-0.233390	1.697613	1.284694
1.280	6.198481	-1.624872	662.489925	8.424663	-11.392708	-0.237418	1.719680	1.271667
1.290	6.303915	-1.658812	659.868731	8.311434	-11.467773	-0.235313	1.737887	1.259559
1.300	6.416819	-1.747999	657.517712	8.212972	-11.521107	-0.228717	1.752212	1.249088
1.310	6.532798	-1.854367	655.573744	8.136121	-11.552782	-0.220181	1.762240	1.241069
1.320	6.627615	-1.935007	654.102840	8.085858	-11.558713	-0.212231	1.767109	1.236175
1.330	6.663913	-1.954404	653.123227	8.064471	-11.532179	-0.206510	1.765697	1.234755
1.340	6.603891	-1.893592	652.634584	8.071799	-11.466595	-0.203343	1.756970	1.236802
1.350	6.423398	-1.754408	652.637640	8.106391	-11.358374	-0.201864	1.740380	1.242097
1.360	6.122185	-1.558043	653.135798	8.167006	-11.208779	-0.200628	1.716148	1.250430
1.370	5.726440	-1.338262	654.121255	8.253862	-11.024197	-0.198455	1.685345	1.261824
1.380	5.282540	-1.131024	655.555609	8.369175	-10.814852	-0.195171	1.649723	1.276654
1.390	4.844173	-0.963468	657.355959	8.516764	-10.592432	-0.191921	1.611369	1.295609
1.400	4.457453	-0.845554	659.393988	8.700685	-10.367295	-0.190882	1.572246	1.319497
1.410	4.149152	-0.766817	661.510403	8.923177	-10.146134	-0.194438	1.533783	1.348910
1.420	3.921721	-0.699086	663.541340	9.182515	-9.931002	-0.204164	1.496667	1.383865
1.430	3.756373	-0.604308	665.348494	9.471535	-9.720275	-0.220062	1.460930	1.423545
1.440	3.623068	-0.445394	666.843668	9.777416	-9.511425	-0.240354	1.426335	1.466223
1.450	3.494004	-0.197442	668.001199	10.082862	-9.304548	-0.261831	1.392894	1.509408
1.460	3.355732	0.143146	668.855343	10.368373	-9.105061	-0.280545	1.361290	1.550167
1.470	3.215171	0.553664	669.482382	10.615024	-8.924089	-0.292612	1.332983	1.585557
1.480	3.096955	0.985800	669.970858	10.807148	-8.775974	-0.295013	1.309904	1.613077
1.490	3.032856	1.372963	670.388242	10.934372	-8.673769	-0.286285	1.293843	1.631051
1.500	3.047401	1.643670	670.755712	10.992613	-8.624654	-0.266995	1.285811	1.638840
1.510	3.145874	1.738450	671.040655	10.983954	-8.627390	-0.239826	1.285673	1.636854
1.520	3.310200	1.626055	671.168683	10.915710	-8.672843	-0.209166	1.292200	1.626373
1.530	3.504457	1.314179	671.048469	10.799206	-8.747066	-0.180203	1.303492	1.609303
1.540	3.687028	0.850761	670.599777	10.648711	-8.835411	-0.157737	1.317539	1.587938
1.550	3.823686	0.314483	669.778418	10.480474	-8.926189	-0.145084	1.332708	1.564767
1.560	3.896771	-0.203247	668.595379	10.311431	-9.013008	-0.143424	1.348051	1.542253
1.570	3.908557	-0.619459	667.126891	10.157257	-9.095536	-0.151732	1.363389	1.522538
1.580	3.879369	-0.877625	665.509997	10.030012	-9.178744	-0.167218	1.379205	1.507117
1.590	3.841851	-0.957757	663.919843	9.936297	-9.270908	-0.186101	1.396390	1.496611
1.600	3.832591	-0.876714	662.531750	9.876874	-9.380858	-0.204552	1.415911	1.490777
1.610	3.882578	-0.679629	661.479163	9.848038	-9.515113	-0.219623	1.438460	1.488790
1.620	4.008719	-0.425652	660.822300	9.844041	-9.675500	-0.229937	1.464161	1.489665
1.630	4.209004	-0.172469	660.539228	9.859314	-9.857821	-0.235852	1.492390	1.492616
1.640	4.463106	0.036046	660.542289	9.889441	-10.052052	-0.238970	1.521788	1.497170
1.650	4.738263	0.176292	660.712090	9.930667	-10.244221	-0.241162	1.550482	1.503025
1.660	4.998175	0.245037	660.934402	9.978703	-10.419485	-0.243551	1.576478	1.509787
1.670	5.211424	0.254633	661.126026	10.028010	-10.565325	-0.245979	1.598080	1.516808
1.680	5.356569	0.225971	661.243418	10.072333	-10.673776	-0.247234	1.614198	1.523241
1.690	5.423120	0.181773	661.277420	10.106277	-10.742101	-0.245811	1.624447	1.528296
1.700	5.409780	0.141920	661.242914	10.126967	-10.772057	-0.240749	1.629062	1.531505
1.710	5.322252	0.121230	661.170860	10.134738	-10.768480	-0.232089	1.628699	1.532847
1.720	5.172120	0.129037	661.104589	10.132522	-10.737932	-0.220813	1.624241	1.532666
1.730	4.976653	0.169414	661.097607	10.124343	-10.687897	-0.208390	1.616690	1.531445
1.740	4.758147	0.241064	661.208995	10.113693	-10.626532	-0.196152	1.607137	1.529576
1.750	4.541483	0.336634	661.494184	10.102395	-10.562609	-0.184797	1.596780	1.527208
1.760	4.349804	0.442178	661.991882	10.090235	-10.505160	-0.174266	1.586902	1.524223
1.770	4.199633	0.538096	662.710895	10.075346	-10.462488	-0.164100	1.578741	1.520323
1.780	4.097380	0.602649	663.622097	10.055125	-10.440666	-0.154037	1.573285	1.515188
1.790	4.038774	0.617970	664.659717	10.027219	-10.442226	-0.144420	1.571063	1.508624
1.800	4.011648	0.576696	665.732612	9.990164	-10.465964	-0.136079	1.572097	1.500627
1.810	4.001246	0.486113	666.742038	9.943513	-10.508221	-0.129750	1.576055	1.491358
1.820	3.996228	0.367138	667.599871	9.887605	-10.565031	-0.125444	1.582539	1.481068
1.830	3.993219	0.247854	668.241313	9.823244	-10.633848	-0.122212	1.591319	1.470014
1.840	3.998109	0.154078	668.628270	9.751532	-10.713696	-0.118447	1.602340	1.458439
1.850	4.023468	0.100905	668.743097	9.673902	-10.803715	-0.112576	1.615525	1.446580
1.860	4.082926	0.088366	668.576452	9.592262	-10.901119	-0.103837	1.630497	1.434729
1.870	4.184721	0.102419	668.116356	9.509071	-10.999974	-0.092822	1.646416	1.423266
1.880	4.327050	0.120688	667.346122	9.427189	-11.091607	-0.081504	1.662047	1.412639
1.890	4.497197	0.121146	666.254875	9.349526	-11.166456	-0.072654	1.676004	1.403296
1.900	4.674685	0.091073	664.857138	9.278684	-11.216395	-0.068914	1.687038	1.395591
1.910	4.837018	0.033065	663.211752	9.216822	-11.236430	-0.071962	1.694245	1.389725
1.920	4.965568	-0.034639	661.429458	9.165677	-11.225102	-0.082135	1.697097	1.385738
1.930	5.049241	-0.084107	659.663422	9.126526	-11.183690	-0.098535	1.695363	1.383513
1.940	5.084452	-0.087645	658.084957	9.100024	-11.114809	-0.119386	1.688963	1.382804
1.950	5.071643	-0.027758	656.853413	9.086087	-11.021207	-0.142487	1.677879	1.383275
1.960	5.010475	0.096391	656.091142	9.084040	-10.905392	-0.165651	1.662176	1.384570
1.970	4.896965	0.267924	655.870989	9.092912	-10.770320	-0.187087	1.642140	1.386387
1.980	4.725054	0.456755	656.216769	9.111543	-10.620774	-0.205638	1.618486	1.388496
1.990	4.492437	0.628120	657.110470	9.138283	-10.464551	-0.220867	1.592510	1.390677
2.000	4.207466	0.752470	658.498066	9.170462	-10.312492	-0.232995	1.566063	1.392633
2.010	3.892508	0.813662	660.290767	9.204122	-10.176921	-0.242646	1.541279	1.393950
2.020	3.580712	0.812869	662.366126	9.234359	-10.068904	-0.250381	1.520142	1.394147
2.030	3.307058	0.766826	664.575988	9.256116	-9.995503	-0.256156	1.504042	1.392785
2.040	3.098155	0.700900	666.763172	9.264834	-9.958294	-0.259009	1.493528	1.389524
2.050	2.965989	0.639651	668.781242	9.256430	-9.953845	-0.257240	1.488356	1.384074
2.060	2.908114	0.598629	670.509294	9.226620	-9.975860	-0.249036	1.487803	1.376062
2.070	2.912860	0.580293	671.857853	9.170337	-10.017921	-0.233274	1.491077	1.364922
2.080	2.965774	0.574560	672.768038	9.082038	-10.075658	-0.210208	1.497642	1.349951
2.090	3.054036	0.562445	673.208975	8.957061	-10.147676	-0.181801	1.507359	1.330502
2.100	3.167905	0.520869	673.177064	8.793315	-10.235273	-0.151582	1.520443	1.306241
2.110	3.300314	0.427670	672.696937	8.592372	-10.341464	-0.124004	1.537314	1.277302
2.120	3.446459	0.266866	671.820573	8.359492	-10.469770	-0.103409	1.558418	1.244304
2.130	3.604296	0.033983	670.620883	8.102839	-10.622995	-0.092921	1.584054	1.208259
2.140	3.775215	-0.259910	669.179840	7.832482	-10.801981	-0.093620	1.614212	1.170460
2.150	3.963038	-0.587626	667.576027	7.559580	-11.004508	-0.104292	1.648428	1.132392
2.160	4.170264	-0.910124	665.878044	7.295654	-11.224739	-0.121832	1.685705	1.095644
2.170	4.393069	-1.185052	664.147219	7.051614	-11.453716	-0.142187	1.724575	1.061755
2.180	4.618797	-1.377001	662.447882	6.836326	-11.681102	-0.161523	1.763324	1.031979
2.190	4.828905	-1.465973	660.859348	6.654921	-11.897828	-0.177185	1.800357	1.007010
2.200	5.006698	-1.451414	659.482095	6.507494	-12.098775	-0.188083	1.834587	0.986758
2.210	5.145462	-1.351053	658.431891	6.388983	-12.284400	-0.194398	1.865705	0.970333
2.220	5.251886	-1.195647	657.819910	6.290616	-12.460491	-0.196861	1.894210	0.956282
2.230	5.342498	-1.021692	657.723402	6.202599	-12.636041	-0.196065	1.921179	0.943041
2.240	5.435114	-0.864077	658.157482	6.116972	-12.820028	-0.192225	1.947866	0.929408
2.250	5.540291	-0.750129	659.060091	6.029489	-13.018417	-0.185458	1.975300	0.914862
2.260	5.657567	-0.695771	660.297944	5.939915	-13.232470	-0.176297	2.004015	0.899581
2.270	5.778084	-0.704145	661.693464	5.850909	-13.458829	-0.166002	2.033998	0.884232
2.280	5.891201	-0.766751	663.064587	5.766282	-13.691094	-0.156401	2.064821	0.869641
2.290	5.990940	-0.866754	664.263876	5.689430	-13.922066	-0.149347	2.095864	0.856502
2.300	6.079168	-0.983508	665.203395	5.622396	-14.145739	-0.146106	2.126528	0.845215
2.310	6.164883	-1.097018	665.858160	5.565572	-14.358458	-0.146989	2.156384	0.835849
2.320	6.260836	-1.191302	666.250044	5.517841	-14.559147	-0.151378	2.185238	0.828194
2.330	6.379304	-1.256404	666.421090	5.476939	-14.748814	-0.158071	2.213137	0.821844
2.340	6.528532	-1.289338	666.408027	5.439849	-14.929665	-0.165759	2.240319	0.816294
2.350	6.710683	-1.294110	666.228177	5.403049	-15.104105	-0.173417	2.267107	0.810991
2.360	6.921546	-1.280531	665.881137	5.362598	-15.273870	-0.180437	2.293783	0.805339
2.370	7.151896	-1.261564	665.362843	5.314302	-15.439405	-0.186508	2.320449	0.798707
2.380	7.389991	-1.249780	664.682539	5.254309	-15.599491	-0.191412	2.346909	0.790499
