Time[s]	Fx[N]	Fy[N]	Fz[N]	Mx[Nm]	My[Nm]	Mz[Nm]	COPx[cm]	COPy[cm]
0.010	4.468500	0.167776	737.539435	-11.381602	14.833571	-0.175718	-2.011224	-1.543186
0.020	4.188280	0.185514	736.808145	-11.535055	14.975669	-0.173141	-2.032506	-1.565544
0.030	3.931445	0.194451	736.031783	-11.689732	15.119103	-0.170920	-2.054137	-1.588210
0.040	3.721817	0.188618	735.196727	-11.845910	15.262537	-0.169047	-2.075980	-1.611257
0.050	3.579394	0.168170	734.327288	-12.002605	15.401709	-0.167193	-2.097390	-1.634503
0.060	3.516706	0.138742	733.476386	-12.157782	15.530451	-0.164867	-2.117376	-1.657556
0.070	3.534672	0.108175	732.702826	-12.309248	15.643144	-0.161763	-2.134992	-1.679978
0.080	3.619770	0.082096	732.048560	-12.455816	15.737335	-0.158167	-2.149767	-1.701501
0.090	3.744397	0.060222	731.526866	-12.598361	15.815410	-0.155265	-2.161972	-1.722201
0.100	3.871160	0.035065	731.124103	-12.740530	15.884728	-0.155206	-2.172645	-1.742595
0.110	3.960148	-0.006128	730.810553	-12.888930	15.956324	-0.160713	-2.183373	-1.763649
0.120	3.977454	-0.076764	730.553884	-13.052555	16.042644	-0.174222	-2.195956	-1.786666
0.130	3.903250	-0.185679	730.331137	-13.241213	16.154899	-0.196775	-2.211996	-1.813042
0.140	3.737762	-0.333864	730.137920	-13.463116	16.300530	-0.227204	-2.232528	-1.843914
0.150	3.503359	-0.514734	729.994310	-13.722348	16.481232	-0.262104	-2.257721	-1.879788
0.160	3.241455	-0.717476	729.945691	-14.017138	16.692055	-0.296767	-2.286753	-1.920299
0.170	3.004096	-0.931002	730.055446	-14.339487	16.922044	-0.326695	-2.317912	-1.964164
0.180	2.841542	-1.145708	730.387694	-14.676104	17.156556	-0.349000	-2.348966	-2.009358
0.190	2.788363	-1.352184	730.982689	-15.010333	17.380736	-0.363045	-2.377722	-2.053446
0.200	2.851866	-1.538613	731.832519	-15.324747	17.583119	-0.370091	-2.402615	-2.094024
0.210	3.007140	-1.689923	732.867131	-15.604140	17.758290	-0.372257	-2.423125	-2.129191
0.220	3.201838	-1.790614	733.958699	-15.838506	17.907837	-0.371407	-2.439897	-2.157956
0.230	3.370555	-1.830624	734.946034	-16.025418	18.039441	-0.368487	-2.454526	-2.180489
0.240	3.454593	-1.811387	735.672065	-16.171157	18.164492	-0.363506	-2.469102	-2.198147
0.250	3.419776	-1.748778	736.021140	-16.289993	18.295142	-0.355942	-2.485682	-2.213251
0.260	3.265102	-1.670950	735.943310	-16.401335	18.441755	-0.345187	-2.505866	-2.228614
0.270	3.018928	-1.611288	735.459634	-16.525131	18.611394	-0.330744	-2.530580	-2.246912
0.280	2.725395	-1.598958	734.650748	-16.676782	18.807462	-0.312129	-2.560055	-2.270029
0.290	2.428130	-1.650791	733.635756	-16.863226	19.030067	-0.288701	-2.593939	-2.298583
0.300	2.158386	-1.767747	732.548954	-17.081482	19.276540	-0.259724	-2.631434	-2.331787
0.310	1.931289	-1.936961	731.520227	-17.319953	19.541699	-0.224776	-2.671382	-2.367666
0.320	1.749188	-2.137745	730.662491	-17.561852	19.817878	-0.184395	-2.712316	-2.403552
0.330	1.608070	-2.348296	730.065687	-17.789491	20.095135	-0.140569	-2.752511	-2.436697
0.340	1.502545	-2.550310	729.792883	-17.988190	20.362113	-0.096725	-2.790122	-2.464835
0.350	1.426760	-2.730419	729.874004	-18.148917	20.607702	-0.057036	-2.823460	-2.486582
0.360	1.371395	-2.879231	730.297746	-18.269287	20.823145	-0.025234	-2.851323	-2.501622
0.370	1.319613	-2.989779	731.007617	-18.353003	21.003800	-0.003406	-2.873267	-2.510645
0.380	1.246077	-3.056995	731.908696	-18.408119	21.149764	0.008640	-2.889672	-2.515084
0.390	1.122175	-3.078816	732.886868	-18.444752	21.264988	0.013105	-2.901538	-2.516726
0.400	0.927134	-3.058258	733.835135	-18.472842	21.355115	0.013179	-2.910070	-2.517301
0.410	0.660397	-3.005049	734.676621	-18.500479	21.424886	0.011772	-2.916234	-2.518180
0.420	0.348502	-2.935429	735.374458	-18.533036	21.476184	0.010540	-2.920442	-2.520217
0.430	0.041537	-2.869436	735.925053	-18.573010	21.507484	0.009550	-2.922510	-2.523764
0.440	-0.200522	-2.826133	736.339595	-18.620240	21.514870	0.007539	-2.921868	-2.528757
0.450	-0.326176	-2.818191	736.623816	-18.672202	21.494049	0.002584	-2.917914	-2.534835
0.460	-0.307880	-2.847716	736.765094	-18.724269	21.442422	-0.007093	-2.910347	-2.541416
0.470	-0.148851	-2.904849	736.730838	-18.770156	21.360436	-0.022400	-2.899354	-2.547763
0.480	0.120385	-2.969797	736.477074	-18.802850	21.251845	-0.042969	-2.885608	-2.553080
0.490	0.453029	-3.017831	735.963883	-18.816165	21.123031	-0.067199	-2.870118	-2.556670
0.500	0.799595	-3.025827	735.173775	-18.806589	20.981763	-0.092755	-2.853987	-2.558115
0.510	1.119188	-2.978382	734.128015	-18.774689	20.835870	-0.117319	-2.838179	-2.557414
0.520	1.385612	-2.871931	732.894441	-18.725437	20.692202	-0.139284	-2.823354	-2.554998
0.530	1.587957	-2.716149	731.581216	-18.667224	20.556054	-0.158114	-2.809812	-2.551627
0.540	1.727303	-2.532663	730.316740	-18.609911	20.430940	-0.174220	-2.797545	-2.548197
0.550	1.812038	-2.351362	729.223468	-18.562650	20.318592	-0.188470	-2.786333	-2.545537
0.560	1.854054	-2.204810	728.396646	-18.532294	20.219138	-0.201601	-2.775842	-2.544258
0.570	1.866850	-2.121589	727.895181	-18.522830	20.131500	-0.213814	-2.765714	-2.544711
0.580	1.865017	-2.119852	727.744037	-18.535734	20.053950	-0.224717	-2.755632	-2.547013
0.590	1.863557	-2.202637	727.941626	-18.570745	19.984634	-0.233605	-2.745362	-2.551131
0.600	1.875744	-2.356515	728.465737	-18.626575	19.921899	-0.239877	-2.734775	-2.556960
0.610	1.909552	-2.554400	729.276034	-18.701335	19.864326	-0.243400	-2.723842	-2.564370
0.620	1.964303	-2.762037	730.315171	-18.792822	19.810462	-0.244667	-2.712591	-2.573248
0.630	2.029857	-2.946490	731.510998	-18.898913	19.758259	-0.244730	-2.701020	-2.583545
0.640	2.089928	-3.084358	732.780970	-19.018119	19.704435	-0.244907	-2.688994	-2.595335
0.650	2.129082	-3.167395	734.038711	-19.150016	19.644062	-0.246312	-2.676162	-2.608856
0.660	2.140808	-3.203568	735.202149	-19.295063	19.570652	-0.249360	-2.661942	-2.624457
0.670	2.132793	-3.212925	736.202250	-19.453584	19.476802	-0.253461	-2.645578	-2.642424
0.680	2.126319	-3.219710	736.990788	-19.624191	19.355221	-0.257065	-2.626250	-2.662746
0.690	2.149554	-3.243873	737.544562	-19.802452	19.199901	-0.258051	-2.603219	-2.684916
0.700	2.227721	-3.295254	737.863000	-19.980747	19.007239	-0.254301	-2.575985	-2.707921
0.710	2.374551	-3.372257	737.957881	-20.149809	18.776910	-0.244290	-2.544442	-2.730482
0.720	2.588309	-3.464816	737.838375	-20.301521	18.512360	-0.227591	-2.508999	-2.751486
0.730	2.853181	-3.559855	737.498770	-20.431679	18.220768	-0.205209	-2.470617	-2.770402
0.740	3.144592	-3.646855	736.916748	-20.541264	17.912441	-0.179595	-2.430728	-2.787461
0.750	3.435940	-3.721262	736.065683	-20.635510	17.599628	-0.154238	-2.391040	-2.803488
0.760	3.704486	-3.784535	734.936797	-20.721299	17.294931	-0.132776	-2.353254	-2.819467
0.770	3.935116	-3.841320	733.560292	-20.804157	17.009715	-0.117868	-2.318789	-2.836053
0.780	4.121722	-3.895752	732.013756	-20.886277	16.753001	-0.110236	-2.288618	-2.853263
0.790	4.266475	-3.949090	730.412825	-20.966344	16.531134	-0.108379	-2.263259	-2.870479
0.800	4.377362	-3.999730	728.888901	-21.041068	16.348077	-0.109161	-2.242876	-2.886732
0.810	4.464455	-4.045036	727.564802	-21.107529	16.205820	-0.108976	-2.227406	-2.901120
0.820	4.535881	-4.083365	726.537942	-21.165160	16.104472	-0.104925	-2.216604	-2.913153
0.830	4.595066	-4.114952	725.874079	-21.216476	16.042037	-0.095505	-2.210030	-2.922887
0.840	4.640477	-4.141365	725.608097	-21.266314	16.014301	-0.080685	-2.207018	-2.930826
0.850	4.667615	-4.164266	725.746122	-21.319975	16.015201	-0.061605	-2.206722	-2.937663
0.860	4.671483	-4.184467	726.265741	-21.381009	16.037732	-0.040128	-2.208246	-2.943965
0.870	4.647678	-4.201854	727.115627	-21.449480	16.075002	-0.018410	-2.210790	-2.949941
0.880	4.591942	-4.216183	728.218499	-21.521239	16.121108	0.001492	-2.213774	-2.955327
0.890	4.499958	-4.228148	729.480292	-21.588371	16.171623	0.017967	-2.216869	-2.959418
0.900	4.369418	-4.239722	730.804366	-21.640680	16.223656	0.030093	-2.219973	-2.961214
0.910	4.204316	-4.252905	732.105673	-21.667899	16.275469	0.037746	-2.223104	-2.959668
0.920	4.018902	-4.267110	733.318979	-21.662175	16.325753	0.041576	-2.226283	-2.953991
0.930	3.837912	-4.276789	734.398297	-21.620135	16.372923	0.042887	-2.229434	-2.943925
0.940	3.691413	-4.271366	735.309101	-21.543826	16.414915	0.043465	-2.232383	-2.929901
0.950	3.605539	-4.238384	736.018002	-21.440007	16.449788	0.045295	-2.234971	-2.912973
0.960	3.592868	-4.168856	736.485459	-21.317885	16.476905	0.050148	-2.237234	-2.894543
0.970	3.646628	-4.062326	736.665748	-21.186048	16.497994	0.059096	-2.239549	-2.875938
0.980	3.741412	-3.929117	736.515419	-21.049917	16.517385	0.072112	-2.242639	-2.858042
0.990	3.840325	-3.788612	736.008245	-20.910981	16.541165	0.087925	-2.247416	-2.841134
1.000	3.905943	-3.664366	735.152523	-20.768259	16.575571	0.104286	-2.254712	-2.825027
1.010	3.911247	-3.578019	734.005550	-20.621142	16.625234	0.118574	-2.265001	-2.809399
1.020	3.846988	-3.544095	732.679252	-20.471926	16.691926	0.128519	-2.278204	-2.794118
1.030	3.723285	-3.566900	731.331569	-20.326444	16.774251	0.132784	-2.293659	-2.779375
1.040	3.565138	-3.639835	730.141769	-20.192377	16.868360	0.131209	-2.310286	-2.765542
1.050	3.403464	-3.746933	729.274221	-20.076228	16.969385	0.124673	-2.326887	-2.752905
1.060	3.264877	-3.866182	728.841263	-19.980616	17.072992	0.114660	-2.342484	-2.741422
1.070	3.163859	-3.974123	728.877861	-19.903157	17.176421	0.102736	-2.356557	-2.730657
1.080	3.099681	-4.050941	729.336989	-19.837236	17.278679	0.090155	-2.369094	-2.719900
1.090	3.058242	-4.084944	730.106497	-19.774169	17.379963	0.077668	-2.380470	-2.708395
1.100	3.017288	-4.075166	731.040196	-19.705793	17.480679	0.065508	-2.391206	-2.695583
1.110	2.953012	-4.031159	731.991626	-19.626485	17.580555	0.053431	-2.401743	-2.681245
1.120	2.846432	-3.969856	732.839991	-19.533847	17.678286	0.040788	-2.412298	-2.665500
1.130	2.688357	-3.910235	733.502790	-19.427849	17.771842	0.026649	-2.422873	-2.648640
1.140	2.482022	-3.867129	733.935852	-19.308954	17.859295	0.010013	-2.433359	-2.630878
1.150	2.242696	-3.845804	734.125828	-19.176144	17.939809	-0.009898	-2.443697	-2.612106
1.160	1.994007	-3.838875	734.081556	-19.025842	18.014386	-0.033349	-2.454003	-2.591789
1.170	1.761714	-3.826839	733.829247	-18.852324	18.085933	-0.059855	-2.464597	-2.569034
1.180	1.566783	-3.782689	733.412489	-18.649476	18.158395	-0.088076	-2.475877	-2.542836
1.190	1.420499	-3.679666	732.893687	-18.413121	18.235059	-0.115818	-2.488091	-2.512386
1.200	1.323706	-3.499576	732.351702	-18.142832	18.316666	-0.140224	-2.501075	-2.477339
1.210	1.270188	-3.238628	731.872619	-17.842410	18.400187	-0.158263	-2.514124	-2.437912
1.220	1.251738	-2.908879	731.535022	-17.518892	18.478953	-0.167526	-2.526052	-2.394812
1.230	1.261572	-2.535247	731.394824	-17.180598	18.544250	-0.167146	-2.535464	-2.349018
1.240	1.294230	-2.149551	731.475329	-16.835116	18.587879	-0.158364	-2.541149	-2.301529
1.250	1.342754	-1.783686	731.765568	-16.488043	18.604707	-0.144324	-2.542441	-2.253187
1.260	1.395875	-1.463923	732.226493	-16.142898	18.594111	-0.129009	-2.539393	-2.204632
1.270	1.437959	-1.207518	732.802477	-15.801996	18.559515	-0.115803	-2.532676	-2.156379
1.280	1.452898	-1.021712	733.434619	-15.467660	18.506123	-0.106383	-2.523214	-2.108935
1.290	1.430861	-0.904425	734.071661	-15.143019	18.437913	-0.100461	-2.511732	-2.062880
1.300	1.374823	-0.845827	734.674555	-14.831956	18.355470	-0.096379	-2.498449	-2.018847
1.310	1.303161	-0.830293	735.213682	-14.538264	18.255795	-0.092131	-2.483060	-1.977420
1.320	1.245995	-0.838741	735.662145	-14.264519	18.134145	-0.086337	-2.465010	-1.939004
1.330	1.235979	-0.851668	735.991094	-14.011337	17.986779	-0.078834	-2.443885	-1.903737
1.340	1.297380	-0.852840	736.171224	-13.777588	17.812994	-0.070809	-2.419681	-1.871519
1.350	1.438497	-0.832747	736.180237	-13.561601	17.615365	-0.064485	-2.392806	-1.842158
1.360	1.650741	-0.790441	736.011948	-13.362724	17.398307	-0.062423	-2.363862	-1.815558
1.370	1.913965	-0.732767	735.681005	-13.182298	17.166089	-0.066614	-2.333360	-1.791850
1.380	2.204353	-0.671118	735.219212	-13.023440	16.921580	-0.077730	-2.301569	-1.771368
1.390	2.500514	-0.616858	734.664385	-12.889752	16.666339	-0.094893	-2.268565	-1.754509
1.400	2.785424	-0.577123	734.047350	-12.783686	16.401813	-0.116100	-2.234435	-1.741534
1.410	3.044931	-0.552556	733.383778	-12.705372	16.130870	-0.139063	-2.199513	-1.732432
1.420	3.265485	-0.537759	732.674994	-12.652390	15.858768	-0.161989	-2.164502	-1.726876
1.430	3.433706	-0.524100	731.917898	-12.620465	15.592993	-0.183929	-2.130429	-1.724301
1.440	3.538773	-0.503627	731.120246	-12.604716	15.341895	-0.204663	-2.098409	-1.724028
1.450	3.576648	-0.472642	730.314315	-12.600967	15.112677	-0.224321	-2.069339	-1.725417
1.460	3.553821	-0.433842	729.561191	-12.606695	14.909614	-0.243019	-2.043641	-1.727983
1.470	3.488134	-0.396425	728.941356	-12.621308	14.733298	-0.260685	-2.021191	-1.731457
1.480	3.405267	-0.374092	728.534058	-12.645619	14.581173	-0.277047	-2.001440	-1.735762
1.490	3.331413	-0.381416	728.393927	-12.680576	14.449032	-0.291669	-1.983684	-1.740895
1.500	3.284913	-0.429537	728.535025	-12.725669	14.332775	-0.304003	-1.967342	-1.746748
1.510	3.270842	-0.522353	728.929193	-12.777666	14.229704	-0.313494	-1.952138	-1.752937
1.520	3.281392	-0.654219	729.518844	-12.830279	14.138835	-0.319796	-1.938104	-1.758732
1.530	3.301745	-0.809937	730.237431	-12.874967	14.060176	-0.323046	-1.925425	-1.763121
1.540	3.318019	-0.967412	731.027441	-12.902652	13.993416	-0.324037	-1.914212	-1.765002
1.550	3.323041	-1.102675	731.848135	-12.905774	13.936781	-0.324115	-1.904327	-1.763450
1.560	3.317541	-1.196009	732.671875	-12.880058	13.886631	-0.324785	-1.895341	-1.757957
1.570	3.307255	-1.237086	733.474432	-12.825439	13.837992	-0.327208	-1.886636	-1.748587
1.580	3.298445	-1.227310	734.227126	-12.745832	13.785688	-0.331828	-1.877578	-1.735952
1.590	3.294519	-1.178806	734.896237	-12.647809	13.725454	-0.338302	-1.867672	-1.721033
1.600	3.295332	-1.110835	735.449969	-12.538616	13.654438	-0.345740	-1.856610	-1.704890
1.610	3.299154	-1.044927	735.868344	-12.424245	13.570873	-0.353098	-1.844198	-1.688379
1.620	3.305987	-0.999898	736.149707	-12.308195	13.473190	-0.359516	-1.830224	-1.671969
1.630	3.320268	-0.987558	736.309668	-12.191220	13.359125	-0.364514	-1.814335	-1.655719
1.640	3.351217	-1.009824	736.373107	-12.071806	13.225318	-0.368053	-1.796008	-1.639360
1.650	3.410267	-1.058017	736.364079	-11.947016	13.067626	-0.370532	-1.774615	-1.622433
1.660	3.506690	-1.114994	736.299077	-11.813451	12.882063	-0.372708	-1.749569	-1.604436
1.670	3.643559	-1.159976	736.185503	-11.668374	12.666065	-0.375506	-1.720499	-1.584977
1.680	3.815986	-1.174819	736.023099	-11.510902	12.419637	-0.379693	-1.687398	-1.563932
1.690	4.012183	-1.149590	735.805267	-11.342889	12.145916	-0.385518	-1.650697	-1.541561
1.700	4.216513	-1.085423	735.519596	-11.169025	11.850895	-0.392463	-1.611228	-1.518522
1.710	4.413071	-0.993462	735.149532	-10.995930	11.542401	-0.399257	-1.570075	-1.495741
1.720	4.588672	-0.890143	734.680050	-10.830466	11.228656	-0.404210	-1.528374	-1.474174
1.730	4.734836	-0.790785	734.108004	-10.677810	10.916826	-0.405781	-1.487087	-1.454529
1.740	4.849102	-0.704504	733.453061	-10.540061	10.611812	-0.403147	-1.446829	-1.437046
1.750	4.936056	-0.632733	732.761744	-10.416073	10.315479	-0.396500	-1.407753	-1.421482
1.760	5.007710	-0.571493	732.099489	-10.302721	10.026515	-0.386897	-1.369556	-1.407284
1.770	5.081919	-0.515563	731.532345	-10.196966	9.741222	-0.375743	-1.331619	-1.393919
1.780	5.177725	-0.462183	731.105673	-10.097660	9.455312	-0.364216	-1.293289	-1.381149
1.790	5.308266	-0.412661	730.828826	-10.006237	9.166354	-0.352882	-1.254241	-1.369163
1.800	5.473978	-0.371571	730.672470	-9.926113	8.875959	-0.341624	-1.214766	-1.358490
1.810	5.659485	-0.344418	730.580231	-9.861268	8.590698	-0.329803	-1.175873	-1.349786
1.820	5.836359	-0.335269	730.490723	-9.814637	8.321175	-0.316548	-1.139121	-1.343568
1.830	5.971633	-0.345404	730.362155	-9.786862	8.079491	-0.301086	-1.106231	-1.340001
1.840	6.039464	-0.373170	730.190917	-9.775748	7.875855	-0.283041	-1.078602	-1.338793
1.850	6.031598	-0.414563	730.017297	-9.776613	7.715450	-0.262580	-1.056886	-1.339230
1.860	5.962314	-0.464180	729.914665	-9.783532	7.596572	-0.240347	-1.040748	-1.340367
1.870	5.865366	-0.516315	729.963122	-9.791096	7.510786	-0.217219	-1.028927	-1.341314
1.880	5.783359	-0.565997	730.214949	-9.796041	7.445267	-0.193991	-1.019599	-1.341528
1.890	5.752747	-0.609685	730.665363	-9.798070	7.386719	-0.171124	-1.010958	-1.340979
1.900	5.789551	-0.645553	731.242863	-9.799497	7.325587	-0.148664	-1.001799	-1.340115
1.910	5.881418	-0.673382	731.826203	-9.803799	7.258859	-0.126383	-0.991883	-1.339635
1.920	5.990216	-0.694167	732.283095	-9.813706	7.190206	-0.104106	-0.981889	-1.340152
1.930	6.065592	-0.709628	732.516022	-9.829678	7.127300	-0.082066	-0.972989	-1.341906
1.940	6.064950	-0.721833	732.497298	-9.849383	7.077591	-0.061067	-0.966228	-1.344631
1.950	5.971578	-0.733049	732.279471	-9.868219	7.044504	-0.042333	-0.961997	-1.347603
1.960	5.802676	-0.745738	731.976534	-9.880476	7.025707	-0.027116	-0.959827	-1.349835
1.970	5.603294	-0.762523	731.722637	-9.880706	7.014027	-0.016283	-0.958564	-1.350335
1.980	5.428710	-0.785743	731.623913	-9.865043	7.000337	-0.010036	-0.956822	-1.348376
1.990	5.323203	-0.816345	731.722266	-9.832222	6.977032	-0.007846	-0.953508	-1.343710
2.000	5.304627	-0.852340	731.985683	-9.783883	6.940590	-0.008575	-0.948187	-1.336622
2.010	5.361126	-0.887736	732.328416	-9.723747	6.892264	-0.010769	-0.941144	-1.327785
2.020	5.460263	-0.912914	732.651335	-9.655806	6.836758	-0.013029	-0.933153	-1.317926
2.030	5.565244	-0.916851	732.884441	-9.582345	6.779557	-0.014363	-0.925051	-1.307484
2.040	5.650381	-0.890615	733.013514	-9.502894	6.724081	-0.014426	-0.917320	-1.296415
2.050	5.709365	-0.830787	733.080592	-9.414684	6.669921	-0.013562	-0.909848	-1.284263
2.060	5.753911	-0.741286	733.159198	-9.314370	6.613020	-0.012669	-0.901990	-1.270443
2.070	5.804683	-0.632618	733.315024	-9.200152	6.547756	-0.012870	-0.892898	-1.254598
2.080	5.879319	-0.518733	733.567926	-9.073407	6.470041	-0.015125	-0.881996	-1.236887
2.090	5.982909	-0.412893	733.871226	-8.939185	6.380030	-0.019907	-0.869366	-1.218086
2.100	6.104659	-0.324235	734.118874	-8.805340	6.283264	-0.027086	-0.855892	-1.199443
2.110	6.221763	-0.256275	734.180118	-8.680632	6.189705	-0.036047	-0.843077	-1.182357
2.120	6.308616	-0.207698	733.948863	-8.572673	6.110946	-0.045959	-0.832612	-1.168021
2.130	6.347364	-0.174956	733.387555	-8.486652	6.056607	-0.056067	-0.825840	-1.157185
2.140	6.335122	-0.155509	732.547086	-8.425151	6.031371	-0.065859	-0.823342	-1.150117
2.150	6.284553	-0.150299	731.554488	-8.388720	6.033864	-0.075122	-0.824800	-1.146698
2.160	6.217743	-0.164382	730.574509	-8.376659	6.057766	-0.083928	-0.829178	-1.146585
2.170	6.156657	-0.205458	729.762126	-8.387660	6.094462	-0.092638	-0.835130	-1.149369
2.180	6.114934	-0.280815	729.224530	-8.420182	6.135967	-0.101852	-0.841437	-1.154676
2.190	6.094467	-0.393679	729.003889	-8.472522	6.177005	-0.112213	-0.847321	-1.162205
2.200	6.087338	-0.540222	729.082079	-8.542636	6.215650	-0.124066	-0.852531	-1.171697
2.210	6.081002	-0.708335	729.400906	-8.627835	6.252640	-0.137151	-0.857230	-1.182866
2.220	6.063616	-0.878973	729.887627	-8.724531	6.289874	-0.150556	-0.861759	-1.195325
2.230	6.027264	-1.030182	730.476127	-8.828101	6.328915	-0.163036	-0.866410	-1.208541
2.240	5.968750	-1.142967	731.118027	-8.932918	6.370191	-0.173567	-0.871294	-1.221816
2.250	5.889105	-1.207023	731.783091	-9.032635	6.413155	-0.181924	-0.876374	-1.234332
2.260	5.793027	-1.224010	732.451897	-9.120841	6.457082	-0.188951	-0.881571	-1.245248
2.270	5.688409	-1.206866	733.105291	-9.192076	6.501853	-0.196345	-0.886892	-1.253855
2.280	5.585276	-1.175286	733.715553	-9.242913	6.548215	-0.205994	-0.892473	-1.259741
2.290	5.493626	-1.148932	734.243311	-9.272666	6.597367	-0.219173	-0.898526	-1.262887
2.300	5.420824	-1.140819	734.641812	-9.283359	6.650072	-0.236014	-0.905213	-1.263658
