Time[s]	Fx[N]	Fy[N]	Fz[N]	Mx[Nm]	My[Nm]	Mz[Nm]	COPx[cm]	COPy[cm]
0.010	1.841748	-0.107637	616.322375	2.270914	-5.134146	-0.375129	0.833029	0.368462
0.020	1.989718	-0.292166	616.295990	2.004260	-5.241984	-0.356952	0.850563	0.325211
0.030	2.108177	-0.475211	616.280077	1.743753	-5.343732	-0.338777	0.867095	0.282948
0.040	2.178654	-0.653908	616.286384	1.493603	-5.435178	-0.321016	0.881924	0.242355
0.050	2.200212	-0.824793	616.329170	1.255609	-5.515620	-0.304547	0.894915	0.203724
0.060	2.189991	-0.985139	616.426345	1.029946	-5.588495	-0.290527	0.906596	0.167083
0.070	2.178254	-1.134393	616.598951	0.816833	-5.660810	-0.279996	0.918070	0.132474
0.080	2.199855	-1.274389	616.866476	0.618007	-5.741308	-0.273515	0.930721	0.100185
0.090	2.284193	-1.407847	617.236591	0.437148	-5.837708	-0.271039	0.945781	0.070823
0.100	2.445838	-1.535867	617.692482	0.279089	-5.953946	-0.272087	0.963901	0.045183
0.110	2.678648	-1.655826	618.185009	0.148366	-6.088528	-0.275961	0.984904	0.024000
0.120	2.956207	-1.760681	618.635840	0.047903	-6.234682	-0.281822	1.007811	0.007743
0.130	3.239560	-1.839876	618.952237	-0.021640	-6.382249	-0.288624	1.031138	-0.003496
0.140	3.489824	-1.881500	619.048746	-0.061838	-6.520485	-0.295128	1.053307	-0.009989
0.150	3.680498	-1.875107	618.868508	-0.076013	-6.640674	-0.300121	1.073035	-0.012283
0.160	3.804447	-1.814382	618.397503	-0.068537	-6.737764	-0.302794	1.089552	-0.011083
0.170	3.873351	-1.698830	617.668013	-0.044047	-6.810735	-0.303034	1.102653	-0.007131
0.180	3.910824	-1.534187	616.751360	-0.006726	-6.861907	-0.301450	1.112589	-0.001091
0.190	3.942501	-1.332032	615.742871	0.040114	-6.895569	-0.299123	1.119878	0.006515
0.200	3.986826	-1.109219	614.743576	0.093927	-6.916407	-0.297223	1.125088	0.015279
0.210	4.049582	-0.887085	613.843354	0.152389	-6.928171	-0.296677	1.128655	0.024825
0.220	4.123669	-0.689728	613.109336	0.212804	-6.932927	-0.297963	1.130781	0.034709
0.230	4.193698	-0.540726	612.581528	0.271963	-6.930982	-0.301064	1.131438	0.044396
0.240	4.243237	-0.458535	612.275290	0.326564	-6.921350	-0.305540	1.130431	0.053336
0.250	4.261466	-0.451829	612.188022	0.373903	-6.902457	-0.310691	1.127506	0.061077
0.260	4.246299	-0.516492	612.305760	0.412349	-6.872845	-0.315761	1.122453	0.067344
0.270	4.202832	-0.635521	612.605755	0.441402	-6.831641	-0.320120	1.115177	0.072053
0.280	4.138437	-0.782042	613.054606	0.461458	-6.778709	-0.323423	1.105727	0.075272
0.290	4.057646	-0.924644	613.606464	0.473569	-6.714452	-0.325725	1.094260	0.077178
0.300	3.959958	-1.033592	614.207231	0.479416	-6.639423	-0.327565	1.080974	0.078054
0.310	3.841822	-1.086416	614.806044	0.481511	-6.554051	-0.329974	1.066036	0.078319
0.320	3.701414	-1.071715	615.368144	0.483387	-6.458793	-0.334320	1.049582	0.078552
0.330	3.543129	-0.990533	615.881006	0.489446	-6.354713	-0.341957	1.031809	0.079471
0.340	3.378912	-0.855282	616.350522	0.504322	-6.244055	-0.353756	1.013069	0.081824
0.350	3.225382	-0.686603	616.790707	0.531924	-6.130216	-0.369711	0.993889	0.086241
0.360	3.098016	-0.508883	617.212878	0.574505	-6.016888	-0.388807	0.974848	0.093081
0.370	3.005181	-0.345307	617.618388	0.631998	-5.906808	-0.409206	0.956385	0.102328
0.380	2.944942	-0.213497	617.996144	0.701703	-5.800941	-0.428654	0.938669	0.113545
0.390	2.906241	-0.122780	618.324596	0.778340	-5.698719	-0.444897	0.921639	0.125879
0.400	2.873974	-0.073737	618.577454	0.854475	-5.599277	-0.456010	0.905186	0.138135
0.410	2.835611	-0.060123	618.731814	0.921261	-5.502987	-0.460667	0.889398	0.148895
0.420	2.786387	-0.072540	618.776111	0.969507	-5.412407	-0.458414	0.874696	0.156681
0.430	2.730722	-0.102623	618.714453	0.991124	-5.332075	-0.449891	0.861799	0.160191
0.440	2.679259	-0.146102	618.565404	0.980887	-5.267136	-0.436833	0.851508	0.158575
0.450	2.643009	-0.203397	618.356317	0.937945	-5.221475	-0.421746	0.844412	0.151684
0.460	2.627721	-0.277555	618.116120	0.866221	-5.196235	-0.407318	0.840657	0.140139
0.470	2.631461	-0.370703	617.868983	0.773178	-5.189323	-0.395733	0.839874	0.125136
0.480	2.646473	-0.480971	617.630353	0.667338	-5.195969	-0.388068	0.841275	0.108048
0.490	2.663879	-0.601523	617.406412	0.555721	-5.209979	-0.384011	0.843849	0.090009
0.500	2.678420	-0.722241	617.196838	0.442434	-5.225278	-0.382046	0.846614	0.071684
0.510	2.690719	-0.833253	616.999041	0.328870	-5.237301	-0.380067	0.848835	0.053302
0.520	2.706181	-0.928434	616.811535	0.214995	-5.243861	-0.376184	0.850156	0.034856
0.530	2.731492	-1.006920	616.635527	0.100774	-5.245234	-0.369418	0.850621	0.016343
0.540	2.770879	-1.071767	616.475007	-0.012913	-5.243482	-0.360049	0.850559	-0.002095
0.550	2.824178	-1.126659	616.335283	-0.123973	-5.241283	-0.349516	0.850395	-0.020114
0.560	2.887384	-1.172715	616.219431	-0.229246	-5.240659	-0.339851	0.850453	-0.037202
0.570	2.954496	-1.207251	616.123785	-0.325056	-5.242012	-0.332832	0.850805	-0.052758
0.580	3.018893	-1.225107	616.036206	-0.408214	-5.243767	-0.329233	0.851211	-0.066265
0.590	3.073556	-1.221710	615.940266	-0.477337	-5.242777	-0.328518	0.851183	-0.077497
0.600	3.111104	-1.196378	615.823988	-0.533885	-5.235311	-0.329120	0.850131	-0.086694
0.610	3.124885	-1.154364	615.687800	-0.582199	-5.218312	-0.329160	0.847558	-0.094561
0.620	3.111354	-1.106821	615.547362	-0.628164	-5.190553	-0.327247	0.843242	-0.102050
0.630	3.072611	-1.068564	615.430983	-0.676942	-5.153399	-0.323004	0.837364	-0.109995
0.640	3.017589	-1.054305	615.373781	-0.730800	-5.110850	-0.317039	0.830528	-0.118757
0.650	2.960786	-1.074493	615.410066	-0.788046	-5.068683	-0.310420	0.823627	-0.128052
0.660	2.918291	-1.132126	615.564681	-0.843519	-5.032806	-0.303970	0.817592	-0.137032
0.670	2.902010	-1.221597	615.844808	-0.890474	-5.007373	-0.297856	0.813090	-0.144594
0.680	2.914256	-1.329968	616.234889	-0.923230	-4.993453	-0.291712	0.810317	-0.149818
0.690	2.945528	-1.440233	616.696809	-0.939654	-4.988885	-0.285155	0.808969	-0.152369
0.700	2.977247	-1.535515	617.175962	-0.942377	-4.989448	-0.278291	0.808432	-0.152692
0.710	2.988849	-1.602982	617.612343	-0.938016	-4.990800	-0.271837	0.808080	-0.151878
0.720	2.966113	-1.636611	617.954439	-0.934630	-4.990208	-0.266801	0.807537	-0.151246
0.730	2.906791	-1.638334	618.171783	-0.938630	-4.987302	-0.263978	0.806783	-0.151840
0.740	2.820898	-1.617402	618.261058	-0.952576	-4.983698	-0.263612	0.806083	-0.154073
0.750	2.725933	-1.587991	618.242231	-0.974690	-4.981987	-0.265408	0.805831	-0.157655
0.760	2.639987	-1.565394	618.145757	-1.000062	-4.984606	-0.268777	0.806380	-0.161784
0.770	2.576157	-1.561732	617.996982	-1.022859	-4.992893	-0.273111	0.807915	-0.165512
0.780	2.540045	-1.582486	617.805959	-1.038602	-5.006508	-0.277967	0.810369	-0.168111
0.790	2.530271	-1.625141	617.567523	-1.045711	-5.023360	-0.283110	0.813411	-0.169327
0.800	2.540981	-1.680529	617.269792	-1.045800	-5.040070	-0.288495	0.816510	-0.169423
0.810	2.564989	-1.736371	616.905004	-1.042663	-5.052798	-0.294165	0.819056	-0.169015
0.820	2.596072	-1.781593	616.477616	-1.040396	-5.058140	-0.300143	0.820490	-0.168765
0.830	2.629486	-1.809740	616.007919	-1.041476	-5.053843	-0.306352	0.820418	-0.169069
0.840	2.661031	-1.820281	615.531130	-1.045789	-5.039178	-0.312634	0.818671	-0.169900
0.850	2.686047	-1.817551	615.092513	-1.051123	-5.014929	-0.318841	0.815313	-0.170889
0.860	2.699553	-1.808079	614.740195	-1.054719	-4.983104	-0.324941	0.810603	-0.171571
0.870	2.697591	-1.797668	614.518388	-1.054746	-4.946621	-0.331097	0.804959	-0.171638
0.880	2.678816	-1.789502	614.462902	-1.050751	-4.909108	-0.337670	0.798927	-0.171003
0.890	2.645328	-1.783920	614.598771	-1.043097	-4.874748	-0.345104	0.793159	-0.169720
0.900	2.602312	-1.779583	614.938510	-1.032250	-4.847886	-0.353705	0.788353	-0.167862
0.910	2.556615	-1.775128	615.479715	-1.018663	-4.832326	-0.363397	0.785132	-0.165507
0.920	2.514808	-1.770326	616.201857	-1.003198	-4.830562	-0.373625	0.783925	-0.162803
0.930	2.481543	-1.766350	617.063498	-0.987426	-4.843376	-0.383475	0.784907	-0.160020
0.940	2.458898	-1.765381	618.001923	-0.973290	-4.870056	-0.391989	0.788032	-0.157490
0.950	2.446858	-1.770022	618.936945	-0.962366	-4.909087	-0.398511	0.793148	-0.155487
0.960	2.444538	-1.782719	619.779456	-0.955302	-4.958896	-0.402915	0.800107	-0.154136
0.970	2.451519	-1.805177	620.443841	-0.951725	-5.018240	-0.405621	0.808814	-0.153394
0.980	2.468748	-1.837804	620.861711	-0.950383	-5.086114	-0.407402	0.819202	-0.153075
0.990	2.498635	-1.879275	620.993216	-0.949255	-5.161398	-0.409035	0.831152	-0.152861
1.000	2.544259	-1.926413	620.832190	-0.945727	-5.242576	-0.410918	0.844443	-0.152332
1.010	2.607934	-1.974515	620.403150	-0.937113	-5.327728	-0.412813	0.858753	-0.151049
1.020	2.689692	-2.018028	619.751419	-0.921531	-5.414721	-0.413874	0.873692	-0.148694
1.030	2.786324	-2.051297	618.930994	-0.898673	-5.501438	-0.412989	0.888861	-0.145198
1.040	2.891517	-2.069086	617.995746	-0.869897	-5.586005	-0.409329	0.903891	-0.140761
1.050	2.997318	-2.066879	616.996777	-0.837389	-5.666999	-0.402853	0.918481	-0.135720
1.060	3.096537	-2.041232	615.984894	-0.802683	-5.743598	-0.394496	0.932425	-0.130309
1.070	3.184963	-1.990325	615.015400	-0.765278	-5.815555	-0.385880	0.945595	-0.124432
1.080	3.262256	-1.914624	614.152226	-0.722132	-5.883147	-0.378674	0.957930	-0.117582
1.090	3.331125	-1.817326	613.468037	-0.668373	-5.947280	-0.373937	0.969452	-0.108950
1.100	3.395279	-1.704160	613.037051	-0.598861	-6.009769	-0.371772	0.980327	-0.097688
1.110	3.457036	-1.582085	612.920554	-0.509702	-6.073479	-0.371410	0.990908	-0.083160
1.120	3.515551	-1.457000	613.150244	-0.398970	-6.141913	-0.371585	1.001698	-0.065069
1.130	3.566573	-1.331486	613.716931	-0.266546	-6.218204	-0.370980	1.013204	-0.043431
1.140	3.604186	-1.203881	614.569203	-0.113653	-6.303879	-0.368612	1.025740	-0.018493
1.150	3.623953	-1.069286	615.621413	0.057329	-6.398072	-0.364119	1.039287	0.009312
1.160	3.625992	-0.922117	616.767256	0.242654	-6.497656	-0.357836	1.053502	0.039343
1.170	3.616517	-0.759212	617.895018	0.437106	-6.598337	-0.350619	1.067873	0.070741
1.180	3.607269	-0.582213	618.901520	0.634546	-6.696234	-0.343437	1.081955	0.102528
1.190	3.613234	-0.398015	619.702541	0.829112	-6.789294	-0.336960	1.095573	0.133792
1.200	3.649400	-0.216855	620.239094	1.016495	-6.877933	-0.331348	1.108916	0.163888
1.210	3.727171	-0.048912	620.480827	1.194509	-6.964645	-0.326342	1.122459	0.192514
1.220	3.850927	0.098900	620.427498	1.362620	-7.052760	-0.321535	1.136758	0.219626
1.230	4.015612	0.224449	620.106889	1.520728	-7.144866	-0.316603	1.152199	0.245236
1.240	4.206440	0.329677	619.566713	1.667955	-7.241558	-0.311373	1.168810	0.269213
1.250	4.401444	0.418355	618.861479	1.802187	-7.340967	-0.305766	1.186205	0.291210
1.260	4.576529	0.493856	618.039231	1.920675	-7.439205	-0.299728	1.203678	0.310769
1.270	4.711496	0.558314	617.133913	2.021284	-7.531386	-0.293228	1.220381	0.327528
1.280	4.794793	0.613192	616.166405	2.103601	-7.612761	-0.286328	1.235504	0.341401
1.290	4.825269	0.659989	615.153370	2.169228	-7.679579	-0.279254	1.248401	0.352632
1.300	4.810702	0.699818	614.119843	2.221160	-7.729499	-0.272454	1.258630	0.361682
1.310	4.764465	0.731885	613.110397	2.262678	-7.761623	-0.266534	1.265942	0.369049
1.320	4.702156	0.752107	612.194518	2.296418	-7.776401	-0.262066	1.270250	0.375112
1.330	4.639081	0.753359	611.463387	2.324029	-7.775628	-0.259376	1.271642	0.380076
1.340	4.588328	0.727973	611.017221	2.346379	-7.762427	-0.258485	1.270411	0.384012
1.350	4.558678	0.671609	610.944771	2.364010	-7.740936	-0.259222	1.267044	0.386943
1.360	4.552260	0.586552	611.299566	2.377560	-7.715533	-0.261420	1.262152	0.388935
1.370	4.562829	0.482576	612.080355	2.388014	-7.689884	-0.264997	1.256352	0.390147
1.380	4.576187	0.374650	613.224467	2.396604	-7.666353	-0.269904	1.250171	0.390820
1.390	4.573784	0.278467	614.619301	2.404313	-7.646075	-0.276076	1.244034	0.391187
1.400	4.538918	0.205881	616.128754	2.411142	-7.629539	-0.283505	1.238303	0.391337
1.410	4.463092	0.162236	617.622930	2.415541	-7.617107	-0.292379	1.233294	0.391103
1.420	4.349485	0.146188	618.997827	2.414470	-7.609074	-0.303074	1.229257	0.390061
1.430	4.211827	0.151331	620.178666	2.404319	-7.605283	-0.315917	1.226305	0.387682
1.440	4.069550	0.168436	621.110865	2.382451	-7.604731	-0.330836	1.224376	0.383579
1.450	3.941815	0.187537	621.748679	2.348644	-7.605603	-0.347162	1.223260	0.377748
1.460	3.843047	0.199600	622.050573	2.305688	-7.605866	-0.363723	1.222709	0.370659
1.470	3.781212	0.197813	621.984884	2.258845	-7.604144	-0.379159	1.222561	0.363167
1.480	3.758514	0.178527	621.542520	2.214428	-7.600316	-0.392268	1.222815	0.356279
1.490	3.773109	0.141566	620.748561	2.178017	-7.595373	-0.402213	1.223583	0.350869
1.500	3.820255	0.089633	619.664977	2.152856	-7.590528	-0.408552	1.224941	0.347423
1.510	3.892186	0.027036	618.382482	2.138923	-7.586100	-0.411169	1.226765	0.345890
1.520	3.977514	-0.041503	617.005986	2.133054	-7.580862	-0.410240	1.228653	0.345710
1.530	4.061846	-0.111283	615.640220	2.130162	-7.572278	-0.406277	1.229984	0.346008
1.540	4.130629	-0.177345	614.379833	2.125208	-7.557532	-0.400212	1.230107	0.345911
1.550	4.173297	-0.234185	613.304434	2.115146	-7.534808	-0.393413	1.228559	0.344877
1.560	4.186335	-0.276331	612.476486	2.100048	-7.504198	-0.387531	1.225222	0.342878
1.570	4.173307	-0.299965	611.939606	2.083001	-7.467739	-0.384157	1.220339	0.340393
1.580	4.141857	-0.304919	611.716411	2.068856	-7.428511	-0.384411	1.214372	0.338205
1.590	4.099526	-0.295904	611.807062	2.062274	-7.389152	-0.388576	1.207759	0.337079
1.600	4.050626	-0.282170	612.190075	2.065675	-7.350517	-0.395946	1.200692	0.337424
1.610	3.995282	-0.275546	612.825500	2.077662	-7.311093	-0.404934	1.193014	0.339030
1.620	3.930383	-0.287418	613.658636	2.092486	-7.267483	-0.413461	1.184288	0.340985
1.630	3.851457	-0.325781	614.622680	2.100852	-7.215696	-0.419524	1.174004	0.341812
1.640	3.754692	-0.393599	615.641870	2.091969	-7.152728	-0.421757	1.161833	0.339803
1.650	3.638796	-0.489140	616.639037	2.056288	-7.077867	-0.419745	1.147814	0.333467
1.660	3.506359	-0.607661	617.548525	1.988140	-6.993334	-0.413998	1.132435	0.321941
1.670	3.364167	-0.743125	618.328770	1.887487	-6.904066	-0.405618	1.116569	0.305256
1.680	3.222068	-0.888935	618.966387	1.760217	-6.816624	-0.395885	1.101292	0.284380
1.690	3.090676	-1.037711	619.468972	1.616824	-6.737480	-0.385960	1.087622	0.261002
1.700	2.978674	-1.180870	619.851284	1.469915	-6.671211	-0.376788	1.076260	0.237140
1.710	2.890647	-1.308838	620.122024	1.331395	-6.619344	-0.369105	1.067426	0.214699
1.720	2.826351	-1.412259	620.276575	1.210181	-6.580411	-0.363428	1.060883	0.195103
1.730	2.782130	-1.483942	620.298577	1.110858	-6.551278	-0.359982	1.056149	0.179084
1.740	2.754198	-1.520898	620.170313	1.033466	-6.529144	-0.358599	1.052799	0.166642
1.750	2.742067	-1.525644	619.887616	0.974380	-6.513275	-0.358722	1.050719	0.157187
1.760	2.749920	-1.506123	619.471265	0.928116	-6.505691	-0.359577	1.050201	0.149824
1.770	2.784814	-1.474038	618.967608	0.889477	-6.510471	-0.360441	1.051827	0.143703
1.780	2.852461	-1.441999	618.436862	0.855250	-6.531934	-0.360831	1.056201	0.138292
1.790	2.952709	-1.420369	617.934473	0.824833	-6.572476	-0.360508	1.063620	0.133482
1.800	3.077202	-1.414844	617.494065	0.799728	-6.630994	-0.359329	1.073855	0.129512
1.810	3.210731	-1.425611	617.118680	0.782360	-6.702565	-0.357111	1.086106	0.126776
1.820	3.335857	-1.448316	616.783281	0.774810	-6.779562	-0.353586	1.099181	0.125621
1.830	3.438477	-1.476380	616.448174	0.777891	-6.853713	-0.348485	1.111807	0.126189
1.840	3.511536	-1.503623	616.079196	0.790791	-6.918259	-0.341681	1.122950	0.128359
1.850	3.555281	-1.526040	615.666528	0.811373	-6.969301	-0.333330	1.131993	0.131788
1.860	3.574543	-1.542097	615.233464	0.837069	-7.005935	-0.323971	1.138744	0.136057
1.870	3.574898	-1.551771	614.831193	0.866098	-7.029365	-0.314575	1.143300	0.140868
1.880	3.559705	-1.555180	614.522274	0.898410	-7.041659	-0.306479	1.145875	0.146197
1.890	3.529116	-1.551693	614.359766	0.935778	-7.044784	-0.301117	1.146687	0.152318
1.900	3.481131	-1.539914	614.369579	0.980894	-7.040297	-0.299574	1.145938	0.159659
1.910	3.413835	-1.518393	614.541821	1.035987	-7.029557	-0.302155	1.143870	0.168579
1.920	3.327602	-1.486317	614.833941	1.101835	-7.014010	-0.308186	1.140797	0.179209
1.930	3.226241	-1.443331	615.184781	1.177778	-6.995122	-0.316193	1.137077	0.191451
1.940	3.116697	-1.388326	615.534964	1.262716	-6.974026	-0.324360	1.133002	0.205141
1.950	3.007724	-1.318226	615.846447	1.356347	-6.951271	-0.331041	1.128734	0.220241
1.960	2.908239	-1.228209	616.113903	1.459778	-6.927029	-0.335072	1.124310	0.236933
1.970	2.825886	-1.113923	616.363516	1.575031	-6.901655	-0.335811	1.119738	0.255536
1.980	2.765846	-0.974764	616.639896	1.703768	-6.876223	-0.333036	1.115112	0.276299
1.990	2.729773	-0.816407	616.986556	1.845984	-6.852669	-0.326875	1.110667	0.299194
2.000	2.715110	-0.651033	617.427771	1.999409	-6.833550	-0.317842	1.106777	0.323829
2.010	2.715431	-0.494716	617.958592	2.159866	-6.821719	-0.306879	1.103912	0.349516
2.020	2.722249	-0.362767	618.546036	2.322305	-6.820177	-0.295298	1.102614	0.375446
2.030	2.728073	-0.264816	619.139561	2.481992	-6.832069	-0.284605	1.103478	0.400878
2.040	2.729631	-0.201686	619.685132	2.635414	-6.860584	-0.276284	1.107108	0.425283
2.050	2.729695	-0.165284	620.136441	2.780784	-6.908532	-0.271641	1.114034	0.448415
2.060	2.736343	-0.141204	620.459449	2.918176	-6.977609	-0.271681	1.124587	0.470325
2.070	2.759782	-0.112686	620.630701	3.049329	-7.067644	-0.276963	1.138784	0.491327
2.080	2.808292	-0.064566	620.633176	3.176984	-7.176242	-0.287371	1.156278	0.511894
2.090	2.885286	0.013411	620.453988	3.303718	-7.299122	-0.301913	1.176416	0.532468
2.100	2.988741	0.124153	620.086058	3.430533	-7.431080	-0.318728	1.198395	0.553235
2.110	3.112879	0.262039	619.532801	3.555807	-7.567184	-0.335421	1.221434	0.573950
2.120	3.250843	0.413554	618.812842	3.675204	-7.703732	-0.349687	1.244921	0.593912
2.130	3.396867	0.560027	617.961957	3.782809	-7.838645	-0.359935	1.268467	0.612143
2.140	3.546951	0.682029	617.031397	3.873078	-7.971245	-0.365646	1.291870	0.627695
2.150	3.698198	0.764154	616.083802	3.942792	-8.101600	-0.367313	1.315016	0.639977
2.160	3.847853	0.798672	615.187902	3.992113	-8.229781	-0.366043	1.337767	0.648926
2.170	3.993046	0.786944	614.411858	4.024369	-8.355345	-0.363052	1.359893	0.654995
2.180	4.131333	0.738452	613.814734	4.044865	-8.477225	-0.359278	1.381072	0.658972
2.190	4.261301	0.668074	613.437177	4.059418	-8.594058	-0.355242	1.400968	0.661750
2.200	4.382475	0.592647	613.294540	4.073176	-8.704758	-0.351165	1.419344	0.664147
2.210	4.494382	0.527802	613.376343	4.089807	-8.809004	-0.347249	1.436150	0.666770
2.220	4.595299	0.485511	613.653626	4.110956	-8.907370	-0.343921	1.451531	0.669915
2.230	4.681551	0.472350	614.090988	4.136069	-9.001114	-0.341870	1.465762	0.673527
2.240	4.748185	0.488537	614.656672	4.162917	-9.091952	-0.341847	1.479192	0.677275
2.250	4.791147	0.528102	615.325587	4.188884	-9.182102	-0.344379	1.492235	0.680759
2.260	4.810213	0.580521	616.075209	4.212538	-9.274475	-0.349580	1.505413	0.683770
2.270	4.811114	0.633632	616.878421	4.234685	-9.372535	-0.357149	1.519349	0.686470
2.280	4.805412	0.677003	617.698140	4.258268	-9.479472	-0.366485	1.534645	0.689377
2.290	4.807625	0.704767	618.486727	4.287002	-9.596927	-0.376811	1.551679	0.693144
2.300	4.830660	0.717164	619.189971	4.323415	-9.723998	-0.387280	1.570439	0.698237
2.310	4.881787	0.720337	619.752927	4.367381	-9.857173	-0.397073	1.590500	0.704697
2.320	4.961163	0.724222	620.125196	4.415954	-9.991171	-0.405502	1.611154	0.712107
2.330	5.063292	0.738935	620.265091	4.464374	-10.120210	-0.412118	1.631594	0.719753
2.340	5.180049	0.770946	620.142954	4.507465	-10.239110	-0.416756	1.651089	0.726843
2.350	5.303201	0.820707	619.743407	4.540616	-10.343910	-0.419467	1.669063	0.732661
2.360	5.425137	0.882657	619.066349	4.560187	-10.431944	-0.420379	1.685109	0.736623
2.370	5.538119	0.947257	618.127677	4.563630	-10.501545	-0.419606	1.698928	0.738299
2.380	5.633556	1.003886	616.961298	4.549674	-10.551651	-0.417289	1.710261	0.737433
2.390	5.702857	1.043456	615.623154	4.518599	-10.581619	-0.413702	1.718847	0.733988
