Time[s]	Fx[N]	Fy[N]	Fz[N]	Mx[Nm]	My[Nm]	Mz[Nm]	COPx[cm]	COPy[cm]
0.010	4.543050	-0.333101	623.330155	2.271708	-6.455331	-0.408661	1.035620	0.364447
0.020	4.837323	-0.190545	622.048745	2.466587	-6.601497	-0.372445	1.061251	0.396526
0.030	5.097906	-0.051909	620.766474	2.657875	-6.742983	-0.335323	1.086235	0.428160
0.040	5.299541	0.077904	619.499695	2.842328	-6.875203	-0.296762	1.109799	0.458810
0.050	5.430184	0.192946	618.291791	3.017404	-6.993996	-0.256768	1.131180	0.488023
0.060	5.492866	0.286851	617.209205	3.181534	-7.096165	-0.215951	1.149718	0.515471
0.070	5.503848	0.353993	616.327926	3.334404	-7.179947	-0.175505	1.164956	0.541011
0.080	5.487725	0.390792	615.716487	3.477140	-7.245117	-0.137127	1.176697	0.564731
0.090	5.470497	0.396887	615.421102	3.612228	-7.292628	-0.102873	1.184982	0.586952
0.100	5.472164	0.375773	615.456208	3.743132	-7.323918	-0.074873	1.189998	0.608188
0.110	5.501057	0.334448	615.802035	3.873748	-7.340164	-0.054916	1.191968	0.629057
0.120	5.552033	0.281977	616.409815	4.007854	-7.341792	-0.043986	1.191057	0.650193
0.130	5.609378	0.227482	617.213232	4.148633	-7.328413	-0.041940	1.187339	0.672156
0.140	5.653197	0.178335	618.141593	4.298282	-7.299129	-0.047483	1.180818	0.695356
0.150	5.666567	0.139050	619.128547	4.457753	-7.252945	-0.058487	1.171476	0.720004
0.160	5.640530	0.111023	620.112253	4.626811	-7.188951	-0.072580	1.159298	0.746125
0.170	5.575117	0.093150	621.028358	4.804506	-7.106128	-0.087814	1.144252	0.773637
0.180	5.476324	0.083268	621.802775	4.989933	-7.002955	-0.103208	1.126234	0.802495
0.190	5.350746	0.080116	622.352904	5.182878	-6.877208	-0.119007	1.105034	0.832788
0.200	5.200770	0.085050	622.601694	5.383953	-6.726272	-0.136529	1.080349	0.864751
0.210	5.022911	0.102679	622.501026	5.594120	-6.547997	-0.157603	1.051885	0.898652
0.220	4.810057	0.140029	622.055030	5.813900	-6.341817	-0.183710	1.019495	0.934628
0.230	4.556262	0.204630	621.333200	6.042743	-6.109735	-0.215218	0.983327	0.972545
0.240	4.261594	0.302438	620.466778	6.278861	-5.856842	-0.251148	0.943941	1.011958
0.250	3.934869	0.436553	619.627659	6.519525	-5.591091	-0.289613	0.902331	1.052168
0.260	3.593237	0.607025	618.995194	6.761586	-5.322247	-0.328664	0.859820	1.092349
0.270	3.258616	0.811289	618.720479	7.001978	-5.060235	-0.367037	0.817855	1.131687
0.280	2.951781	1.044443	618.898042	7.238045	-4.813538	-0.404432	0.777759	1.169505
0.290	2.686114	1.298925	619.551684	7.467648	-4.588195	-0.441235	0.740567	1.205331
0.300	2.463958	1.563943	620.636614	7.689092	-4.387646	-0.477823	0.706959	1.238904
0.310	2.277903	1.825465	622.055466	7.901033	-4.213213	-0.513806	0.677305	1.270149
0.320	2.116557	2.067403	623.681850	8.102534	-4.064857	-0.547632	0.651752	1.299145
0.330	1.971427	2.273901	625.383063	8.293218	-3.941870	-0.576781	0.630313	1.326102
0.340	1.840904	2.432143	627.035445	8.473344	-3.843250	-0.598437	0.612924	1.351334
0.350	1.729535	2.534939	628.531189	8.643621	-3.767840	-0.610272	0.599467	1.375210
0.360	1.643901	2.582405	629.780331	8.804864	-3.714484	-0.611062	0.589806	1.398085
0.370	1.588236	2.582086	630.712287	8.957811	-3.682352	-0.600983	0.583840	1.420269
0.380	1.562489	2.547135	631.278670	9.103326	-3.671183	-0.581559	0.581547	1.442046
0.390	1.563395	2.493052	631.456320	9.242884	-3.681075	-0.555268	0.582950	1.463741
0.400	1.587063	2.434274	631.248133	9.378913	-3.711707	-0.524930	0.587995	1.485773
0.410	1.631067	2.382082	630.680112	9.514613	-3.761430	-0.493120	0.596408	1.508627
0.420	1.694975	2.344486	629.795315	9.653258	-3.826843	-0.461820	0.607633	1.532761
0.430	1.779548	2.327514	628.647147	9.797344	-3.903200	-0.432362	0.620889	1.558481
0.440	1.885386	2.336518	627.294242	9.948013	-3.985489	-0.405546	0.635346	1.585861
0.450	2.011807	2.376385	625.797605	10.104898	-4.069619	-0.381739	0.650309	1.614723
0.460	2.156377	2.450488	624.219280	10.266287	-4.153143	-0.360899	0.665334	1.644660
0.470	2.314995	2.559069	622.621422	10.429470	-4.235153	-0.342557	0.680213	1.675090
0.480	2.481949	2.697994	621.065735	10.591162	-4.315397	-0.325859	0.694837	1.705321
0.490	2.649365	2.858638	619.614176	10.747994	-4.393113	-0.309699	0.709008	1.734627
0.500	2.806247	3.029084	618.330297	10.897076	-4.466186	-0.292906	0.722298	1.762339
0.510	2.938262	3.196078	617.278231	11.036590	-4.531124	-0.274462	0.734049	1.787944
0.520	3.029557	3.346745	616.517061	11.166316	-4.583904	-0.253700	0.743516	1.811193
0.530	3.066672	3.469533	616.092509	11.287826	-4.621347	-0.230482	0.750106	1.832164
0.540	3.042951	3.554689	616.030302	11.404135	-4.642410	-0.205316	0.753601	1.851229
0.550	2.961097	3.594876	616.333377	11.518790	-4.648823	-0.179392	0.754271	1.868922
0.560	2.832383	3.586109	616.981598	11.634748	-4.644746	-0.154499	0.752818	1.885753
0.570	2.672844	3.528723	617.932262	11.753509	-4.635577	-0.132790	0.750176	1.902071
0.580	2.498289	3.428083	619.122143	11.874819	-4.626491	-0.116362	0.747266	1.918009
0.590	2.320467	3.294882	620.473546	11.997013	-4.621451	-0.106726	0.744826	1.933525
0.600	2.145872	3.144771	621.905333	12.117827	-4.623155	-0.104388	0.743386	1.948500
0.610	1.977126	2.996999	623.346219	12.235487	-4.633803	-0.108768	0.743375	1.962872
0.620	1.815628	2.872023	624.745011	12.349757	-4.656085	-0.118498	0.745278	1.976768
0.630	1.663797	2.788456	626.073138	12.462541	-4.693825	-0.131954	0.749725	1.990589
0.640	1.525930	2.760048	627.318407	12.577691	-4.752045	-0.147790	0.757517	2.004993
0.650	1.407732	2.793393	628.473406	12.699968	-4.836591	-0.165290	0.769578	2.020765
0.660	1.315476	2.886897	629.524295	12.833521	-4.953512	-0.184462	0.786866	2.038606
0.670	1.255653	3.031208	630.444608	12.980388	-5.108225	-0.205862	0.810258	2.058926
0.680	1.235344	3.211056	631.195108	13.139557	-5.304508	-0.230234	0.840391	2.081695
0.690	1.262807	3.408159	631.727575	13.306842	-5.543439	-0.258044	0.877505	2.106421
0.700	1.347529	3.604504	631.989921	13.475594	-5.822660	-0.289066	0.921322	2.132248
0.710	1.499039	3.785103	631.932025	13.638048	-6.136385	-0.322185	0.971051	2.158151
0.720	1.724371	3.939556	631.513633	13.786906	-6.476374	-0.355581	1.025532	2.183153
0.730	2.024875	4.062223	630.714884	13.916754	-6.833587	-0.387264	1.083467	2.206505
0.740	2.393744	4.151399	629.547118	14.024938	-7.199850	-0.415727	1.143655	2.227782
0.750	2.815610	4.208345	628.059425	14.111695	-7.568842	-0.440375	1.205116	2.246873
0.760	3.268874	4.236888	626.337034	14.179537	-7.936217	-0.461578	1.267084	2.263883
0.770	3.730230	4.243543	624.490826	14.232184	-8.299172	-0.480344	1.328950	2.279006
0.780	4.179599	4.237364	622.641021	14.273523	-8.656007	-0.497820	1.390208	2.292416
0.790	4.603331	4.228788	620.900257	14.306867	-9.005949	-0.514816	1.450466	2.304213
0.800	4.994715	4.227430	619.360649	14.334500	-9.349160	-0.531538	1.509486	2.314403
0.810	5.352547	4.239502	618.087085	14.357341	-9.686600	-0.547594	1.567190	2.322867
0.820	5.679288	4.265813	617.116736	14.374719	-10.019507	-0.562233	1.623600	2.329335
0.830	5.979685	4.301207	616.462830	14.384438	-10.348526	-0.574712	1.678694	2.333383
0.840	6.259576	4.335897	616.119624	14.383281	-10.672821	-0.584634	1.732264	2.334495
0.850	6.524275	4.358312	616.066200	14.367875	-10.989588	-0.592115	1.783832	2.332197
0.860	6.776351	4.358323	616.268873	14.335617	-11.294209	-0.597716	1.832676	2.326195
0.870	7.013515	4.329576	616.683405	14.285378	-11.581031	-0.602167	1.877954	2.316485
0.880	7.227853	4.270354	617.257869	14.217835	-11.844465	-0.606019	1.918884	2.303387
0.890	7.407455	4.183152	617.936152	14.135342	-12.080034	-0.609390	1.954900	2.287509
0.900	7.540404	4.073499	618.662145	14.041353	-12.285132	-0.611867	1.985758	2.269632
0.910	7.619712	3.948394	619.384735	13.939518	-12.459393	-0.612604	2.011576	2.250543
0.920	7.646976	3.814590	620.062642	13.832743	-12.604628	-0.610542	2.032799	2.230862
0.930	7.632878	3.677108	620.666540	13.722551	-12.724332	-0.604712	2.050108	2.210938
0.940	7.594120	3.538450	621.176158	13.608891	-12.822832	-0.594534	2.064283	2.190826
0.950	7.548143	3.398690	621.573307	13.490400	-12.904265	-0.580003	2.076065	2.170364
0.960	7.507941	3.256217	621.835675	13.364981	-12.971684	-0.561696	2.086031	2.149279
0.970	7.478994	3.108788	621.936840	13.230628	-13.026622	-0.540601	2.094525	2.127327
0.980	7.459047	2.954696	621.854231	13.086378	-13.069248	-0.517876	2.101658	2.104412
0.990	7.440216	2.793939	621.582041	12.933123	-13.099004	-0.494654	2.107365	2.080678
1.000	7.412442	2.629165	621.143708	12.773950	-13.115415	-0.471951	2.111494	2.056521
1.010	7.367371	2.465932	620.598481	12.613761	-13.118813	-0.450660	2.113897	2.032516
1.020	7.301779	2.311816	620.037837	12.458215	-13.110795	-0.431546	2.114515	2.009267
1.030	7.219418	2.174439	619.570385	12.312399	-13.094313	-0.415201	2.113450	1.987248
1.040	7.130268	2.059163	619.298476	12.179794	-13.073316	-0.401986	2.110988	1.966708
1.050	7.047080	1.967446	619.293427	12.061963	-13.051968	-0.392034	2.107558	1.947698
1.060	6.980456	1.896465	619.577412	11.958906	-13.033673	-0.385296	2.103639	1.930171
1.070	6.934607	1.839848	620.118290	11.869665	-13.020250	-0.381599	2.099640	1.914097
1.080	6.905664	1.789011	620.839758	11.792768	-13.011667	-0.380665	2.095817	1.899487
1.090	6.883232	1.734760	621.643925	11.726442	-13.006465	-0.382103	2.092269	1.886360
1.100	6.854357	1.669134	622.438558	11.668795	-13.002663	-0.385415	2.088987	1.874690
1.110	6.808080	1.587423	623.159202	11.618181	-12.998645	-0.390037	2.085927	1.864400
1.120	6.738789	1.489876	623.778504	11.573692	-12.993629	-0.395405	2.083052	1.855417
1.130	6.647407	1.382382	624.300735	11.535398	-12.987685	-0.401053	2.080357	1.847731
1.140	6.540510	1.275561	624.745877	11.504086	-12.981559	-0.406705	2.077894	1.841402
1.150	6.428055	1.182329	625.131497	11.480605	-12.976481	-0.412289	2.075800	1.836510
1.160	6.320758	1.114732	625.460249	11.465268	-12.974057	-0.417851	2.074322	1.833093
1.170	6.228065	1.081127	625.717107	11.457647	-12.976207	-0.423373	2.073814	1.831123
1.180	6.157310	1.084630	625.875901	11.456839	-12.985021	-0.428618	2.074696	1.830529
1.190	6.113865	1.123085	625.911297	11.462050	-13.002406	-0.433115	2.077356	1.831258
1.200	6.101395	1.190282	625.810616	11.473248	-13.029457	-0.436362	2.082013	1.833342
1.210	6.121267	1.277908	625.580161	11.491583	-13.065786	-0.438129	2.088587	1.836948
1.220	6.171013	1.377632	625.243694	11.519300	-13.109201	-0.438666	2.096655	1.842370
1.230	6.242951	1.482933	624.834366	11.559086	-13.156020	-0.438612	2.105521	1.849944
1.240	6.324561	1.590287	624.383421	11.613036	-13.201983	-0.438633	2.114403	1.859921
1.250	6.401323	1.699326	623.909589	11.681517	-13.243326	-0.439011	2.122635	1.872309
1.260	6.461099	1.811638	623.413390	11.762311	-13.277529	-0.439381	2.129811	1.886759
1.270	6.497974	1.928474	622.879689	11.850356	-13.303439	-0.438744	2.135796	1.902511
1.280	6.513477	2.048407	622.288267	11.938380	-13.320814	-0.435797	2.140618	1.918465
1.290	6.514496	2.166241	621.627704	12.018358	-13.329562	-0.429501	2.144300	1.933369
1.300	6.509011	2.273764	620.905690	12.083400	-13.329087	-0.419661	2.146717	1.946093
1.310	6.501942	2.361941	620.151163	12.129413	-13.318053	-0.407176	2.147549	1.955880
1.320	6.493301	2.423484	619.408811	12.155978	-13.294707	-0.393835	2.146354	1.962513
1.330	6.479453	2.454695	618.730116	12.166178	-13.257540	-0.381724	2.142702	1.966314
1.340	6.456419	2.455999	618.164794	12.165471	-13.205901	-0.372590	2.136307	1.967998
1.350	6.422952	2.431295	617.754158	12.159953	-13.140211	-0.367437	2.127094	1.968413
1.360	6.381433	2.386798	617.526804	12.154545	-13.061687	-0.366486	2.115161	1.968262
1.370	6.336249	2.329935	617.497164	12.151705	-12.971785	-0.369388	2.100704	1.967897
1.380	6.290850	2.268331	617.666937	12.151085	-12.871770	-0.375479	2.083934	1.967255
1.390	6.245286	2.208702	618.028031	12.150180	-12.762656	-0.383911	2.065061	1.965959
1.400	6.195609	2.155736	618.565089	12.145647	-12.645509	-0.393668	2.044330	1.963520
1.410	6.135464	2.111306	619.256293	12.134692	-12.521782	-0.403569	2.022068	1.959559
1.420	6.058972	2.074377	620.072677	12.115960	-12.393463	-0.412401	1.998711	1.953958
1.430	5.963267	2.041879	620.977451	12.089650	-12.262918	-0.419171	1.974777	1.946874
1.440	5.849472	2.010487	621.927035	12.057050	-12.132583	-0.423411	1.950805	1.938660
1.450	5.722143	1.978717	622.874426	12.019865	-12.004610	-0.425361	1.927292	1.929741
1.460	5.588045	1.948183	623.774279	11.979711	-11.880549	-0.425913	1.904623	1.920520
1.470	5.455161	1.923065	624.588649	11.937862	-11.761121	-0.426329	1.883019	1.911316
1.480	5.332112	1.907709	625.292134	11.895155	-11.646176	-0.427809	1.862518	1.902336
1.490	5.227485	1.903519	625.874400	11.851967	-11.534975	-0.431122	1.843018	1.893665
1.500	5.148440	1.907009	626.337867	11.808275	-11.426721	-0.436441	1.824370	1.885288
1.510	5.098712	1.910488	626.690314	11.763884	-11.321040	-0.443409	1.806481	1.877145
1.520	5.077059	1.905303	626.935810	11.718774	-11.218164	-0.451339	1.789364	1.869214
1.530	5.077346	1.885968	627.069206	11.673410	-11.118817	-0.459387	1.773140	1.861582
1.540	5.090449	1.852973	627.077207	11.628829	-11.024029	-0.466634	1.758002	1.854449
1.550	5.107020	1.812992	626.944748	11.586411	-10.935039	-0.472124	1.744179	1.848075
1.560	5.119875	1.776713	626.662893	11.547366	-10.853257	-0.474963	1.731913	1.842676
1.570	5.125352	1.755625	626.234928	11.512195	-10.780118	-0.474571	1.721418	1.838319
1.580	5.123707	1.759060	625.679333	11.480467	-10.716728	-0.470986	1.712815	1.834880
1.590	5.118764	1.792168	625.030269	11.451187	-10.663405	-0.465060	1.706062	1.832101
1.600	5.116721	1.854887	624.336776	11.423622	-10.619357	-0.458341	1.700902	1.829721
1.610	5.123924	1.941882	623.660317	11.398066	-10.582767	-0.452624	1.696880	1.827608
1.620	5.143978	2.043512	623.068097	11.376000	-10.551380	-0.449365	1.693455	1.825804
1.630	5.175501	2.147874	622.620097	11.359554	-10.523421	-0.449223	1.690183	1.824476
1.640	5.212056	2.243527	622.352269	11.350681	-10.498410	-0.451937	1.686892	1.823835
1.650	5.244863	2.322244	622.263397	11.350525	-10.477380	-0.456535	1.683753	1.824071
1.660	5.267075	2.381090	622.313542	11.359187	-10.462306	-0.461748	1.681195	1.825316
1.670	5.277311	2.423250	622.436493	11.375743	-10.455044	-0.466440	1.679697	1.827615
1.680	5.280574	2.457130	622.561060	11.398292	-10.456319	-0.469868	1.679565	1.830871
1.690	5.286263	2.493712	622.631593	11.423931	-10.465245	-0.471692	1.680808	1.834782
1.700	5.304437	2.542799	622.619384	11.448863	-10.479469	-0.471771	1.683126	1.838822
1.710	5.342001	2.609425	622.522204	11.468958	-10.495761	-0.469921	1.686006	1.842337
1.720	5.400134	2.691770	622.355270	11.480849	-10.510768	-0.465797	1.688869	1.844742
1.730	5.473665	2.781495	622.140096	11.483143	-10.521673	-0.458983	1.691206	1.845749
1.740	5.552643	2.866647	621.896985	11.476975	-10.526628	-0.449232	1.692664	1.845479
1.750	5.625817	2.936222	621.643035	11.465399	-10.524851	-0.436721	1.693070	1.844370
1.760	5.684866	2.984492	621.393313	11.451807	-10.516430	-0.422206	1.692395	1.842924
1.770	5.727523	3.013051	621.161456	11.438199	-10.501987	-0.406992	1.690702	1.841421
1.780	5.757951	3.029613	620.958477	11.424152	-10.482409	-0.392688	1.688101	1.839761
1.790	5.784209	3.044226	620.791564	11.406897	-10.458732	-0.380773	1.684741	1.837476
1.800	5.814267	3.064728	620.664845	11.382330	-10.432005	-0.372090	1.680779	1.833893
1.810	5.852645	3.093424	620.581608	11.346439	-10.402921	-0.366438	1.676318	1.828356
1.820	5.899069	3.126098	620.545939	11.296625	-10.371239	-0.362486	1.671309	1.820433
1.830	5.949292	3.153352	620.562677	11.232535	-10.335364	-0.358112	1.665483	1.810057
1.840	5.997332	3.163471	620.636050	11.156215	-10.292594	-0.351103	1.658395	1.797546
1.850	6.038105	3.145765	620.767674	11.071540	-10.240119	-0.339977	1.649590	1.783524
1.860	6.069596	3.093470	620.954372	10.983051	-10.176333	-0.324575	1.638821	1.768737
1.870	6.093979	3.005515	621.186422	10.894482	-10.101676	-0.306266	1.626191	1.753818
1.880	6.117365	2.886778	621.446775	10.807403	-10.018454	-0.287694	1.612118	1.739071
1.890	6.148140	2.746793	621.710715	10.720314	-9.929700	-0.272160	1.597158	1.724325
1.900	6.194159	2.597493	621.944145	10.628352	-9.837548	-0.262785	1.581741	1.708892
1.910	6.259407	2.451042	622.099463	10.523588	-9.741647	-0.261689	1.565931	1.691625
1.920	6.340975	2.318536	622.111457	10.395861	-9.638038	-0.269409	1.549246	1.671061
1.930	6.427252	2.209291	621.899074	10.234211	-9.518806	-0.284704	1.530603	1.645639
1.940	6.498286	2.129812	621.378836	10.028874	-9.372866	-0.304728	1.508398	1.613971
1.950	6.528944	2.081762	620.491113	9.773664	-9.188045	-0.325495	1.480770	1.575150
1.960	6.494571	2.059292	619.233445	9.468367	-8.954213	-0.342598	1.446016	1.529046
1.970	6.377610	2.047020	617.689309	9.120514	-8.666608	-0.352139	1.403069	1.476554
1.980	6.172873	2.020407	616.038779	8.745699	-8.328233	-0.351731	1.351901	1.419667
1.990	5.889417	1.949704	614.541162	8.365797	-7.950273	-0.341277	1.293692	1.361308
2.000	5.548000	1.807102	613.488561	8.005167	-7.550143	-0.323187	1.230690	1.304860
2.010	5.174684	1.575022	613.140923	7.685817	-7.147658	-0.301850	1.165745	1.253516
2.020	4.793029	1.252636	613.662237	7.423004	-6.760607	-0.282507	1.101682	1.209624
2.030	4.418179	0.858154	615.078916	7.222573	-6.401239	-0.269901	1.040718	1.174251
2.040	4.055203	0.425971	617.273745	7.080688	-6.074763	-0.267155	0.984128	1.147090
2.050	3.701732	-0.000362	620.015890	6.985872	-5.780046	-0.275188	0.932242	1.126725
2.060	3.353041	-0.376982	623.015177	6.922638	-5.511899	-0.292746	0.884713	1.111151
2.070	3.007032	-0.667819	625.981972	6.875568	-5.263888	-0.316940	0.840901	1.098365
2.080	2.667179	-0.850154	628.674769	6.832643	-5.030761	-0.344098	0.800217	1.086833
2.090	2.342824	-0.916928	630.924702	6.786992	-4.809897	-0.370675	0.762357	1.075721
2.100	2.047406	-0.876055	632.635752	6.736807	-4.601639	-0.393975	0.727376	1.064879
2.110	1.795634	-0.747586	633.767838	6.683804	-4.408621	-0.412466	0.695621	1.054614
2.120	1.600422	-0.559626	634.314668	6.631003	-4.234442	-0.425695	0.667562	1.045381
2.130	1.470171	-0.343638	634.287672	6.580730	-4.082123	-0.433961	0.643576	1.037499
2.140	1.407099	-0.129604	633.711504	6.533495	-3.952837	-0.437909	0.623760	1.030989
2.150	1.407370	0.058309	632.628841	6.487928	-3.845320	-0.438132	0.607832	1.025550
2.160	1.463160	0.204754	631.106987	6.441478	-3.756126	-0.434846	0.595165	1.020663
2.170	1.565720	0.304132	629.239008	6.391347	-3.680553	-0.427778	0.584921	1.015726
2.180	1.707800	0.359185	627.136927	6.335235	-3.613839	-0.416383	0.576244	1.010184
2.190	1.884181	0.377601	624.920480	6.271702	-3.552128	-0.400335	0.568413	1.003600
2.200	2.090109	0.367603	622.707611	6.200165	-3.492866	-0.380018	0.560916	0.995678
2.210	2.318569	0.334121	620.610096	6.120691	-3.434645	-0.356693	0.553430	0.986238
2.220	2.557820	0.277410	618.732150	6.033862	-3.376739	-0.332185	0.545751	0.975198
2.230	2.790550	0.195032	617.167157	5.940975	-3.318634	-0.308306	0.537720	0.962620
2.240	2.995243	0.086140	615.990595	5.844513	-3.259657	-0.286382	0.529173	0.948799
2.250	3.149504	-0.044563	615.252493	5.748464	-3.198749	-0.267134	0.519908	0.934326
2.260	3.234341	-0.185578	614.974692	5.658048	-3.134377	-0.250818	0.509676	0.920046
2.270	3.238168	-0.320569	615.154790	5.578768	-3.064714	-0.237377	0.498202	0.906889
2.280	3.159355	-0.432279	615.773324	5.515200	-2.988177	-0.226510	0.485272	0.895654
2.290	3.006698	-0.506593	616.798334	5.470096	-2.904278	-0.217716	0.470863	0.886853
2.300	2.797866	-0.535562	618.184113	5.444188	-2.814453	-0.210431	0.455277	0.880674
2.310	2.556437	-0.518963	619.866184	5.436532	-2.722400	-0.204225	0.439192	0.877049
2.320	2.308199	-0.464333	621.758402	5.444995	-2.633659	-0.198970	0.423582	0.875741
2.330	2.077399	-0.385454	623.757437	5.466586	-2.554556	-0.194914	0.409543	0.876396
2.340	1.883671	-0.299470	625.754869	5.497727	-2.490910	-0.192650	0.398065	0.878575
2.350	1.740410	-0.223198	627.650941	5.534724	-2.447019	-0.193024	0.389869	0.881816
2.360	1.654890	-0.169413	629.361922	5.574516	-2.425284	-0.196955	0.385356	0.885741
2.370	1.629603	-0.143924	630.817597	5.615412	-2.426543	-0.205105	0.384666	0.890180
2.380	1.663802	-0.144183	631.953173	5.657451	-2.450866	-0.217446	0.387824	0.895233
2.390	1.754360	-0.160044	632.704289	5.702169	-2.498359	-0.232941	0.394870	0.901238
