Time[s]	Fx[N]	Fy[N]	Fz[N]	Mx[Nm]	My[Nm]	Mz[Nm]	COPx[cm]	COPy[cm]
0.010	-0.083258	-1.636557	562.223430	-16.641713	10.401372	0.788211	-1.850042	-2.959982
0.020	-0.477432	-1.684508	561.614275	-16.711382	10.753814	0.800297	-1.914804	-2.975598
0.030	-0.952420	-1.743033	560.989665	-16.770394	11.123139	0.809395	-1.982771	-2.989430
0.040	-1.553333	-1.815668	560.380541	-16.809896	11.518228	0.813658	-2.055430	-2.999729
0.050	-2.268702	-1.895346	559.884531	-16.823998	11.935973	0.812548	-2.131863	-3.004905
0.060	-3.028430	-1.965633	559.650613	-16.810627	12.361225	0.806744	-2.208740	-3.003772
0.070	-3.724089	-2.005899	559.830785	-16.771549	12.771155	0.797638	-2.281253	-2.995825
0.080	-4.245518	-1.998085	560.518281	-16.711461	13.142344	0.786667	-2.344677	-2.981430
0.090	-4.520381	-1.932432	561.699040	-16.636496	13.458011	0.774703	-2.395947	-2.961817
0.100	-4.540922	-1.810185	563.238399	-16.552702	13.712859	0.761688	-2.434646	-2.938845
0.110	-4.366781	-1.642703	564.910279	-16.464986	13.913837	0.746666	-2.463017	-2.914620
0.120	-4.102690	-1.447839	566.457923	-16.376641	14.076610	0.728249	-2.485023	-2.891060
0.130	-3.860368	-1.245188	567.662338	-16.289384	14.219157	0.705338	-2.504862	-2.869555
0.140	-3.720205	-1.051808	568.393159	-16.203830	14.355101	0.677888	-2.525558	-2.850814
0.150	-3.707705	-0.879471	568.625906	-16.120233	14.489453	0.647402	-2.548152	-2.834945
0.160	-3.792644	-0.733901	568.424032	-16.039250	14.618383	0.616923	-2.571739	-2.821705
0.170	-3.909080	-0.615947	567.897186	-15.962320	14.732783	0.590359	-2.594269	-2.810776
0.180	-3.986324	-0.524210	567.154736	-15.891473	14.823797	0.571262	-2.613713	-2.801964
0.190	-3.977982	-0.458173	566.273452	-15.828631	14.887728	0.561496	-2.629070	-2.795228
0.200	-3.878480	-0.420449	565.290145	-15.774824	14.928254	0.560380	-2.640813	-2.790571
0.210	-3.722237	-0.416643	564.217769	-15.729804	14.955288	0.564736	-2.650623	-2.787896
0.220	-3.567544	-0.452255	563.073152	-15.692374	14.981336	0.569868	-2.660638	-2.786916
0.230	-3.472741	-0.527741	561.901073	-15.661224	15.017197	0.571105	-2.672570	-2.787185
0.240	-3.474442	-0.634433	560.783321	-15.635734	15.068813	0.565318	-2.687101	-2.788195
0.250	-3.575609	-0.754083	559.829705	-15.616151	15.136255	0.551847	-2.703725	-2.789447
0.260	-3.746696	-0.863019	559.156168	-15.602925	15.214725	0.532530	-2.721015	-2.790441
0.270	-3.938114	-0.939401	558.859124	-15.595540	15.296634	0.510897	-2.737118	-2.790603
0.280	-4.098610	-0.970450	558.994232	-15.591579	15.373768	0.490903	-2.750255	-2.789220
0.290	-4.192648	-0.956553	559.565017	-15.586773	15.438820	0.475689	-2.759075	-2.785516
0.300	-4.210556	-0.910448	560.524011	-15.576223	15.486054	0.466764	-2.762782	-2.778868
0.310	-4.168039	-0.851651	561.785586	-15.556257	15.511179	0.463848	-2.761050	-2.769074
0.320	-4.095756	-0.798338	563.245629	-15.525983	15.510786	0.465336	-2.753823	-2.756521
0.330	-4.023828	-0.760149	564.801295	-15.487814	15.481717	0.469054	-2.741091	-2.742170
0.340	-3.968309	-0.735047	566.365173	-15.446713	15.420583	0.472939	-2.722728	-2.727342
0.350	-3.925555	-0.711410	567.870456	-15.408441	15.323477	0.475443	-2.698411	-2.713373
0.360	-3.876208	-0.674061	569.266364	-15.377439	15.185931	0.475759	-2.667632	-2.701273
0.370	-3.795652	-0.611397	570.506591	-15.355150	15.003209	0.474008	-2.629805	-2.691494
0.380	-3.665049	-0.520618	571.536646	-15.339437	14.771044	0.471373	-2.584444	-2.683894
0.390	-3.478050	-0.409160	572.286462	-15.325358	14.486748	0.469996	-2.531380	-2.677917
0.400	-3.241622	-0.292134	572.672434	-15.307029	14.150333	0.472567	-2.470930	-2.672912
0.410	-2.972415	-0.187168	572.609814	-15.279752	13.765235	0.481685	-2.403947	-2.668440
0.420	-2.691189	-0.108925	572.032956	-15.241432	13.338361	0.499234	-2.331747	-2.664432
0.430	-2.417293	-0.065297	570.917506	-15.192781	12.879491	0.525926	-2.255929	-2.661117
0.440	-2.164039	-0.056261	569.296560	-15.136449	12.400184	0.561057	-2.178159	-2.658799
0.450	-1.935005	-0.075144	567.264061	-15.075702	11.912342	0.602516	-2.099964	-2.657616
0.460	-1.721388	-0.111181	564.963349	-15.013310	11.426635	0.647042	-2.022544	-2.657395
0.470	-1.501300	-0.152274	562.564167	-14.951068	10.951156	0.690680	-1.946650	-2.657665
0.480	-1.242422	-0.187446	560.234902	-14.890045	10.490777	0.729361	-1.872567	-2.657822
0.490	-0.908911	-0.209091	558.117798	-14.831328	10.047563	0.759554	-1.800258	-2.657383
0.500	-0.472052	-0.214984	556.313287	-14.776848	9.622217	0.778920	-1.729640	-2.656210
0.510	0.077872	-0.209293	554.876159	-14.729791	9.216065	0.786896	-1.660923	-2.654609
0.520	0.722733	-0.201565	553.822124	-14.694277	8.832869	0.784993	-1.594893	-2.653249
0.530	1.415170	-0.203372	553.140199	-14.674236	8.479709	0.776577	-1.533013	-2.652896
0.540	2.086899	-0.223576	552.805204	-14.671915	8.166501	0.766025	-1.477284	-2.654084
0.550	2.665001	-0.264258	552.786201	-14.686700	7.904231	0.757430	-1.429889	-2.656850
0.560	3.090740	-0.319296	553.050109	-14.714832	7.702490	0.753324	-1.392729	-2.660669
0.570	3.334153	-0.376434	553.562881	-14.750209	7.567120	0.754038	-1.366985	-2.664595
0.580	3.399307	-0.421953	554.291357	-14.786009	7.498623	0.758033	-1.352831	-2.667552
0.590	3.318977	-0.445705	555.206718	-14.816585	7.491742	0.763008	-1.349361	-2.668661
0.600	3.141605	-0.444116	556.287718	-14.838904	7.536307	0.767165	-1.354750	-2.667487
0.610	2.915992	-0.419930	557.521146	-14.853035	7.619140	0.769952	-1.366610	-2.664120
0.620	2.679084	-0.379232	558.898275	-14.861600	7.726410	0.771961	-1.382436	-2.659089
0.630	2.450025	-0.327698	560.407210	-14.868503	7.845690	0.774136	-1.399998	-2.653160
0.640	2.230628	-0.268325	562.022246	-14.877367	7.967134	0.776790	-1.417583	-2.647113
0.650	2.010389	-0.201793	563.693972	-14.890160	8.083611	0.778979	-1.434042	-2.641533
0.660	1.773723	-0.128824	565.345929	-14.906412	8.190064	0.778612	-1.448682	-2.636689
0.670	1.507788	-0.052629	566.881655	-14.923313	8.282599	0.773279	-1.461081	-2.632527
0.680	1.209564	0.020346	568.199943	-14.936704	8.357779	0.761425	-1.470922	-2.628776
0.690	0.890367	0.081770	569.211019	-14.942666	8.412413	0.743307	-1.477908	-2.625154
0.700	0.575667	0.123799	569.846932	-14.939135	8.443822	0.721288	-1.481770	-2.621605
0.710	0.299292	0.140939	570.064967	-14.926958	8.450382	0.699337	-1.482354	-2.618466
0.720	0.093794	0.130733	569.847641	-14.909854	8.431953	0.681979	-1.479686	-2.616463
0.730	-0.019203	0.093724	569.202686	-14.893224	8.389926	0.673083	-1.473979	-2.616506
0.740	-0.034829	0.033410	568.163293	-14.882275	8.326926	0.674860	-1.465587	-2.619366
0.750	0.034838	-0.043588	566.787245	-14.880329	8.246568	0.687280	-1.454967	-2.625382
0.760	0.165505	-0.127371	565.154507	-14.888123	8.153518	0.708042	-1.442706	-2.634346
0.770	0.327844	-0.205131	563.363895	-14.904401	8.053719	0.733152	-1.429577	-2.645608
0.780	0.494265	-0.262688	561.529034	-14.927516	7.954244	0.757998	-1.416533	-2.658369
0.790	0.643333	-0.287611	559.772771	-14.957153	7.862541	0.778602	-1.404595	-2.672004
0.800	0.761200	-0.273520	558.218854	-14.995253	7.785444	0.792599	-1.394694	-2.686268
0.810	0.840650	-0.223996	556.980050	-15.045682	7.728593	0.799558	-1.387589	-2.701296
0.820	0.878980	-0.153933	556.143687	-15.112868	7.696440	0.800652	-1.383894	-2.717439
0.830	0.875816	-0.086963	555.758985	-15.200207	7.692372	0.797980	-1.384120	-2.735036
0.840	0.831661	-0.049560	555.832348	-15.309050	7.718389	0.793903	-1.388618	-2.754257
0.850	0.747547	-0.064212	556.333551	-15.438578	7.774214	0.790566	-1.397402	-2.775058
0.860	0.625867	-0.144303	557.209150	-15.586311	7.856332	0.789552	-1.409943	-2.797210
0.870	0.471883	-0.292093	558.395584	-15.748778	7.957577	0.791612	-1.425079	-2.820362
0.880	0.294875	-0.499478	559.825857	-15.922009	8.067714	0.796477	-1.441111	-2.844100
0.890	0.107785	-0.750258	561.428281	-16.101811	8.174925	0.802840	-1.456094	-2.868009
0.900	-0.075087	-1.022914	563.120401	-16.283796	8.267770	0.808546	-1.468206	-2.891708
0.910	-0.241485	-1.293463	564.803981	-16.463226	8.337033	0.811050	-1.476093	-2.914857
0.920	-0.383890	-1.538372	566.366136	-16.634825	8.377016	0.808072	-1.479081	-2.937115
0.930	-0.499911	-1.737439	567.687847	-16.792778	8.386019	0.798296	-1.477224	-2.958101
0.940	-0.590250	-1.876315	568.657363	-16.931059	8.365966	0.781836	-1.471179	-2.977374
0.950	-0.655646	-1.948375	569.184946	-17.044173	8.321367	0.760306	-1.461979	-2.994488
0.960	-0.694742	-1.955675	569.216346	-17.128307	8.257955	0.736439	-1.450759	-3.009103
0.970	-0.703984	-1.908736	568.743092	-17.182662	8.181398	0.713407	-1.438505	-3.021164
0.980	-0.679337	-1.824824	567.807450	-17.210387	8.096382	0.694022	-1.425903	-3.031025
0.990	-0.618747	-1.724721	566.499688	-17.218484	8.006227	0.680092	-1.413280	-3.039452
1.000	-0.524163	-1.628760	564.946428	-17.216482	7.912992	0.672099	-1.400662	-3.047454
1.010	-0.402279	-1.553464	563.291787	-17.214302	7.817971	0.669268	-1.387908	-3.056019
1.020	-0.263782	-1.509775	561.676483	-17.220170	7.722387	0.669940	-1.374882	-3.065852
1.030	-0.121592	-1.502937	560.221351	-17.239347	7.628052	0.672138	-1.361614	-3.077238
1.040	0.011169	-1.533350	559.018997	-17.273978	7.537689	0.674173	-1.348378	-3.090052
1.050	0.123003	-1.597599	558.132274	-17.323728	7.454758	0.675104	-1.335662	-3.103875
1.060	0.205546	-1.689148	557.595079	-17.386549	7.382798	0.674911	-1.324043	-3.118132
1.070	0.254861	-1.798635	557.412568	-17.459097	7.324537	0.674327	-1.314024	-3.132168
1.080	0.272353	-1.914066	557.562021	-17.536896	7.281097	0.674396	-1.305881	-3.145282
1.090	0.264794	-2.021423	557.997350	-17.614696	7.251597	0.675913	-1.299576	-3.156771
1.100	0.242783	-2.106290	558.657704	-17.687241	7.233354	0.679006	-1.294774	-3.166025
1.110	0.217618	-2.156690	559.477030	-17.750195	7.222647	0.683107	-1.290964	-3.172641
1.120	0.197623	-2.166469	560.390773	-17.800752	7.215780	0.687368	-1.287634	-3.176489
1.130	0.185623	-2.137785	561.338309	-17.837696	7.209983	0.691267	-1.284427	-3.177709
1.140	0.178834	-2.081268	562.262710	-17.861075	7.203721	0.695061	-1.281202	-3.176642
1.150	0.171268	-2.013452	563.110740	-17.871738	7.196343	0.699833	-1.277962	-3.173752
1.160	0.157617	-1.952260	563.835003	-17.870884	7.187374	0.707128	-1.274730	-3.169524
1.170	0.136856	-1.912152	564.397916	-17.859669	7.175986	0.718328	-1.271441	-3.164376
1.180	0.113818	-1.900636	564.775830	-17.838903	7.160973	0.734034	-1.267932	-3.158581
1.190	0.097755	-1.917151	564.962027	-17.808934	7.141156	0.753668	-1.264006	-3.152236
1.200	0.098270	-1.954132	564.968059	-17.769762	7.115870	0.775427	-1.259517	-3.145268
1.210	0.120475	-1.999172	564.822821	-17.721304	7.085160	0.796602	-1.254404	-3.137498
1.220	0.161796	-2.037292	564.568524	-17.663716	7.049631	0.814260	-1.248676	-3.128711
1.230	0.212162	-2.053059	564.253225	-17.597632	7.010090	0.826092	-1.242366	-3.118747
1.240	0.257570	-2.032807	563.920878	-17.524239	6.967144	0.831126	-1.235482	-3.107571
1.250	0.285518	-1.967173	563.601582	-17.445119	6.920889	0.829965	-1.227975	-3.095293
1.260	0.290191	-1.853756	563.306021	-17.361863	6.870873	0.824456	-1.219741	-3.082137
1.270	0.275455	-1.699125	563.027637	-17.275651	6.816405	0.817028	-1.210670	-3.068349
1.280	0.254376	-1.519002	562.752584	-17.187034	6.757109	0.810052	-1.200725	-3.054101
1.290	0.245125	-1.335663	562.472384	-17.096028	6.693471	0.805422	-1.190009	-3.039443
1.300	0.264525	-1.172556	562.191610	-17.002442	6.627141	0.804365	-1.178805	-3.024315
1.310	0.321522	-1.047658	561.926017	-16.906208	6.560838	0.807366	-1.167563	-3.008618
1.320	0.413050	-0.968200	561.693244	-16.807467	6.497849	0.814098	-1.156832	-2.992286
1.330	0.523886	-0.929028	561.503149	-16.706351	6.441207	0.823385	-1.147136	-2.975291
1.340	0.630657	-0.914958	561.354842	-16.602621	6.392792	0.833266	-1.138815	-2.957598
1.350	0.708961	-0.905484	561.243055	-16.495531	6.352625	0.841261	-1.131885	-2.939106
1.360	0.741673	-0.879725	561.169999	-16.384213	6.318671	0.844837	-1.125982	-2.919652
1.370	0.725820	-0.820478	561.154378	-16.268503	6.287376	0.841964	-1.120436	-2.899114
1.380	0.674974	-0.717221	561.230181	-16.149735	6.254829	0.831686	-1.114485	-2.877560
1.390	0.615123	-0.568003	561.434144	-16.031007	6.218038	0.814545	-1.107528	-2.855367
1.400	0.574682	-0.379839	561.787490	-15.916729	6.175728	0.792712	-1.099300	-2.833229
1.410	0.572564	-0.167348	562.280585	-15.811663	6.128383	0.769633	-1.089915	-2.812059
1.420	0.609697	0.050045	562.867646	-15.719868	6.077706	0.749139	-1.079775	-2.792818
1.430	0.668088	0.251616	563.474153	-15.643923	6.025791	0.734272	-1.069400	-2.776334
1.440	0.718089	0.418642	564.014367	-15.584647	5.974325	0.726337	-1.059251	-2.763165
1.450	0.730748	0.536698	564.412413	-15.541310	5.924044	0.724623	-1.049595	-2.753538
1.460	0.689825	0.596724	564.619205	-15.512203	5.874594	0.726920	-1.040452	-2.747374
1.470	0.598264	0.595426	564.619505	-15.495420	5.824801	0.730476	-1.031633	-2.744400
1.480	0.476674	0.535697	564.427993	-15.489661	5.773208	0.732889	-1.022842	-2.744311
1.490	0.355137	0.426999	564.078007	-15.494776	5.718674	0.732605	-1.013809	-2.746921
1.500	0.262434	0.284811	563.609351	-15.511614	5.660812	0.729022	-1.004386	-2.752192
1.510	0.217144	0.128503	563.060796	-15.540966	5.600143	0.722439	-0.994589	-2.760087
1.520	0.223383	-0.021913	562.469097	-15.582082	5.537983	0.713996	-0.984584	-2.770300
1.530	0.271767	-0.149094	561.871832	-15.631726	5.476126	0.705590	-0.974622	-2.782080
1.540	0.344501	-0.240952	561.309276	-15.684567	5.416515	0.699650	-0.964979	-2.794283
1.550	0.422401	-0.292342	560.822218	-15.734782	5.360922	0.698710	-0.955904	-2.805663
1.560	0.491011	-0.305836	560.446335	-15.778023	5.310655	0.704830	-0.947576	-2.815260
1.570	0.543483	-0.291439	560.206430	-15.812800	5.266320	0.718936	-0.940068	-2.822674
1.580	0.579683	-0.264919	560.113819	-15.840835	5.227828	0.740273	-0.933351	-2.828146
1.590	0.603058	-0.244689	560.168170	-15.866426	5.194615	0.766202	-0.927331	-2.832440
1.600	0.617610	-0.247598	560.362527	-15.895167	5.165838	0.792573	-0.921874	-2.836586
1.610	0.626383	-0.284626	560.688511	-15.932511	5.140229	0.814695	-0.916771	-2.841598
1.620	0.631469	-0.357848	561.138840	-15.982611	5.115627	0.828616	-0.911651	-2.848245
1.630	0.634647	-0.459924	561.706027	-16.047603	5.088578	0.832259	-0.905915	-2.856940
1.640	0.637957	-0.576621	562.377801	-16.127223	5.054545	0.825995	-0.898781	-2.867685
1.650	0.644038	-0.691672	563.130650	-16.218670	5.008957	0.812447	-0.889484	-2.880090
1.660	0.656317	-0.792210	563.923546	-16.316850	4.948766	0.795557	-0.877560	-2.893451
1.670	0.678974	-0.872550	564.694918	-16.415225	4.873744	0.779307	-0.863076	-2.906919
1.680	0.716530	-0.934778	565.366095	-16.507206	4.786837	0.766574	-0.846679	-2.919737
1.690	0.773066	-0.986022	565.852487	-16.587660	4.693338	0.758637	-0.829428	-2.931446
1.700	0.851362	-1.033913	566.080058	-16.654040	4.599263	0.755440	-0.812476	-2.941994
1.710	0.952249	-1.082497	566.001567	-16.706723	4.509596	0.756310	-0.796746	-2.951710
1.720	1.074224	-1.130469	565.606858	-16.748344	4.427074	0.760592	-0.782712	-2.961128
1.730	1.213228	-1.172444	564.924287	-16.782265	4.351946	0.767841	-0.770359	-2.970711
1.740	1.362541	-1.202504	564.014040	-16.810822	4.282738	0.777536	-0.759332	-2.980568
1.750	1.512961	-1.218122	562.956428	-16.834235	4.217663	0.788664	-0.749199	-2.990326
1.760	1.653534	-1.222297	561.838979	-16.850753	4.156007	0.799596	-0.739715	-2.999214
1.770	1.772999	-1.222812	560.745884	-16.857904	4.098875	0.808499	-0.730968	-3.006336
1.780	1.861802	-1.229105	559.752297	-16.854187	4.049078	0.814075	-0.723370	-3.011008
1.790	1.914233	-1.248390	558.923444	-16.840463	4.010301	0.816209	-0.717505	-3.013018
1.800	1.930028	-1.282711	558.315401	-16.820511	3.985978	0.816148	-0.713930	-3.012726
1.810	1.914759	-1.328039	557.973274	-16.800565	3.978239	0.816134	-0.712980	-3.010998
1.820	1.878498	-1.375780	557.925029	-16.787838	3.987270	0.818614	-0.714661	-3.008977
1.830	1.832896	-1.416156	558.173646	-16.788418	4.011332	0.825354	-0.718653	-3.007741
1.840	1.787668	-1.442091	558.692606	-16.805324	4.047435	0.836754	-0.724448	-3.007973
1.850	1.747875	-1.451739	559.428197	-16.837579	4.092400	0.851626	-0.731533	-3.009784
1.860	1.712894	-1.448421	560.308304	-16.880651	4.143819	0.867504	-0.739560	-3.012743
1.870	1.677285	-1.438221	561.254352	-16.927967	4.200513	0.881356	-0.748415	-3.016096
1.880	1.633223	-1.427003	562.192698	-16.972857	4.262309	0.890473	-0.758158	-3.019046
1.890	1.573705	-1.418715	563.063203	-17.010298	4.329230	0.893284	-0.768871	-3.021028
1.900	1.495391	-1.415492	563.824097	-17.037968	4.400456	0.889867	-0.780466	-3.021859
1.910	1.400216	-1.418421	564.452783	-17.056354	4.473562	0.881941	-0.792549	-3.021750
1.920	1.295550	-1.427578	564.942467	-17.068024	4.544472	0.872296	-0.804413	-3.021197
1.930	1.193290	-1.441179	565.295206	-17.076408	4.608299	0.863836	-0.815202	-3.020795
1.940	1.108150	-1.454990	565.513484	-17.084568	4.660799	0.858583	-0.824171	-3.021072
1.950	1.055095	-1.463149	565.593834	-17.094326	4.699801	0.857057	-0.830950	-3.022368
1.960	1.045917	-1.460449	565.525933	-17.105955	4.725933	0.858236	-0.835670	-3.024787
1.970	1.085662	-1.444985	565.298109	-17.118418	4.742287	0.860111	-0.838900	-3.028211
1.980	1.170371	-1.419889	564.906688	-17.130001	4.753154	0.860577	-0.841405	-3.032359
1.990	1.287480	-1.393427	564.364417	-17.139020	4.762435	0.858294	-0.843858	-3.036871
2.000	1.418911	-1.377409	563.703755	-17.144400	4.772597	0.853160	-0.846650	-3.041385
2.010	1.545381	-1.384192	562.973388	-17.146080	4.784824	0.846195	-0.849920	-3.045629
2.020	1.649932	-1.422950	562.229421	-17.145236	4.800278	0.838914	-0.853793	-3.049509
2.030	1.719579	-1.496271	561.525289	-17.144320	4.821568	0.832527	-0.858656	-3.053170
2.040	1.745370	-1.598320	560.904697	-17.146727	4.853260	0.827299	-0.865256	-3.056977
2.050	1.721969	-1.715385	560.399370	-17.155986	4.900867	0.822329	-0.874531	-3.061386
2.060	1.647599	-1.828729	560.030061	-17.174585	4.968752	0.815826	-0.887230	-3.066726
2.070	1.524417	-1.918902	559.807989	-17.202988	5.058119	0.805800	-0.903545	-3.073016
2.080	1.358686	-1.970334	559.735065	-17.239329	5.166244	0.790895	-0.922980	-3.079909
2.090	1.160141	-1.975352	559.803481	-17.279899	5.287363	0.771042	-0.944503	-3.086780
2.100	0.940535	-1.936913	559.996564	-17.320055	5.414693	0.747718	-0.966915	-3.092886
2.110	0.712081	-1.869075	560.292052	-17.355140	5.542539	0.723748	-0.989223	-3.097517
2.120	0.486605	-1.794302	560.666807	-17.381222	5.667568	0.702726	-1.010862	-3.100098
2.130	0.275584	-1.737661	561.100807	-17.395635	5.788877	0.688238	-1.031700	-3.100269
2.140	0.090402	-1.719446	561.579121	-17.397270	5.907071	0.683107	-1.051868	-3.097920
2.150	-0.058169	-1.748773	562.091942	-17.386573	6.022925	0.688804	-1.071520	-3.093190
2.160	-0.161778	-1.820523	562.632988	-17.365229	6.136192	0.705075	-1.090621	-3.086422
2.170	-0.217096	-1.916864	563.196519	-17.335671	6.244979	0.729883	-1.108845	-3.078086
2.180	-0.227800	-2.012883	563.773485	-17.300582	6.345884	0.759734	-1.125609	-3.068712
2.190	-0.204545	-2.084390	564.347473	-17.262535	6.434820	0.790386	-1.140223	-3.058849
2.200	-0.162562	-2.115272	564.891304	-17.223731	6.508238	0.817704	-1.152122	-3.049035
2.210	-0.117659	-2.101840	565.365813	-17.185726	6.564288	0.838384	-1.161069	-3.039753
2.220	-0.081825	-2.052496	565.722845	-17.148944	6.603427	0.850414	-1.167255	-3.031333
2.230	-0.059768	-1.982790	565.913503	-17.112046	6.628246	0.853306	-1.171247	-3.023792
2.240	-0.047644	-1.908082	565.899897	-17.071541	6.642628	0.848115	-1.173817	-3.016707
2.250	-0.034698	-1.837243	565.665911	-17.022212	6.650625	0.837205	-1.175716	-3.009234
2.260	-0.007481	-1.770123	565.222736	-16.958540	6.655566	0.823691	-1.177512	-3.000329
2.270	0.044952	-1.699453	564.608161	-16.876647	6.659670	0.810665	-1.179521	-2.989090
2.280	0.127012	-1.615778	563.881194	-16.775923	6.664155	0.800458	-1.181837	-2.975081
2.290	0.235323	-1.512971	563.113435	-16.659676	6.669614	0.794218	-1.184418	-2.958494
2.300	0.360339	-1.391931	562.377754	-16.534486	6.676472	0.791951	-1.187186	-2.940103
2.310	0.489460	-1.260977	561.735515	-16.408383	6.685469	0.792895	-1.190145	-2.921016
2.320	0.609932	-1.132921	561.225168	-16.288314	6.698143	0.796043	-1.193486	-2.902278
2.330	0.710710	-1.020311	560.855557	-16.177818	6.717107	0.800536	-1.197654	-2.884489
