Time[s]	Fx[N]	Fy[N]	Fz[N]	Mx[Nm]	My[Nm]	Mz[Nm]	COPx[cm]	COPy[cm]
0.010	2.556268	-1.822355	676.275683	-3.553088	17.545080	-0.950204	-2.594368	-0.525390
0.020	2.401819	-1.716061	675.903178	-3.336107	17.763242	-1.013051	-2.628075	-0.493578
0.030	2.292695	-1.593235	675.696341	-3.125689	17.957385	-1.067952	-2.657612	-0.462588
0.040	2.265224	-1.442298	675.768458	-2.926351	18.106461	-1.108634	-2.679388	-0.433041
0.050	2.340196	-1.259466	676.144532	-2.739282	18.194238	-1.131713	-2.690880	-0.405133
0.060	2.518390	-1.049739	676.752468	-2.562647	18.211512	-1.137263	-2.691015	-0.378668
0.070	2.780865	-0.825585	677.443791	-2.392912	18.157447	-1.128538	-2.680288	-0.353227
0.080	3.094655	-0.603887	678.037459	-2.226429	18.039502	-1.110884	-2.660547	-0.328364
0.090	3.422152	-0.401950	678.373974	-2.060653	17.871968	-1.090168	-2.634530	-0.303764
0.100	3.730782	-0.233507	678.363354	-1.894668	17.673606	-1.071232	-2.605330	-0.279300
0.110	3.999560	-0.105651	678.011327	-1.729101	17.464999	-1.056907	-2.575916	-0.255025
0.120	4.220593	-0.017528	677.415044	-1.565678	17.266125	-1.047774	-2.548825	-0.231125
0.130	4.395782	0.038726	676.730872	-1.406636	17.094461	-1.042600	-2.526035	-0.207858
0.140	4.530772	0.075144	676.126929	-1.254189	16.963752	-1.039147	-2.508960	-0.185496
0.150	4.628974	0.104267	675.737014	-1.110157	16.883475	-1.035066	-2.498527	-0.164288
0.160	4.688109	0.135906	675.629756	-0.975808	16.858844	-1.028595	-2.495279	-0.144429
0.170	4.700547	0.175076	675.799828	-0.851880	16.891049	-1.018874	-2.499416	-0.126055
0.180	4.657184	0.221459	676.180486	-0.738675	16.977391	-1.005858	-2.510778	-0.109242
0.190	4.553107	0.270515	676.670747	-0.636001	17.111265	-0.990008	-2.528743	-0.093990
0.200	4.392450	0.316113	677.167056	-0.542913	17.282301	-0.972007	-2.552147	-0.080174
0.210	4.190136	0.353943	677.588851	-0.457491	17.477092	-0.952587	-2.579306	-0.067518
0.220	3.969589	0.384268	677.890411	-0.377061	17.680615	-0.932476	-2.608182	-0.055623
0.230	3.757309	0.412525	678.057495	-0.299006	17.877989	-0.912417	-2.636648	-0.044097
0.240	3.576441	0.447259	678.094356	-0.221748	18.056057	-0.893235	-2.662765	-0.032702
0.250	3.441598	0.496174	678.010379	-0.145287	18.204493	-0.875911	-2.684987	-0.021428
0.260	3.356586	0.562076	677.813587	-0.070892	18.316495	-0.861532	-2.702291	-0.010459
0.270	3.315483	0.640649	677.512861	-0.000078	18.389280	-0.851067	-2.714233	-0.000012
0.280	3.306178	0.721432	677.125988	0.066532	18.424478	-0.845051	-2.720982	0.009826
0.290	3.314533	0.791959	676.688023	0.129686	18.428280	-0.843350	-2.723305	0.019165
0.300	3.327589	0.843226	676.254153	0.190931	18.410999	-0.845173	-2.722497	0.028234
0.310	3.335228	0.873721	675.893424	0.251313	18.385720	-0.849361	-2.720210	0.037182
0.320	3.330684	0.889980	675.673997	0.310171	18.365928	-0.854820	-2.718164	0.045905
0.330	3.310593	0.903513	675.645058	0.364725	18.362407	-0.860898	-2.717759	0.053982
0.340	3.275102	0.925620	675.822598	0.410601	18.380117	-0.867498	-2.719666	0.060756
0.350	3.228280	0.962295	676.184557	0.442921	18.415987	-0.874911	-2.723515	0.065503
0.360	3.178670	1.011201	676.676397	0.457410	18.458439	-0.883501	-2.727809	0.067597
0.370	3.139353	1.061966	677.223974	0.451178	18.489101	-0.893417	-2.730131	0.066622
0.380	3.126932	1.099796	677.749040	0.423079	18.486465	-0.904415	-2.727627	0.062424
0.390	3.159258	1.110866	678.183680	0.373655	18.430550	-0.915791	-2.717634	0.055096
0.400	3.252386	1.086908	678.480921	0.304622	18.307238	-0.926438	-2.698269	0.044898
0.410	3.417462	1.026889	678.619094	0.218007	18.111170	-0.935045	-2.668827	0.032125
0.420	3.658172	0.935461	678.599253	0.115192	17.846625	-0.940428	-2.629921	0.016975
0.430	3.969257	0.819742	678.438586	-0.003672	17.526425	-0.941886	-2.583347	-0.000541
0.440	4.336482	0.686467	678.164809	-0.139540	17.169335	-0.939476	-2.531735	-0.020576
0.450	4.738165	0.540674	677.813913	-0.293598	16.796778	-0.934143	-2.478081	-0.043315
0.460	5.147805	0.385882	677.428734	-0.465977	16.429776	-0.927662	-2.425314	-0.068786
0.470	5.536936	0.225036	677.054327	-0.654691	16.086776	-0.922349	-2.375995	-0.096697
0.480	5.877648	0.061456	676.729873	-0.855356	15.782531	-0.920504	-2.332176	-0.126396
0.490	6.144993	-0.100821	676.481294	-1.061951	15.527743	-0.923698	-2.295369	-0.156982
0.500	6.319935	-0.257632	676.319413	-1.268417	15.329005	-0.932129	-2.266533	-0.187547
0.510	6.393049	-0.406067	676.245118	-1.470500	15.188693	-0.944362	-2.246034	-0.217451
0.520	6.368133	-0.546048	676.258236	-1.666958	15.104680	-0.957665	-2.233567	-0.246497
0.530	6.263958	-0.681144	676.363703	-1.859487	15.070074	-0.968842	-2.228102	-0.274924
0.540	6.112326	-0.817782	676.569252	-2.051407	15.073409	-0.975211	-2.227918	-0.303207
0.550	5.951836	-0.962696	676.873911	-2.245833	15.099648	-0.975330	-2.230792	-0.331795
0.560	5.818703	-1.119592	677.253441	-2.444197	15.132207	-0.969243	-2.234349	-0.360898
0.570	5.737703	-1.286853	677.652967	-2.645719	15.155781	-0.958278	-2.236511	-0.390424
0.580	5.716544	-1.457779	677.994703	-2.847871	15.159351	-0.944555	-2.235910	-0.420043
0.590	5.745734	-1.623412	678.200590	-3.047402	15.138448	-0.930372	-2.232149	-0.449336
0.600	5.803804	-1.776501	678.220926	-3.241338	15.095873	-0.917613	-2.225805	-0.477918
0.610	5.865710	-1.914580	678.055648	-3.427522	15.040555	-0.907272	-2.218189	-0.505493
0.620	5.911211	-2.040748	677.757118	-3.604722	14.984789	-0.899247	-2.210938	-0.531860
0.630	5.930453	-2.161976	677.411387	-3.772624	14.940756	-0.892537	-2.205566	-0.556918
0.640	5.925349	-2.285854	677.105595	-3.931944	14.917502	-0.885742	-2.203128	-0.580699
0.650	5.906981	-2.417322	676.896500	-4.084449	14.919365	-0.877663	-2.204084	-0.603408
0.660	5.890408	-2.556723	676.794182	-4.232499	14.946180	-0.867727	-2.208379	-0.625375
0.670	5.888708	-2.699860	676.766761	-4.378038	14.994910	-0.856065	-2.215669	-0.646905
0.680	5.907914	-2.839777	676.761865	-4.521457	15.061915	-0.843276	-2.225586	-0.668102
0.690	5.944144	-2.969323	676.733709	-4.660881	15.144964	-0.830025	-2.237950	-0.688732
0.700	5.983800	-3.083313	676.663501	-4.792185	15.244235	-0.816746	-2.252853	-0.708208
0.710	6.006959	-3.179434	676.565236	-4.909656	15.361930	-0.803560	-2.270576	-0.725674
0.720	5.993138	-3.257610	676.476294	-5.007087	15.500644	-0.790399	-2.291380	-0.740172
0.730	5.927644	-3.318193	676.438874	-5.078961	15.661222	-0.777211	-2.315246	-0.750838
0.740	5.806250	-3.359830	676.481336	-5.121435	15.841078	-0.764157	-2.341687	-0.757070
0.750	5.636319	-3.378150	676.607121	-5.132853	16.033834	-0.751709	-2.369741	-0.758616
0.760	5.433811	-3.366207	676.794266	-5.113682	16.230530	-0.740580	-2.398148	-0.755574
0.770	5.217406	-3.316736	677.003734	-5.065948	16.421889	-0.731525	-2.425672	-0.748290
0.780	5.002374	-3.225333	677.192247	-4.992535	16.600685	-0.725097	-2.451399	-0.737240
0.790	4.796882	-3.093113	677.325012	-4.896664	16.763208	-0.721458	-2.474914	-0.722942
0.800	4.602127	-2.927648	677.384458	-4.781646	16.909267	-0.720251	-2.496258	-0.705898
0.810	4.415832	-2.741813	677.372726	-4.650750	17.040739	-0.720527	-2.515711	-0.686587
0.820	4.237107	-2.551038	677.308273	-4.507107	17.159337	-0.720831	-2.533460	-0.665444
0.830	4.070130	-2.369982	677.219111	-4.353760	17.264574	-0.719510	-2.549334	-0.642888
0.840	3.924743	-2.209621	677.135125	-4.193911	17.352949	-0.715219	-2.562701	-0.619361
0.850	3.813644	-2.075425	677.080926	-4.031133	17.418853	-0.707403	-2.572640	-0.595369
0.860	3.747688	-1.966937	677.070336	-3.869195	17.456895	-0.696579	-2.578299	-0.571461
0.870	3.731766	-1.878579	677.103706	-3.711410	17.464543	-0.684302	-2.579301	-0.548130
0.880	3.763352	-1.801216	677.168916	-3.559737	17.443692	-0.672841	-2.575974	-0.525679
0.890	3.834250	-1.723869	677.246134	-3.413894	17.400296	-0.664662	-2.569272	-0.504085
0.900	3.934461	-1.635255	677.315404	-3.270717	17.342162	-0.661841	-2.560426	-0.482894
0.910	4.056233	-1.525136	677.364856	-3.124099	17.276024	-0.665550	-2.550475	-0.461214
0.920	4.196466	-1.385621	677.396151	-2.965910	17.205288	-0.675724	-2.539915	-0.437840
0.930	4.356395	-1.212337	677.423837	-2.788017	17.129351	-0.690982	-2.528602	-0.411562
0.940	4.538716	-1.005138	677.467372	-2.584899	17.044555	-0.708868	-2.515923	-0.381553
0.950	4.743722	-0.768103	677.538629	-2.355930	16.946311	-0.726417	-2.501158	-0.347719
0.960	4.966575	-0.509033	677.631401	-2.106400	16.831607	-0.740919	-2.483888	-0.310847
0.970	5.197064	-0.238875	677.719543	-1.846893	16.701055	-0.750682	-2.464302	-0.272516
0.980	5.421682	0.028820	677.766180	-1.591214	16.559745	-0.755534	-2.443283	-0.234773
0.990	5.626864	0.278719	677.740124	-1.353541	16.416581	-0.756867	-2.422253	-0.199714
1.000	5.802042	0.495228	677.631370	-1.145658	16.282374	-0.757164	-2.402837	-0.169068
1.010	5.941668	0.664757	677.457445	-0.975012	16.167274	-0.759165	-2.386463	-0.143922
1.020	6.045861	0.778454	677.256802	-0.843952	16.078221	-0.764955	-2.374021	-0.124613
1.030	6.119788	0.834731	677.072054	-0.750131	16.017110	-0.775356	-2.365643	-0.110790
1.040	6.172102	0.840705	676.930975	-0.687824	15.980261	-0.789792	-2.360693	-0.101609
1.050	6.212951	0.811633	676.834580	-0.649829	15.959455	-0.806615	-2.357955	-0.096010
1.060	6.252082	0.767944	676.758565	-0.629483	15.944269	-0.823684	-2.355976	-0.093014
1.070	6.297287	0.730306	676.668031	-0.622193	15.925039	-0.838969	-2.353449	-0.091950
1.080	6.353149	0.714061	676.538113	-0.625924	15.895654	-0.851056	-2.349558	-0.092519
1.090	6.419956	0.724942	676.369480	-0.640553	15.855441	-0.859421	-2.344198	-0.094705
1.100	6.492921	0.757863	676.190573	-0.666581	15.809558	-0.864419	-2.338033	-0.098579
1.110	6.562202	0.799382	676.046252	-0.703967	15.767698	-0.867018	-2.332340	-0.104130
1.120	6.614317	0.832861	675.979754	-0.751633	15.741453	-0.868463	-2.328687	-0.111192
1.130	6.635151	0.844314	676.017480	-0.807613	15.741243	-0.869997	-2.328526	-0.119466
1.140	6.613971	0.826840	676.163082	-0.869498	15.773888	-0.872691	-2.332853	-0.128593
1.150	6.547021	0.782321	676.400974	-0.934905	15.841675	-0.877317	-2.342054	-0.138218
1.160	6.438979	0.720060	676.704253	-1.002004	15.943000	-0.884230	-2.355977	-0.148071
1.170	6.301195	0.653045	677.041774	-1.070096	16.073913	-0.893267	-2.374139	-0.158055
1.180	6.147196	0.593138	677.382291	-1.140088	16.229644	-0.903702	-2.395936	-0.168308
1.190	5.987444	0.546777	677.696004	-1.214656	16.405611	-0.914328	-2.420792	-0.179233
1.200	5.825772	0.512657	677.954321	-1.297993	16.597955	-0.923766	-2.448241	-0.191457
1.210	5.659089	0.482065	678.129294	-1.395194	16.803841	-0.930947	-2.477970	-0.205742
1.220	5.480281	0.441494	678.195082	-1.511329	17.021587	-0.935558	-2.509836	-0.222846
1.230	5.282878	0.376357	678.132784	-1.650350	17.250513	-0.938149	-2.543825	-0.243367
1.240	5.065552	0.274751	677.937260	-1.814115	17.490307	-0.939809	-2.579930	-0.267593
1.250	4.834864	0.130683	677.622469	-2.001813	17.739988	-0.941585	-2.617975	-0.295417
1.260	4.605272	-0.053690	677.222151	-2.209949	17.996800	-0.943985	-2.657444	-0.326326
1.270	4.396059	-0.267506	676.784879	-2.432865	18.255548	-0.946858	-2.697393	-0.359474
1.280	4.225730	-0.493172	676.365477	-2.663640	18.508865	-0.949671	-2.736518	-0.393817
1.290	4.105656	-0.711009	676.016256	-2.895224	18.748500	-0.951988	-2.773380	-0.428277
1.300	4.035523	-0.905294	675.779999	-3.121565	18.967212	-0.953829	-2.806714	-0.461920
1.310	4.002862	-1.069265	675.684018	-3.338491	19.160439	-0.955736	-2.835710	-0.494091
1.320	3.987278	-1.206756	675.734010	-3.544107	19.327036	-0.958527	-2.860154	-0.524483
1.330	3.967657	-1.329583	675.908603	-3.738595	19.468875	-0.962903	-2.880401	-0.553121
1.340	3.929148	-1.451831	676.158448	-3.923512	19.589605	-0.969098	-2.897191	-0.580265
1.350	3.867209	-1.583549	676.414685	-4.100830	19.693190	-0.976765	-2.911408	-0.606260
1.360	3.787760	-1.726676	676.608142	-4.271931	19.782771	-0.985115	-2.923815	-0.631374
1.370	3.704056	-1.875024	676.693653	-4.436799	19.860162	-0.993211	-2.934882	-0.655658
1.380	3.631675	-2.018037	676.668848	-4.593753	19.925997	-1.000240	-2.944719	-0.678878
1.390	3.583314	-2.146068	676.577634	-4.740075	19.980413	-1.005661	-2.953159	-0.700596
1.400	3.565036	-2.254242	676.494925	-4.873442	20.023970	-1.009208	-2.959959	-0.720396
1.410	3.575055	-2.343136	676.497525	-4.993419	20.058443	-1.010798	-2.965043	-0.738128
1.420	3.605162	-2.416474	676.632878	-5.102024	20.086993	-1.010398	-2.968669	-0.754031
1.430	3.643830	-2.477559	676.899580	-5.202933	20.113585	-1.007947	-2.971428	-0.768642
1.440	3.679625	-2.526639	677.248643	-5.299792	20.141947	-1.003372	-2.974085	-0.782547
1.450	3.703604	-2.560684	677.604063	-5.394579	20.174786	-0.996669	-2.977371	-0.796126
1.460	3.710061	-2.575500	677.891904	-5.486768	20.213762	-0.987976	-2.981856	-0.809387
1.470	3.695850	-2.568784	678.064970	-5.573438	20.260195	-0.977563	-2.987943	-0.821962
1.480	3.659317	-2.542259	678.114781	-5.650113	20.315955	-0.965754	-2.995946	-0.833209
1.490	3.599894	-2.501695	678.068939	-5.711964	20.383964	-0.952825	-3.006179	-0.842387
1.500	3.518587	-2.454724	677.976643	-5.755083	20.468007	-0.938948	-3.018984	-0.848862
1.510	3.418524	-2.407626	677.887984	-5.777526	20.571951	-0.924266	-3.034712	-0.852283
1.520	3.304403	-2.363059	677.834163	-5.779799	20.698850	-0.909102	-3.053675	-0.852686
1.530	3.180355	-2.320170	677.815563	-5.764668	20.850572	-0.894186	-3.076142	-0.850477
1.540	3.046976	-2.276857	677.801994	-5.736448	21.028402	-0.880647	-3.102440	-0.846331
1.550	2.898963	-2.232475	677.744757	-5.700159	21.234412	-0.869658	-3.133099	-0.841048
1.560	2.724555	-2.189171	677.595468	-5.660873	21.472662	-0.861919	-3.168950	-0.835435
1.570	2.507240	-2.151228	677.324326	-5.623253	21.749072	-0.857319	-3.211028	-0.830216
1.580	2.229655	-2.123156	676.931679	-5.591017	22.069390	-0.855004	-3.260209	-0.825935
1.590	1.879296	-2.107843	676.450024	-5.566121	22.435730	-0.853790	-3.316687	-0.822843
1.600	1.454941	-2.105655	675.936649	-5.547934	22.843042	-0.852632	-3.379465	-0.820777
1.610	0.971666	-2.114504	675.459197	-5.532911	23.277208	-0.850934	-3.446131	-0.819133
1.620	0.461812	-2.130233	675.078323	-5.515177	23.715965	-0.848618	-3.513069	-0.816968
1.630	-0.029770	-2.146505	674.833623	-5.487989	24.132820	-0.846039	-3.576114	-0.813236
1.640	-0.455497	-2.154020	674.739075	-5.445734	24.502801	-0.843805	-3.631448	-0.807087
1.650	-0.776664	-2.140005	674.789821	-5.385971	24.807921	-0.842574	-3.676392	-0.798170
1.660	-0.972515	-2.089684	674.974764	-5.310849	25.040162	-0.842828	-3.709792	-0.786822
1.670	-1.043409	-1.990609	675.285394	-5.227267	25.200820	-0.844659	-3.731877	-0.774083
1.680	-1.007567	-1.838695	675.714741	-5.145410	25.296784	-0.847627	-3.743708	-0.761477
1.690	-0.893805	-1.643222	676.248213	-5.075965	25.335775	-0.850776	-3.746520	-0.750607
1.700	-0.733766	-1.428026	676.853773	-5.027015	25.322874	-0.852818	-3.741262	-0.742703
1.710	-0.556033	-1.227504	677.478758	-5.001963	25.259635	-0.852431	-3.728476	-0.738320
1.720	-0.382604	-1.078062	678.056235	-4.999352	25.145618	-0.848645	-3.708486	-0.737306
1.730	-0.227258	-1.007733	678.518420	-5.014422	24.981097	-0.841229	-3.681712	-0.739025
1.740	-0.095491	-1.027877	678.811361	-5.041430	24.769499	-0.830904	-3.648952	-0.742685
1.750	0.014107	-1.130214	678.905090	-5.075564	24.518483	-0.819230	-3.611474	-0.747610
1.760	0.107648	-1.290156	678.796580	-5.113788	24.239230	-0.808159	-3.570912	-0.753361
1.770	0.194106	-1.474551	678.507035	-5.154589	23.944135	-0.799491	-3.528944	-0.759696
1.780	0.284862	-1.650486	678.077280	-5.197073	23.643533	-0.794487	-3.486849	-0.766443
1.790	0.394432	-1.792156	677.563693	-5.240005	23.342509	-0.793782	-3.445065	-0.773360
1.800	0.540701	-1.884585	677.034013	-5.281242	23.039016	-0.797565	-3.402933	-0.780056
1.810	0.742665	-1.924417	676.560709	-5.317800	22.724277	-0.805880	-3.358794	-0.786005
1.820	1.015212	-1.918536	676.210849	-5.346445	22.385629	-0.818836	-3.310451	-0.790648
1.830	1.363029	-1.881195	676.034119	-5.364461	22.010872	-0.836578	-3.255882	-0.793519
1.840	1.776912	-1.830322	676.052589	-5.370158	21.592446	-0.859014	-3.193900	-0.794340
1.850	2.234707	-1.783752	676.255680	-5.363037	21.129858	-0.885451	-3.124537	-0.793049
1.860	2.706569	-1.755963	676.601870	-5.343878	20.629739	-0.914340	-3.049022	-0.789811
1.870	3.162310	-1.755642	677.026424	-5.315006	20.104039	-0.943296	-2.969461	-0.785051
1.880	3.578211	-1.784445	677.453265	-5.280668	19.567421	-0.969404	-2.888379	-0.779488
1.890	3.941584	-1.837361	677.809024	-5.247036	19.034759	-0.989729	-2.808278	-0.774117
1.900	4.252581	-1.904833	678.036904	-5.221409	18.519070	-1.001855	-2.731278	-0.770077
1.910	4.523399	-1.976102	678.106687	-5.210587	18.029854	-1.004280	-2.658852	-0.768402
1.920	4.775088	-2.042531	678.017257	-5.218921	17.571840	-0.996582	-2.591651	-0.769733
1.930	5.032189	-2.099509	677.791147	-5.246844	17.144411	-0.979345	-2.529453	-0.774109
1.940	5.315982	-2.146253	677.465146	-5.290384	16.742024	-0.953990	-2.471275	-0.780909
1.950	5.637970	-2.184017	677.082902	-5.341767	16.355778	-0.922598	-2.415624	-0.788938
1.960	5.995685	-2.213994	676.692602	-5.390890	15.975787	-0.887762	-2.360863	-0.796653
1.970	6.372514	-2.235990	676.347631	-5.427398	15.593644	-0.852417	-2.305566	-0.802457
1.980	6.741903	-2.248237	676.105003	-5.442883	15.204145	-0.819568	-2.248785	-0.805035
1.990	7.074678	-2.248057	676.017958	-5.432482	14.805847	-0.791947	-2.190156	-0.803600
2.000	7.347039	-2.232787	676.123501	-5.395187	14.400546	-0.771595	-2.129869	-0.797959
2.010	7.546670	-2.200353	676.429067	-5.332732	13.992175	-0.759472	-2.068535	-0.788365
2.020	7.675223	-2.149225	676.903634	-5.247715	13.585669	-0.755226	-2.007032	-0.775253
2.030	7.746878	-2.077961	677.478085	-5.142010	13.186193	-0.757299	-1.946365	-0.758993
2.040	7.783836	-1.984852	678.057331	-5.016391	12.798805	-0.763335	-1.887570	-0.739818
2.050	7.810179	-1.868075	678.542183	-4.871506	12.428397	-0.770746	-1.831632	-0.717937
2.060	7.845684	-1.726502	678.854079	-4.709577	12.079652	-0.777207	-1.779418	-0.693754
2.070	7.901233	-1.561082	678.953436	-4.535768	11.756854	-0.780987	-1.731614	-0.668053
2.080	7.977200	-1.376490	678.845021	-4.358529	11.463572	-0.781129	-1.688688	-0.642051
2.090	8.065265	-1.182479	678.570053	-4.188718	11.202403	-0.777462	-1.650884	-0.617286
2.100	8.152639	-0.994127	678.190521	-4.037774	10.974973	-0.770452	-1.618273	-0.595375
2.110	8.226775	-0.830232	677.773028	-3.915295	10.782098	-0.760872	-1.590813	-0.577671
2.120	8.278860	-0.709548	677.377488	-3.826645	10.623809	-0.749422	-1.568374	-0.564921
2.130	8.305532	-0.645552	677.052207	-3.771416	10.498973	-0.736487	-1.550689	-0.557035
2.140	8.309026	-0.641469	676.833040	-3.743472	10.404617	-0.722147	-1.537250	-0.553087
2.150	8.296210	-0.687705	676.742158	-3.732611	10.335399	-0.706408	-1.527229	-0.551556
2.160	8.276720	-0.763143	676.783944	-3.727096	10.283802	-0.689449	-1.519510	-0.550707
2.170	8.260422	-0.840268	676.940398	-3.716062	10.241331	-0.671750	-1.512885	-0.548950
2.180	8.254781	-0.892583	677.171709	-3.691202	10.200423	-0.654071	-1.506327	-0.545091
2.190	8.263260	-0.901753	677.425724	-3.647673	10.156212	-0.637376	-1.499236	-0.538461
2.200	8.285712	-0.861754	677.654261	-3.584387	10.107309	-0.622763	-1.491514	-0.528940
2.210	8.320463	-0.778367	677.828851	-3.503811	10.055228	-0.611370	-1.483446	-0.516917
2.220	8.366380	-0.664682	677.947349	-3.411347	10.002838	-0.604182	-1.475459	-0.503188
2.230	8.423097	-0.535398	678.027293	-3.314386	9.952654	-0.601753	-1.467884	-0.488828
2.240	8.488962	-0.403020	678.089948	-3.221206	9.905904	-0.603950	-1.460854	-0.475041
2.250	8.558028	-0.277379	678.144595	-3.139985	9.862896	-0.609867	-1.454394	-0.463026
2.260	8.618297	-0.167721	678.181585	-3.078137	9.824544	-0.617976	-1.448660	-0.453881
2.270	8.652868	-0.085158	678.176869	-3.041905	9.794194	-0.626481	-1.444195	-0.448542
2.280	8.644048	-0.043098	678.104992	-3.035963	9.778637	-0.633751	-1.442054	-0.447713
2.290	8.578678	-0.054493	677.954325	-3.062918	9.787679	-0.638709	-1.443708	-0.451788
2.300	8.452214	-0.127015	677.737558	-3.122945	9.832347	-0.641062	-1.450760	-0.460790
2.310	8.269670	-0.259082	677.492321	-3.213791	9.922494	-0.641295	-1.464591	-0.474366
2.320	8.043114	-0.439247	677.271089	-3.331204	10.064796	-0.640407	-1.486081	-0.491857
