Time[s]	Fx[N]	Fy[N]	Fz[N]	Mx[Nm]	My[Nm]	Mz[Nm]	COPx[cm]	COPy[cm]
0.010	4.038724	0.314269	594.861727	-17.500642	0.648317	-0.409255	-0.108986	-2.941968
0.020	3.452993	0.187992	594.393810	-17.427089	0.983193	-0.456592	-0.165411	-2.931910
0.030	2.951805	0.079755	593.875792	-17.358498	1.301246	-0.496731	-0.219111	-2.922917
0.040	2.596744	0.007145	593.264068	-17.297385	1.589870	-0.524492	-0.267987	-2.915630
0.050	2.411019	-0.014280	592.530309	-17.242171	1.843612	-0.538028	-0.311142	-2.909922
0.060	2.377445	0.025933	591.668754	-17.187010	2.063598	-0.539017	-0.348776	-2.904837
0.070	2.449584	0.129907	590.703523	-17.123081	2.254547	-0.531746	-0.381672	-2.898761
0.080	2.571078	0.289706	589.693365	-17.041005	2.421204	-0.521499	-0.410587	-2.889808
0.090	2.695170	0.487986	588.729730	-16.933775	2.565850	-0.512833	-0.435828	-2.876324
0.100	2.796963	0.700819	587.924848	-16.799357	2.687699	-0.508286	-0.457150	-2.857399
0.110	2.874555	0.901791	587.389901	-16.642037	2.783897	-0.507885	-0.473944	-2.833218
0.120	2.940254	1.066531	587.208395	-16.471771	2.851241	-0.509520	-0.485559	-2.805098
0.130	3.007336	1.177087	587.414102	-16.301534	2.887606	-0.509918	-0.491579	-2.775135
0.140	3.079549	1.225425	587.982503	-16.143467	2.892431	-0.505766	-0.491925	-2.745569
0.150	3.148765	1.215035	588.838249	-16.005317	2.866169	-0.494642	-0.486750	-2.718118
0.160	3.201604	1.159847	589.873209	-15.888613	2.809186	-0.475603	-0.476236	-2.693564
0.170	3.230788	1.080553	590.966074	-15.789226	2.720966	-0.449418	-0.460427	-2.671765
0.180	3.244211	0.999358	591.996722	-15.699759	2.600321	-0.418441	-0.439246	-2.652001
0.190	3.266057	0.934626	592.853910	-15.612512	2.446686	-0.386106	-0.412696	-2.633450
0.200	3.328945	0.896727	593.439611	-15.521866	2.261887	-0.356082	-0.381149	-2.615576
0.210	3.461098	0.886024	593.675145	-15.425489	2.051378	-0.331254	-0.345539	-2.598305
0.220	3.674962	0.893573	593.511779	-15.324288	1.824030	-0.312810	-0.307328	-2.581969
0.230	3.962508	0.904286	592.942982	-15.221402	1.590300	-0.299802	-0.268204	-2.567094
0.240	4.298691	0.901313	592.010892	-15.120842	1.359537	-0.289493	-0.229647	-2.554149
0.250	4.650616	0.870085	590.799895	-15.026370	1.137923	-0.278503	-0.192607	-2.543394
0.260	4.987655	0.801279	589.416261	-14.940864	0.928268	-0.264376	-0.157489	-2.534858
0.270	5.288038	0.692925	587.960962	-14.866065	0.731875	-0.246870	-0.124477	-2.528410
0.280	5.539784	0.551829	586.507372	-14.802538	0.551459	-0.228305	-0.094024	-2.523845
0.290	5.736666	0.393754	585.092839	-14.749790	0.393495	-0.212783	-0.067253	-2.520931
0.300	5.872078	0.241462	583.725497	-14.706516	0.268823	-0.204677	-0.046053	-2.519423
0.310	5.934354	0.120323	582.401153	-14.670914	0.191293	-0.207097	-0.032846	-2.519039
0.320	5.906235	0.052512	581.123454	-14.640906	0.175060	-0.220924	-0.030124	-2.519414
0.330	5.769167	0.051744	579.922510	-14.614247	0.231392	-0.244630	-0.039901	-2.520034
0.340	5.511037	0.120543	578.868565	-14.588602	0.365549	-0.274808	-0.063149	-2.520192
0.350	5.134692	0.251009	578.076336	-14.561732	0.574289	-0.307139	-0.099345	-2.518998
0.360	4.663927	0.428531	577.694270	-14.531797	0.844752	-0.337461	-0.146228	-2.515482
0.370	4.143492	0.636700	577.875527	-14.497598	1.155607	-0.362588	-0.199975	-2.508775
0.380	3.630899	0.861249	578.735747	-14.458480	1.480760	-0.380676	-0.255861	-2.498287
0.390	3.181314	1.091566	580.311717	-14.413755	1.794727	-0.391189	-0.309269	-2.483795
0.400	2.831215	1.319701	582.537767	-14.361871	2.077686	-0.394632	-0.356661	-2.465397
0.410	2.588479	1.538092	585.250421	-14.299862	2.318223	-0.392243	-0.396108	-2.443375
0.420	2.433924	1.737674	588.220190	-14.223589	2.512899	-0.385725	-0.427204	-2.418072
0.430	2.333449	1.907450	591.198265	-14.128783	2.663356	-0.377024	-0.450501	-2.389855
0.440	2.254804	2.035641	593.960407	-14.012427	2.772607	-0.368150	-0.466800	-2.359152
0.450	2.181331	2.111731	596.333174	-13.873877	2.842222	-0.360987	-0.476617	-2.326531
0.460	2.117294	2.128439	598.197334	-13.715352	2.871419	-0.357067	-0.480012	-2.292780
0.470	2.083740	2.083027	599.474206	-13.541688	2.858150	-0.357280	-0.476776	-2.258928
0.480	2.107835	1.977931	600.107576	-13.359455	2.801426	-0.361601	-0.466821	-2.226177
0.490	2.210585	1.821108	600.054061	-13.175607	2.703687	-0.368995	-0.450574	-2.195737
0.500	2.397634	1.626404	599.288583	-12.995976	2.572071	-0.377584	-0.429187	-2.168567
0.510	2.656145	1.413708	597.822262	-12.823980	2.417905	-0.385105	-0.404452	-2.145116
0.520	2.958393	1.208158	595.723067	-12.659956	2.254550	-0.389513	-0.378456	-2.125141
0.530	3.270335	1.037481	593.128603	-12.501440	2.094413	-0.389555	-0.353113	-2.107711
0.540	3.561696	0.927149	590.244434	-12.344461	1.946198	-0.385097	-0.329727	-2.091415
0.550	3.813863	0.894188	587.326274	-12.185558	1.813227	-0.377113	-0.308726	-2.074751
0.560	4.023011	0.941824	584.647750	-12.023799	1.693280	-0.367359	-0.289624	-2.056589
0.570	4.197742	1.057597	582.458428	-11.861928	1.580030	-0.357862	-0.271269	-2.036528
0.580	4.352328	1.216546	580.940536	-11.705983	1.465802	-0.350371	-0.252315	-2.015005
0.590	4.498139	1.388592	580.175507	-11.563295	1.344863	-0.345945	-0.231803	-1.993068
0.600	4.636681	1.547078	580.130373	-11.439535	1.216107	-0.344849	-0.209626	-1.971890
0.610	4.757269	1.674959	580.669299	-11.336012	1.084186	-0.346801	-0.186713	-1.952232
0.620	4.840401	1.766680	581.588395	-11.248491	0.958875	-0.351462	-0.164872	-1.934098
0.630	4.865009	1.825852	582.664118	-11.168239	0.853083	-0.358900	-0.146411	-1.916754
0.640	4.815793	1.860341	583.700070	-11.085045	0.780235	-0.369763	-0.133671	-1.899100
0.650	4.687289	1.877204	584.558243	-10.990967	0.751724	-0.385032	-0.128597	-1.880218
0.660	4.483706	1.879789	585.168887	-10.883106	0.774997	-0.405392	-0.132440	-1.859823
0.670	4.215946	1.868242	585.523049	-10.764187	0.852474	-0.430498	-0.145592	-1.838388
0.680	3.898175	1.842915	585.657278	-10.640782	0.981144	-0.458506	-0.167529	-1.816896
0.690	3.545876	1.808709	585.639108	-10.520030	1.152566	-0.486132	-0.196805	-1.796333
0.700	3.176106	1.777913	585.557040	-10.406308	1.353300	-0.509286	-0.231113	-1.777164
0.710	2.809100	1.769570	585.513266	-10.299234	1.566092	-0.524060	-0.267473	-1.759010
0.720	2.469100	1.804660	585.614119	-10.193864	1.772071	-0.527721	-0.302600	-1.740714
0.730	2.182309	1.898162	585.954206	-10.082878	1.953709	-0.519377	-0.333423	-1.720762
0.740	1.971518	2.050802	586.595278	-9.959695	2.097752	-0.500135	-0.357615	-1.697882
0.750	1.849243	2.244289	587.546984	-9.821111	2.197108	-0.472803	-0.373946	-1.671545
0.760	1.812658	2.442979	588.758696	-9.668457	2.251015	-0.441282	-0.382332	-1.642176
0.770	1.843224	2.602513	590.127457	-9.507064	2.263480	-0.409799	-0.383558	-1.611019
0.780	1.911967	2.682802	591.519533	-9.344427	2.240691	-0.382123	-0.378802	-1.579733
0.790	1.988833	2.660594	592.797522	-9.187779	2.188493	-0.360880	-0.369181	-1.549902
0.800	2.052501	2.536847	593.844251	-9.041712	2.110898	-0.347182	-0.355463	-1.522573
0.810	2.096508	2.336364	594.578272	-8.906513	2.009840	-0.340744	-0.338028	-1.497955
0.820	2.129156	2.100282	594.960487	-8.777737	1.885676	-0.340459	-0.316941	-1.475348
0.830	2.168015	1.874645	594.994588	-8.647302	1.737603	-0.345091	-0.292037	-1.453341
0.840	2.232671	1.699367	594.724340	-8.505805	1.563556	-0.353602	-0.262904	-1.430210
0.850	2.339662	1.600959	594.228764	-8.345253	1.359853	-0.364869	-0.228843	-1.404384
0.860	2.501178	1.590162	593.613196	-8.161239	1.121267	-0.377055	-0.188888	-1.374841
0.870	2.726015	1.663504	592.992937	-7.953802	0.842070	-0.387239	-0.142003	-1.341298
0.880	3.019925	1.806920	592.469099	-7.726663	0.517968	-0.391795	-0.087425	-1.304146
0.890	3.383446	1.999959	592.102553	-7.485173	0.148227	-0.387509	-0.025034	-1.264168
0.900	3.807741	2.219897	591.896583	-7.233838	-0.262938	-0.372937	0.044423	-1.222146
0.910	4.271439	2.445610	591.797464	-6.974586	-0.706495	-0.349292	0.119381	-1.178543
0.920	4.742269	2.661086	591.714490	-6.706540	-1.170303	-0.320401	0.197782	-1.133408
0.930	5.185015	2.857882	591.551419	-6.427273	-1.641772	-0.291675	0.277537	-1.086511
0.940	5.573038	3.035574	591.235704	-6.134889	-2.110397	-0.268529	0.356947	-1.037638
0.950	5.897435	3.199604	590.733545	-5.829912	-2.569206	-0.254903	0.434918	-0.986894
0.960	6.168717	3.357206	590.047162	-5.516140	-3.014708	-0.252431	0.510927	-0.934864
0.970	6.410039	3.513348	589.200895	-5.200060	-3.445702	-0.260489	0.584809	-0.882561
0.980	6.645729	3.668780	588.228174	-4.889119	-3.861862	-0.276857	0.656524	-0.831160
0.990	6.891113	3.820898	587.168053	-4.589613	-4.262931	-0.298576	0.726016	-0.781652
1.000	7.148335	3.966331	586.070575	-4.305046	-4.648740	-0.322677	0.793205	-0.734561
1.010	7.409072	4.103522	585.002615	-4.035513	-5.019612	-0.346677	0.858050	-0.689828
1.020	7.661390	4.234138	584.046102	-3.778205	-5.376552	-0.368917	0.920570	-0.646902
1.030	7.896591	4.363066	583.287385	-3.528686	-5.720899	-0.388720	0.980803	-0.604965
1.040	8.113013	4.497340	582.802931	-3.282403	-6.053667	-0.406355	1.038716	-0.563210
1.050	8.315817	4.644541	582.647116	-3.035977	-6.375003	-0.422742	1.094145	-0.521066
1.060	8.513630	4.811238	582.844223	-2.787924	-6.684169	-0.438955	1.146819	-0.478331
1.070	8.714030	5.001793	583.384245	-2.538669	-6.980058	-0.455688	1.196477	-0.435162
1.080	8.920204	5.217669	584.222556	-2.289895	-7.261959	-0.472890	1.243012	-0.391956
1.090	9.130372	5.457222	585.284191	-2.043628	-7.530093	-0.489769	1.286570	-0.349169
1.100	9.339778	5.715848	586.472351	-1.801554	-7.785649	-0.505184	1.327539	-0.307185
1.110	9.543491	5.986389	587.679194	-1.564994	-8.030425	-0.518279	1.366464	-0.266301
1.120	9.738150	6.259797	588.797070	-1.335601	-8.266377	-0.529023	1.403943	-0.226836
1.130	9.922202	6.526058	589.729645	-1.116441	-8.495423	-0.538342	1.440562	-0.189314
1.140	10.095467	6.775105	590.403240	-0.912891	-8.719572	-0.547714	1.476884	-0.154622
1.150	10.259129	6.996981	590.777671	-0.732786	-8.941218	-0.558476	1.513466	-0.124038
1.160	10.416396	7.180671	590.853628	-0.585517	-9.163283	-0.571203	1.550855	-0.099097
1.170	10.573162	7.312178	590.672376	-0.480064	-9.388983	-0.585477	1.589542	-0.081274
1.180	10.737718	7.373873	590.304997	-0.422407	-9.621128	-0.600052	1.629857	-0.071557
1.190	10.918987	7.347285	589.831837	-0.413145	-9.861036	-0.613321	1.671839	-0.070045
1.200	11.123640	7.219678	589.316589	-0.446457	-10.107180	-0.623932	1.715068	-0.075758
1.210	11.353066	6.991864	588.782051	-0.511118	-10.353865	-0.631396	1.758522	-0.086809
1.220	11.601124	6.683070	588.195620	-0.593399	-10.590365	-0.636456	1.800483	-0.100885
1.230	11.853137	6.329600	587.471121	-0.680714	-10.800923	-0.640998	1.838545	-0.115872
1.240	12.086332	5.976945	586.489155	-0.764631	-10.965800	-0.647450	1.869736	-0.130374
1.250	12.271953	5.668188	585.132439	-0.842237	-11.063336	-0.657918	1.890741	-0.143940
1.260	12.379179	5.433310	583.328582	-0.915693	-11.072892	-0.673433	1.898226	-0.156977
1.270	12.380625	5.283765	581.091203	-0.990457	-10.978425	-0.693622	1.889278	-0.170448
1.280	12.258602	5.214125	578.549317	-1.073042	-10.772232	-0.716829	1.861938	-0.185471
1.290	12.010769	5.208874	575.953541	-1.169133	-10.457893	-0.740580	1.815753	-0.202991
1.300	11.653345	5.249886	573.648981	-1.282668	-10.051019	-0.762201	1.752120	-0.223598
1.310	11.219674	5.320589	572.012192	-1.415958	-9.576607	-0.779390	1.674196	-0.247540
1.320	10.752419	5.405908	571.363343	-1.570458	-9.063053	-0.790581	1.586215	-0.274862
1.330	10.289936	5.490314	571.878774	-1.747540	-8.534540	-0.795024	1.492369	-0.305579
1.340	9.851133	5.557206	573.534869	-1.948707	-8.004599	-0.792664	1.395660	-0.339771
1.350	9.425609	5.591087	576.105624	-2.174940	-7.473265	-0.783999	1.297204	-0.377525
1.360	8.974714	5.581239	579.217050	-2.425225	-6.928884	-0.770074	1.196250	-0.418707
1.370	8.444587	5.524252	582.441990	-2.694804	-6.353908	-0.752525	1.090908	-0.462673
1.380	7.787070	5.423457	585.407269	-2.974138	-5.732782	-0.733437	0.979281	-0.508046
1.390	6.981224	5.285347	587.882863	-3.249497	-5.059415	-0.714851	0.860616	-0.552746
1.400	6.047959	5.114977	589.827915	-3.505265	-4.341948	-0.697993	0.736138	-0.594286
1.410	5.052356	4.913165	591.379728	-3.727049	-3.603310	-0.682596	0.609306	-0.630229
1.420	4.091616	4.677554	592.788155	-3.904222	-2.877378	-0.666729	0.485397	-0.658620
1.430	3.270971	4.407552	594.315378	-4.031010	-2.201946	-0.647320	0.370501	-0.678261
1.440	2.674665	4.110942	596.133828	-4.105972	-1.610675	-0.621247	0.270187	-0.688767
1.450	2.342274	3.808681	598.256594	-4.130490	-1.126372	-0.586598	0.188276	-0.690421
1.460	2.259408	3.534931	600.523363	-4.107122	-0.757315	-0.543593	0.126109	-0.683924
1.470	2.366008	3.331281	602.644603	-4.038586	-0.497335	-0.494813	0.082526	-0.670144
1.480	2.578202	3.236528	604.285631	-3.927779	-0.329262	-0.444630	0.054488	-0.649987
1.490	2.814786	3.275278	605.158807	-3.778745	-0.230483	-0.398048	0.038086	-0.624422
1.500	3.018559	3.449152	605.092317	-3.598030	-0.178812	-0.359406	0.029551	-0.594625
1.510	3.165842	3.733561	604.057086	-3.395702	-0.156938	-0.331382	0.025981	-0.562149
1.520	3.262890	4.081263	602.152280	-3.185398	-0.154463	-0.314620	0.025652	-0.529002
1.530	3.333393	4.431894	599.564748	-2.983193	-0.167529	-0.307948	0.027942	-0.497560
1.540	3.404096	4.725054	596.522698	-2.805611	-0.196771	-0.309001	0.032986	-0.470328
1.550	3.494607	4.913691	593.258873	-2.667308	-0.244587	-0.314934	0.041228	-0.449603
1.560	3.613574	4.974466	589.988068	-2.578945	-0.312548	-0.323058	0.052975	-0.437118
1.570	3.759495	4.912335	586.894922	-2.545688	-0.399395	-0.331340	0.068052	-0.433755
1.580	3.922857	4.757906	584.125866	-2.566793	-0.499883	-0.338785	0.085578	-0.439425
1.590	4.087631	4.558109	581.783734	-2.636621	-0.604704	-0.345585	0.103940	-0.453196
1.600	4.232754	4.362721	579.928532	-2.746974	-0.701651	-0.352909	0.120989	-0.473675
1.610	4.335586	4.210336	578.587084	-2.890066	-0.777896	-0.362289	0.134447	-0.499504
1.620	4.378122	4.117503	577.768479	-3.061135	-0.822855	-0.374869	0.142420	-0.529820
1.630	4.353997	4.074084	577.477637	-3.259903	-0.830840	-0.390841	0.143874	-0.564507
1.640	4.272585	4.046408	577.719954	-3.490536	-0.802642	-0.409292	0.138933	-0.604192
1.650	4.157512	3.987511	578.494966	-3.760146	-0.745406	-0.428505	0.128853	-0.649988
1.660	4.039956	3.851295	579.782624	-4.076284	-0.670618	-0.446561	0.115667	-0.703071
1.670	3.949565	3.605950	581.528801	-4.444226	-0.590805	-0.461999	0.101595	-0.764232
1.680	3.906331	3.242308	583.635742	-4.864961	-0.516022	-0.474235	0.088415	-0.833561
1.690	3.915558	2.774742	585.959784	-5.334450	-0.451252	-0.483576	0.077011	-0.910378
1.700	3.966750	2.235071	588.316421	-5.844170	-0.395385	-0.490900	0.067206	-0.993372
1.710	4.036252	1.662454	590.493534	-6.382549	-0.341897	-0.497177	0.057900	-1.080884
1.720	4.092984	1.093431	592.274571	-6.936796	-0.280961	-0.502992	0.047438	-1.171213
1.730	4.106147	0.555693	593.471048	-7.494545	-0.202324	-0.508178	0.034092	-1.262832
1.740	4.053405	0.067122	593.958073	-8.044725	-0.098030	-0.511641	0.016504	-1.354426
1.750	3.927564	-0.361008	593.702104	-8.577232	0.035829	-0.511485	-0.006035	-1.444703
1.760	3.739635	-0.719491	592.770789	-9.081663	0.198699	-0.505495	-0.033520	-1.532070
1.770	3.516858	-0.998181	591.320854	-9.546176	0.386209	-0.491883	-0.065313	-1.614382
1.780	3.295908	-1.186071	589.568279	-9.957725	0.591270	-0.470030	-0.100289	-1.688986
1.790	3.113487	-1.274238	587.750916	-10.304108	0.805193	-0.440881	-0.136996	-1.753142
1.800	2.997696	-1.259945	586.094326	-10.576987	1.018671	-0.406830	-0.173807	-1.804656
1.810	2.963130	-1.149704	584.787290	-10.774293	1.222676	-0.371162	-0.209081	-1.842429
1.820	3.010561	-0.959779	583.967175	-10.900688	1.409290	-0.337326	-0.241330	-1.866661
1.830	3.129594	-0.713889	583.711631	-10.965871	1.572394	-0.308312	-0.269379	-1.878645
1.840	3.301689	-0.439032	584.034109	-10.981741	1.708246	-0.286216	-0.292491	-1.880325
1.850	3.502033	-0.160957	584.884171	-10.959792	1.815979	-0.271966	-0.310485	-1.873840
1.860	3.700785	0.099143	586.155084	-10.909575	1.897858	-0.265152	-0.323781	-1.861210
1.870	3.865273	0.325696	587.699257	-10.838213	1.958987	-0.264053	-0.333332	-1.844177
1.880	3.964118	0.507696	589.349378	-10.750550	2.006159	-0.266014	-0.340402	-1.824139
1.890	3.972923	0.636744	590.941964	-10.649610	2.045868	-0.268181	-0.346205	-1.802141
1.900	3.880115	0.705857	592.339742	-10.537245	2.082002	-0.268365	-0.351488	-1.778919
1.910	3.691313	0.710134	593.448541	-10.414876	2.114078	-0.265653	-0.356236	-1.754975
1.920	3.430774	0.649211	594.224162	-10.284149	2.136914	-0.260558	-0.359614	-1.730685
1.930	3.138747	0.530146	594.666782	-10.147284	2.142065	-0.254688	-0.360213	-1.706381
1.940	2.864234	0.368740	594.804812	-10.007031	2.120541	-0.250159	-0.356510	-1.682406
1.950	2.654129	0.187939	594.674951	-9.866351	2.065582	-0.248946	-0.347346	-1.659117
1.960	2.541632	0.013555	594.307991	-9.728112	1.974250	-0.252316	-0.332193	-1.636881
1.970	2.538345	-0.130977	593.727904	-9.595057	1.847232	-0.260429	-0.311124	-1.616070
1.980	2.633888	-0.228891	592.964084	-9.470137	1.687174	-0.272217	-0.284532	-1.597084
1.990	2.803694	-0.272523	592.067278	-9.356945	1.496642	-0.285635	-0.252782	-1.580385
2.000	3.021197	-0.264009	591.115586	-9.259853	1.276909	-0.298267	-0.216017	-1.566505
2.010	3.267898	-0.214542	590.201762	-9.183468	1.028418	-0.308174	-0.174249	-1.555988
2.020	3.535866	-0.142103	589.404008	-9.131347	0.752844	-0.314717	-0.127730	-1.549251
2.030	3.821792	-0.067480	588.753000	-9.104307	0.455881	-0.319018	-0.077432	-1.546371
2.040	4.116990	-0.008817	588.212214	-9.099079	0.149323	-0.323756	-0.025386	-1.546904
2.050	4.400384	0.024110	587.684320	-9.107959	-0.148804	-0.332223	0.025320	-1.549805
2.060	4.639662	0.033730	587.045028	-9.119807	-0.416684	-0.346963	0.070980	-1.553511
2.070	4.800713	0.034486	586.192585	-9.122197	-0.633288	-0.368636	0.108034	-1.556177
2.080	4.860468	0.047921	585.092769	-9.104234	-0.783678	-0.395674	0.133941	-1.556032
2.090	4.816419	0.094618	583.800297	-9.059294	-0.862981	-0.424907	0.147821	-1.551780
2.100	4.688271	0.186203	582.447447	-8.986860	-0.877271	-0.452834	0.150618	-1.542948
2.110	4.511139	0.320634	581.204608	-8.892703	-0.840735	-0.476898	0.144654	-1.530047
2.120	4.322974	0.482572	580.229067	-8.787033	-0.770102	-0.496192	0.132724	-1.514408
2.130	4.150699	0.648655	579.622653	-8.680844	-0.678548	-0.511393	0.117067	-1.497672
2.140	4.000034	0.796033	579.414113	-8.581430	-0.571539	-0.524072	0.098641	-1.481053
2.150	3.853270	0.911559	579.570838	-8.488599	-0.446241	-0.535755	0.076995	-1.464635
2.160	3.676619	0.998817	580.031855	-8.393146	-0.294626	-0.547112	0.050795	-1.447015
2.170	3.434958	1.080415	580.745135	-8.278460	-0.108877	-0.557623	0.018748	-1.425489
2.180	3.108390	1.194003	581.691450	-8.124942	0.113223	-0.565831	-0.019464	-1.396779
2.190	2.703866	1.382208	582.885106	-7.915787	0.365152	-0.570045	-0.062646	-1.358036
2.200	2.256687	1.678842	584.354225	-7.642187	0.631970	-0.569075	-0.108148	-1.307800
2.210	1.820852	2.095490	586.112499	-7.306405	0.893712	-0.562585	-0.152481	-1.246587
2.220	1.452144	2.613007	588.135713	-6.922045	1.130213	-0.550965	-0.192169	-1.176947
2.230	1.191106	3.181236	590.351007	-6.511657	1.325303	-0.534933	-0.224494	-1.103014
2.240	1.052828	3.727978	592.639825	-6.102420	1.468988	-0.515182	-0.247872	-1.029701
2.250	1.026983	4.175437	594.851015	-5.721025	1.557403	-0.492280	-0.261814	-0.961758
2.260	1.086716	4.459758	596.819388	-5.388908	1.591273	-0.466756	-0.266626	-0.902938
2.270	1.201423	4.547757	598.386086	-5.118832	1.573957	-0.439255	-0.263034	-0.855440
2.280	1.347608	4.445372	599.418734	-4.913501	1.509905	-0.410704	-0.251895	-0.819711
2.290	1.513826	4.195006	599.830132	-4.766501	1.403801	-0.382421	-0.234033	-0.794642
2.300	1.698840	3.862691	599.593592	-4.665319	1.260144	-0.356111	-0.210166	-0.778080
2.310	1.905290	3.519428	598.751876	-4.595550	1.082809	-0.333625	-0.180844	-0.767522
2.320	2.133074	3.223068	597.415882	-4.544948	0.874410	-0.316485	-0.146365	-0.760768
2.330	2.376441	3.006804	595.749890	-4.505964	0.635679	-0.305353	-0.106702	-0.756352
2.340	2.626324	2.877411	593.943420	-4.475943	0.365389	-0.299758	-0.061519	-0.753598
2.350	2.876106	2.822130	592.174940	-4.455188	0.061333	-0.298286	-0.010357	-0.752343
