Time[s]	Fx[N]	Fy[N]	Fz[N]	Mx[Nm]	My[Nm]	Mz[Nm]	COPx[cm]	COPy[cm]
0.010	4.777446	-12.402475	679.162060	-16.237825	-10.479438	0.535189	1.542995	-2.390862
0.020	4.456315	-11.597316	684.603259	-16.045649	-10.406154	0.526826	1.520027	-2.343788
0.030	4.241135	-10.755298	689.942010	-15.834942	-10.376367	0.533641	1.503948	-2.295112
0.040	4.192584	-9.875192	694.996084	-15.594748	-10.419436	0.566853	1.499208	-2.243861
0.050	4.316388	-9.006240	699.474187	-15.322487	-10.543678	0.630539	1.507372	-2.190572
0.060	4.563676	-8.243081	702.990681	-15.024206	-10.734133	0.721874	1.526924	-2.137184
0.070	4.851708	-7.698688	705.138383	-14.711031	-10.957186	0.833434	1.553906	-2.086262
0.080	5.098902	-7.465582	705.604474	-14.392828	-11.171058	0.956047	1.583190	-2.039787
0.090	5.263747	-7.579900	704.292002	-14.071139	-11.339479	1.080728	1.610054	-1.997913
0.100	5.373629	-8.001346	701.396857	-13.733999	-11.444229	1.199059	1.631634	-1.958092
0.110	5.528739	-8.615993	697.398045	-13.355038	-11.491511	1.302390	1.647769	-1.914981
0.120	5.872136	-9.261027	692.948824	-12.898313	-11.508624	1.380956	1.660819	-1.861366
0.130	6.531010	-9.763801	688.697684	-12.328553	-11.531245	1.424113	1.674355	-1.790126
0.140	7.550503	-9.983910	685.102515	-11.624351	-11.586138	1.422319	1.691154	-1.696732
0.150	8.849871	-9.846608	682.310356	-10.790031	-11.676717	1.370505	1.711350	-1.581396
0.160	10.224507	-9.358182	680.150462	-9.861547	-11.777831	1.271404	1.731651	-1.449907
0.170	11.398032	-8.598582	678.240818	-8.903285	-11.841831	1.136905	1.745963	-1.312703
0.180	12.105885	-7.693646	676.162167	-7.995709	-11.812811	0.986153	1.747038	-1.182513
0.190	12.177461	-6.776891	673.631117	-7.217061	-11.642685	0.840673	1.728347	-1.071367
0.200	11.585146	-5.955029	670.611733	-6.624632	-11.302964	0.718332	1.685471	-0.987849
0.210	10.444470	-5.289089	667.334663	-6.241427	-10.788960	0.628464	1.616724	-0.935277
0.220	8.970710	-4.795194	664.228883	-6.052224	-10.116846	0.569876	1.523096	-0.911166
0.230	7.412869	-4.459782	661.799444	-6.009682	-9.316481	0.532283	1.407750	-0.908082
0.240	5.989447	-4.258338	660.497089	-6.047671	-8.423426	0.500595	1.275316	-0.915624
0.250	4.843149	-4.167336	660.621279	-6.096839	-7.472482	0.460761	1.131129	-0.922895
0.260	4.020574	-4.164860	662.281336	-6.097281	-6.493669	0.405337	0.980500	-0.920648
0.270	3.475562	-4.222335	665.416871	-6.005101	-5.510750	0.336818	0.828165	-0.902457
0.280	3.093064	-4.293999	669.855829	-5.792651	-4.542036	0.267189	0.678062	-0.864761
0.290	2.729753	-4.311383	675.375862	-5.445060	-3.602850	0.213530	0.533459	-0.806227
0.300	2.263086	-4.188304	681.739610	-4.956874	-2.708391	0.191261	0.397276	-0.727092
0.310	1.633820	-3.838536	688.693887	-4.331636	-1.875482	0.207762	0.272325	-0.628964
0.320	0.865427	-3.203534	695.943795	-3.584728	-1.122177	0.258970	0.161245	-0.515089
0.330	0.051867	-2.281974	703.124454	-2.747244	-0.465206	0.330181	0.066163	-0.390719
0.340	-0.680449	-1.148720	709.793262	-1.867392	0.083516	0.400569	-0.011766	-0.263090
0.350	-1.218781	0.048732	715.458069	-1.006484	0.519502	0.449551	-0.072611	-0.140677
0.360	-1.497942	1.121318	719.643597	-0.228718	0.845862	0.462710	-0.117539	-0.031782
0.370	-1.509462	1.890259	721.981462	0.413105	1.070704	0.435344	-0.148301	0.057218
0.380	-1.287145	2.242185	722.293877	0.891390	1.202946	0.372775	-0.166545	0.123411
0.390	-0.881491	2.166843	720.636672	1.211896	1.248742	0.287766	-0.173283	0.168170
0.400	-0.338364	1.763088	717.279451	1.412693	1.210648	0.196371	-0.168783	0.196952
0.410	0.308549	1.211079	712.626410	1.553762	1.090315	0.113892	-0.153000	0.218033
0.420	1.031459	0.720512	707.108377	1.700673	0.893595	0.052231	-0.126373	0.240511
0.430	1.795747	0.472113	701.090236	1.908095	0.635440	0.019018	-0.090636	0.272161
0.440	2.550463	0.570865	694.830007	2.208743	0.341819	0.017950	-0.049195	0.317882
0.450	3.229195	1.024605	688.500118	2.610769	0.047129	0.049417	-0.006845	0.379197
0.460	3.762702	1.752122	682.251306	3.102853	-0.212446	0.110790	0.031139	0.454796
0.470	4.098522	2.614512	676.280520	3.663048	-0.407339	0.196391	0.060232	0.541646
0.480	4.218868	3.456651	670.865411	4.266571	-0.521714	0.297695	0.077767	0.635980
0.490	4.148596	4.145110	666.347056	4.889527	-0.556759	0.404267	0.083554	0.733781
0.500	3.949439	4.593639	663.067697	5.508742	-0.529107	0.505435	0.079797	0.830796
0.510	3.702212	4.773851	661.288516	6.100388	-0.464936	0.592146	0.070308	0.922500
0.520	3.482545	4.713220	661.117700	6.640317	-0.391529	0.658261	0.059222	1.004408
0.530	3.337203	4.483712	662.473038	7.107215	-0.328714	0.700850	0.049619	1.072831
0.540	3.268141	4.183917	665.091187	7.487168	-0.282687	0.719534	0.042504	1.125736
0.550	3.230363	3.917298	668.581741	7.776885	-0.244259	0.715298	0.036534	1.163191
0.560	3.146333	3.769917	672.510601	7.983418	-0.192350	0.689332	0.028602	1.187107
0.570	2.933723	3.791876	676.487125	8.120208	-0.101782	0.642360	0.015046	1.200349
0.580	2.536820	3.986719	680.228663	8.201329	0.047255	0.574762	-0.006947	1.205672
0.590	1.949237	4.311709	683.586136	8.236694	0.261442	0.487509	-0.038246	1.204924
0.600	1.219262	4.689397	686.529987	8.230382	0.530909	0.383631	-0.077332	1.198838
0.610	0.437048	5.027506	689.108392	8.182432	0.830949	0.269492	-0.120583	1.187394
0.620	-0.290088	5.241113	691.394765	8.092383	1.127705	0.155008	-0.163106	1.170443
0.630	-0.865234	5.270374	693.440024	7.961878	1.385705	0.052279	-0.199831	1.148171
0.640	-1.224611	5.089351	695.239456	7.794519	1.575288	-0.027081	-0.226582	1.121127
0.650	-1.350898	4.705658	696.718271	7.593263	1.678598	-0.074927	-0.240929	1.089861
0.660	-1.275373	4.154277	697.737532	7.357634	1.693203	-0.088749	-0.242670	1.054499
0.670	-1.068555	3.490269	698.122620	7.083523	1.632451	-0.072391	-0.233834	1.014653
0.680	-0.819764	2.783822	697.714296	6.766839	1.522042	-0.035272	-0.218147	0.969858
0.690	-0.608070	2.117393	696.433481	6.409621	1.393214	0.009583	-0.200050	0.920349
0.700	-0.471619	1.580501	694.338755	6.025063	1.274237	0.048432	-0.183518	0.867741
0.710	-0.386983	1.256540	691.649506	5.637808	1.182951	0.070173	-0.171033	0.815125
0.720	-0.270352	1.200180	688.714216	5.277983	1.123210	0.069464	-0.163088	0.766353
0.730	-0.005296	1.411690	685.921781	4.970644	1.087096	0.048593	-0.158487	0.724666
0.740	0.509821	1.820637	683.578332	4.724768	1.062672	0.017220	-0.155457	0.691182
0.750	1.311635	2.290917	681.793361	4.526585	1.044623	-0.010188	-0.153217	0.663923
0.760	2.338927	2.651327	680.426262	4.340460	1.043459	-0.018578	-0.153354	0.637903
0.770	3.432255	2.744369	679.128838	4.117699	1.088938	0.003177	-0.160343	0.606321
0.780	4.370010	2.476667	677.483260	3.810756	1.225205	0.058897	-0.180847	0.562487
0.790	4.931353	1.851926	675.192814	3.388273	1.498300	0.143870	-0.221907	0.501823
0.800	4.965681	0.972870	672.254428	2.845999	1.939854	0.246073	-0.288559	0.423351
0.810	4.444481	0.009447	669.041254	2.209865	2.552797	0.349362	-0.381560	0.330303
0.820	3.476514	-0.856822	666.252648	1.530166	3.304711	0.437574	-0.496015	0.229668
0.830	2.279635	-1.492687	664.737079	0.868718	4.131858	0.498300	-0.621578	0.130686
0.840	1.117636	-1.854771	665.241763	0.282946	4.952950	0.525339	-0.744534	0.042533
0.850	0.222508	-1.997030	668.172661	-0.188467	5.688129	0.519392	-0.851296	-0.028206
0.860	-0.273098	-2.041945	673.449281	-0.534368	6.276822	0.487105	-0.932041	-0.079348
0.870	-0.372167	-2.127846	680.508689	-0.771936	6.688640	0.438849	-0.982888	-0.113435
0.880	-0.206532	-2.353646	688.459683	-0.939311	6.924187	0.385720	-1.005751	-0.136437
0.890	0.012286	-2.741935	696.329644	-1.082499	7.006449	0.336487	-1.006197	-0.155458
0.900	0.070185	-3.233170	703.310110	-1.240977	6.966921	0.295491	-0.990590	-0.176448
0.910	-0.169935	-3.711718	708.911649	-1.436961	6.832255	0.262465	-0.963767	-0.202700
0.920	-0.714635	-4.053364	712.981559	-1.671816	6.616384	0.234459	-0.927988	-0.234482
0.930	-1.433117	-4.176538	715.598127	-1.930241	6.320343	0.208886	-0.883225	-0.269738
0.940	-2.101150	-4.077736	716.905281	-2.189771	5.938705	0.186025	-0.828381	-0.305448
0.950	-2.480042	-3.836744	716.969538	-2.431082	5.469090	0.169638	-0.762807	-0.339078
0.960	-2.400124	-3.588663	715.720559	-2.644684	4.920369	0.165568	-0.687471	-0.369513
0.970	-1.815802	-3.473432	712.991087	-2.831735	4.316223	0.179316	-0.605368	-0.397163
0.980	-0.812162	-3.583198	708.627100	-2.999812	3.692964	0.213918	-0.521143	-0.423327
0.990	0.434887	-3.928791	702.614227	-3.156640	3.092868	0.268921	-0.440194	-0.449271
1.000	1.723624	-4.438153	695.166811	-3.305024	2.555800	0.340526	-0.367653	-0.475429
1.010	2.888350	-4.985812	686.745536	-3.440761	2.112068	0.422447	-0.307547	-0.501024
1.020	3.836022	-5.439674	677.998791	-3.553411	1.778643	0.507026	-0.262337	-0.524103
1.030	4.549612	-5.705272	669.650406	-3.628660	1.559399	0.586362	-0.232868	-0.541874
1.040	5.064163	-5.750417	662.371560	-3.651021	1.448601	0.653478	-0.218699	-0.551204
1.050	5.430328	-5.603490	656.674084	-3.606445	1.435925	0.703569	-0.218666	-0.549199
1.060	5.681694	-5.330999	652.850343	-3.485005	1.511181	0.735175	-0.231474	-0.533814
1.070	5.817679	-5.008126	650.967942	-3.283808	1.667435	0.750816	-0.256147	-0.504450
1.080	5.805723	-4.695978	650.910064	-3.009846	1.902088	0.756555	-0.292220	-0.462406
1.090	5.598030	-4.432544	652.439491	-2.681810	2.216239	0.760274	-0.339685	-0.411043
1.100	5.152544	-4.236152	655.261643	-2.329523	2.613059	0.769073	-0.398781	-0.355510
1.110	4.447929	-4.114954	659.071754	-1.989774	3.095801	0.786775	-0.469721	-0.301906
1.120	3.487959	-4.075183	663.587056	-1.698378	3.665472	0.812531	-0.552372	-0.255939
1.130	2.298504	-4.123384	668.575139	-1.479991	4.317629	0.841004	-0.645796	-0.221365
1.140	0.924904	-4.262032	673.885978	-1.338788	5.037882	0.863943	-0.747587	-0.198667
1.150	-0.564599	-4.481906	679.480035	-1.253770	5.796747	0.872462	-0.853115	-0.184519
1.160	-2.071317	-4.756242	685.430749	-1.181618	6.546106	0.859297	-0.955035	-0.172391
1.170	-3.463566	-5.040269	691.879906	-1.067521	7.220219	0.820433	-1.043565	-0.154293
1.180	-4.588593	-5.276417	698.942882	-0.861052	7.743216	0.755791	-1.107847	-0.123193
1.190	-5.301091	-5.402792	706.588225	-0.531572	8.042444	0.668960	-1.138208	-0.075231
1.200	-5.500669	-5.361657	714.536810	-0.077196	8.064214	0.566205	-1.128593	-0.010804
1.210	-5.164354	-5.105584	722.228083	0.476441	7.786852	0.455197	-1.078171	0.065968
1.220	-4.360049	-4.600840	728.881434	1.087395	7.226277	0.343880	-0.991420	0.149187
1.230	-3.232232	-3.829432	733.645302	1.714162	6.431825	0.239650	-0.876694	0.233650
1.240	-1.961312	-2.792213	735.789465	2.330908	5.473684	0.148810	-0.743920	0.316790
1.250	-0.710261	-1.514720	734.875804	2.934711	4.426501	0.076308	-0.602347	0.399348
1.260	0.419869	-0.055056	730.851493	3.541961	3.354914	0.025852	-0.459042	0.484635
1.270	1.406561	1.489875	724.041611	4.176051	2.305444	0.000314	-0.318413	0.576769
1.280	2.289204	2.985428	715.057305	4.852379	1.306176	0.002009	-0.182667	0.678600
1.290	3.130547	4.272925	704.661334	5.567546	0.372405	0.032350	-0.052849	0.790102
1.300	3.976652	5.197911	693.636905	6.297351	-0.485504	0.090862	0.069994	0.907874
1.310	4.833046	5.648397	682.692730	7.004131	-1.255904	0.174023	0.183963	1.025957
1.320	5.664387	5.591389	672.417060	7.650003	-1.923727	0.274610	0.286091	1.137687
1.330	6.413947	5.092797	663.274564	8.210185	-2.472653	0.381974	0.372795	1.237826
1.340	7.031492	4.309779	655.627825	8.680644	-2.889925	0.483242	0.440787	1.324020
1.350	7.494994	3.454468	649.762150	9.076734	-3.171134	0.565190	0.488045	1.396932
1.360	7.814539	2.738940	645.897610	9.423405	-3.322557	0.616404	0.514409	1.458963
1.370	8.015712	2.318380	644.181589	9.741182	-3.359921	0.629251	0.521580	1.512180
1.380	8.111081	2.250398	644.664290	10.033932	-3.304157	0.601127	0.512539	1.556458
1.390	8.076154	2.483325	647.267137	10.283534	-3.176083	0.534643	0.490691	1.588762
1.400	7.845693	2.876932	651.759982	10.453718	-2.992397	0.436747	0.459126	1.603921
1.410	7.336845	3.248388	657.764327	10.501814	-2.764744	0.317173	0.420324	1.596592
1.420	6.491613	3.428393	664.792727	10.394422	-2.502217	0.186722	0.376391	1.563558
1.430	5.319848	3.309977	672.320095	10.121787	-2.216050	0.055711	0.329612	1.505501
1.440	3.921484	2.876111	679.867468	9.706054	-1.924233	-0.067289	0.283031	1.427639
1.450	2.474942	2.199955	687.070302	9.200438	-1.653574	-0.176420	0.240670	1.339082
1.460	1.193381	1.420246	693.706176	8.679275	-1.437620	-0.269023	0.207238	1.251146
1.470	0.264591	0.701560	699.671459	8.222179	-1.310651	-0.345388	0.187324	1.175149
1.480	-0.202703	0.193021	704.918297	7.897627	-1.299886	-0.407724	0.184402	1.120361
1.490	-0.205748	-0.001649	709.381786	7.751176	-1.419143	-0.458717	0.200053	1.092666
1.500	0.161972	0.164311	712.931200	7.800944	-1.666523	-0.500153	0.233757	1.094207
1.510	0.751827	0.685795	715.365876	8.039596	-2.026683	-0.531944	0.283307	1.123844
1.520	1.414084	1.518857	716.454820	8.439848	-2.476081	-0.551673	0.345602	1.178001
1.530	2.042502	2.592329	716.001797	8.960389	-2.988654	-0.554679	0.417409	1.251448
1.540	2.594446	3.814333	713.910546	9.550737	-3.539857	-0.534784	0.495840	1.337806
1.550	3.084898	5.076737	710.227197	10.155352	-4.108368	-0.485669	0.578458	1.429874
1.560	3.563059	6.263184	705.146238	10.718030	-4.675800	-0.402656	0.663096	1.519973
1.570	4.083073	7.263036	698.979767	11.187047	-5.225275	-0.284457	0.747557	1.600482
1.580	4.677763	7.988151	692.103360	11.520448	-5.739829	-0.134390	0.829331	1.664556
1.590	5.341253	8.386247	684.901175	11.690266	-6.201736	0.039252	0.905493	1.706854
1.600	6.025117	8.446054	677.733467	11.684762	-6.593790	0.223766	0.972918	1.724094
1.610	6.651353	8.193377	670.938705	11.508531	-6.902997	0.403437	1.028857	1.715288
1.620	7.140981	7.680858	664.861770	11.180908	-7.125752	0.561639	1.071764	1.681689
1.630	7.449197	6.975561	659.878606	10.733104	-7.272049	0.683477	1.102028	1.626527
1.640	7.591045	6.147830	656.381537	10.204196	-7.365570	0.758689	1.122148	1.554614
1.650	7.641738	5.262833	654.708583	9.635884	-7.437830	0.784213	1.136052	1.471782
1.660	7.706164	4.374416	655.037302	9.066197	-7.517603	0.765534	1.147660	1.384073
1.670	7.869227	3.520866	657.294153	8.523090	-7.619863	0.715944	1.159278	1.296693
1.680	8.152231	2.723494	661.130230	8.019590	-7.739265	0.653499	1.170611	1.213012
1.690	8.499767	1.989621	665.981995	7.552255	-7.851115	0.596451	1.178878	1.134003
1.700	8.804520	1.319871	671.194002	7.103871	-7.919105	0.558703	1.179853	1.058393
1.710	8.955082	0.716727	676.155841	6.649923	-7.906126	0.546745	1.169276	0.983490
1.720	8.879584	0.189539	680.407878	6.167037	-7.783716	0.558815	1.143978	0.906374
1.730	8.563368	-0.247805	683.692122	5.640703	-7.537234	0.586072	1.102431	0.825036
1.740	8.036497	-0.586512	685.950317	5.069717	-7.166486	0.615059	1.044753	0.739079
1.750	7.344439	-0.834923	687.288191	4.465880	-6.683600	0.630732	0.972460	0.649783
1.760	6.522348	-1.025071	687.926774	3.849432	-6.110437	0.619578	0.888239	0.559570
1.770	5.587690	-1.207444	688.152712	3.242505	-5.476680	0.572586	0.795852	0.471190
1.780	4.552972	-1.433472	688.269661	2.663607	-4.818149	0.487711	0.700038	0.387001
1.790	3.448644	-1.732573	688.550203	2.125267	-4.174159	0.371301	0.606224	0.308658
1.800	2.341447	-2.094856	689.191371	1.634973	-3.583244	0.237768	0.519920	0.237231
1.810	1.336023	-2.468944	690.280816	1.197656	-3.077675	0.107086	0.445858	0.173503
1.820	0.555360	-2.777478	691.780952	0.817436	-2.678064	0.000511	0.387126	0.118164
1.830	0.105473	-2.944782	693.534573	0.497402	-2.389591	-0.064253	0.344553	0.071720
1.840	0.037835	-2.926035	695.290013	0.237847	-2.200988	-0.076860	0.316557	0.034208
1.850	0.325296	-2.726923	696.740650	0.034387	-2.086705	-0.036111	0.299495	0.004935
1.860	0.862138	-2.406411	697.574061	-0.122747	-2.011957	0.050426	0.288422	-0.017596
1.870	1.489209	-2.061533	697.527480	-0.247866	-1.939685	0.168515	0.278080	-0.035535
1.880	2.035586	-1.799617	696.445111	-0.357972	-1.838092	0.300546	0.263925	-0.051400
1.890	2.362771	-1.707736	694.328916	-0.470658	-1.687291	0.429365	0.243010	-0.067786
1.900	2.398070	-1.829663	691.369846	-0.602073	-1.483658	0.541775	0.214597	-0.087084
1.910	2.149139	-2.157001	687.944100	-0.764650	-1.240859	0.630737	0.180372	-0.111150
1.920	1.698395	-2.635421	684.562259	-0.964217	-0.986945	0.695641	0.144172	-0.140852
1.930	1.180232	-3.181872	681.770839	-1.197010	-0.757660	0.740735	0.111131	-0.175574
1.940	0.745392	-3.706462	680.025372	-1.448085	-0.587089	0.772493	0.086333	-0.212946
1.950	0.518684	-4.133376	679.574023	-1.692680	-0.498092	0.796945	0.073295	-0.249080
1.960	0.560924	-4.416904	680.397244	-1.900811	-0.496002	0.817827	0.072899	-0.279368
1.970	0.850484	-4.549521	682.232342	-2.043580	-0.568691	0.835933	0.083357	-0.299543
1.980	1.296613	-4.559652	684.676817	-2.098795	-0.693844	0.849537	0.101339	-0.306538
1.990	1.782804	-4.498759	687.328568	-2.054087	-0.850791	0.855412	0.123782	-0.298851
2.000	2.220921	-4.421063	689.903176	-1.907467	-1.031569	0.850009	0.149524	-0.276483
2.010	2.588186	-4.362598	692.278643	-1.666647	-1.245597	0.830547	0.179927	-0.240748
2.020	2.926736	-4.327233	694.453022	-1.348581	-1.515011	0.795976	0.218159	-0.194193
2.030	3.305798	-4.285072	696.443233	-0.979521	-1.862229	0.747656	0.267391	-0.140646
2.040	3.767660	-4.184239	698.181247	-0.594572	-2.295252	0.689551	0.328747	-0.085160
2.050	4.288017	-3.972163	699.461762	-0.235087	-2.797597	0.627700	0.399964	-0.033610
2.060	4.773294	-3.618852	699.967183	0.057039	-3.327711	0.569040	0.475410	0.008149
2.070	5.096995	-3.133804	699.359683	0.247542	-3.828486	0.519977	0.547427	0.035396
2.080	5.156637	-2.570632	697.405005	0.318218	-4.243229	0.485156	0.608431	0.045629
2.090	4.923816	-2.017664	694.085317	0.272860	-4.532268	0.466625	0.652984	0.039312
2.100	4.465663	-1.576900	689.663646	0.138415	-4.684782	0.463326	0.679285	0.020070
2.110	3.930644	-1.336910	684.674168	-0.039681	-4.722506	0.470894	0.689745	-0.005796
2.120	3.506162	-1.347182	679.829775	-0.207394	-4.694429	0.482042	0.690530	-0.030507
2.130	3.363310	-1.601783	675.862040	-0.314836	-4.663841	0.487869	0.690058	-0.046583
2.140	3.604886	-2.037955	673.334684	-0.328182	-4.690897	0.480048	0.696667	-0.048740
2.150	4.230135	-2.550639	672.489033	-0.236832	-4.815288	0.453196	0.716040	-0.035217
2.160	5.126581	-3.018444	673.177334	-0.053199	-5.044093	0.406439	0.749296	-0.007903
2.170	6.094801	-3.332640	674.912805	0.194702	-5.348986	0.343491	0.792545	0.028848
2.180	6.903082	-3.420273	677.022820	0.474645	-5.674221	0.271280	0.838114	0.070108
2.190	7.356510	-3.255598	678.852772	0.760696	-5.953103	0.197893	0.876936	0.112056
2.200	7.356280	-2.859273	679.952341	1.038804	-6.127552	0.130711	0.901174	0.152776
2.210	6.927073	-2.289125	680.188710	1.306247	-6.164446	0.075129	0.906285	0.192042
2.220	6.203721	-1.627286	679.761089	1.566665	-6.064027	0.033719	0.892082	0.230473
2.230	5.384927	-0.966346	679.121023	1.823974	-5.858633	0.005730	0.862679	0.268579
2.240	4.672685	-0.394642	678.825208	2.078162	-5.603001	-0.012844	0.825397	0.306141
2.250	4.217496	0.019373	679.362626	2.324323	-5.359456	-0.028179	0.788895	0.342133
2.260	4.083799	0.241531	681.005840	2.554642	-5.182305	-0.046411	0.760978	0.375128
2.270	4.242122	0.280515	683.732752	2.762088	-5.105802	-0.070953	0.746754	0.403972
2.280	4.587389	0.186186	687.245075	2.944467	-5.139068	-0.100560	0.747778	0.428445
2.290	4.977465	0.036793	691.075213	3.107502	-5.269227	-0.129301	0.762468	0.449662
2.300	5.281227	-0.080994	694.736659	3.265544	-5.471007	-0.148686	0.787494	0.470041
2.310	5.421571	-0.092633	697.854189	3.438756	-5.718421	-0.151040	0.819429	0.492761
2.320	5.398470	0.048997	700.222578	3.646786	-5.993422	-0.132454	0.855931	0.520804
2.330	5.283196	0.356505	701.781322	3.900837	-6.288158	-0.093975	0.896028	0.555848
2.340	5.186068	0.809039	702.535441	4.197312	-6.600955	-0.040660	0.939590	0.597452
2.350	5.211224	1.359723	702.474377	4.515967	-6.929259	0.020742	0.986407	0.642866
2.360	5.416808	1.947220	701.532880	4.823642	-7.263779	0.084228	1.035415	0.687586
2.370	5.795247	2.509021	699.609594	5.082373	-7.586653	0.146051	1.084412	0.726459
2.380	6.278611	2.993622	696.629730	5.259071	-7.873933	0.204890	1.130290	0.754931
2.390	6.764415	3.368636	692.621271	5.333556	-8.100830	0.260955	1.169590	0.770054
2.400	7.151566	3.622911	687.772446	5.302739	-8.247547	0.314762	1.199168	0.771002
