Time[s]	Fx[N]	Fy[N]	Fz[N]	Mx[Nm]	My[Nm]	Mz[Nm]	COPx[cm]	COPy[cm]
0.010	5.674383	-1.516520	702.855839	-4.944424	11.868480	0.234989	-1.688608	-0.703476
0.020	5.818342	-1.620196	700.956022	-4.956696	11.599138	0.226344	-1.654760	-0.707134
0.030	5.962452	-1.697997	699.200443	-4.963599	11.327907	0.219814	-1.620123	-0.709896
0.040	6.109593	-1.728963	697.719970	-4.960756	11.054019	0.216770	-1.584306	-0.710995
0.050	6.263654	-1.700620	696.603956	-4.944996	10.779585	0.217314	-1.547448	-0.709872
0.060	6.430261	-1.609917	695.884842	-4.914470	10.509801	0.220347	-1.510279	-0.706219
0.070	6.615862	-1.462123	695.530579	-4.868513	10.252615	0.223941	-1.474071	-0.699971
0.080	6.823960	-1.268768	695.446770	-4.807400	10.018137	0.225793	-1.440533	-0.691268
0.090	7.049248	-1.045449	695.489943	-4.732105	9.817977	0.223655	-1.411663	-0.680399
0.100	7.272609	-0.809739	695.492550	-4.644206	9.664570	0.215761	-1.389601	-0.667758
0.110	7.460575	-0.579181	695.297970	-4.546059	9.570367	0.201186	-1.376441	-0.653829
0.120	7.571171	-0.369449	694.799826	-4.441328	9.546689	0.180068	-1.374020	-0.639224
0.130	7.565144	-0.192818	693.976130	-4.335645	9.602142	0.153623	-1.383642	-0.624754
0.140	7.418966	-0.057017	692.907648	-4.236929	9.740700	0.123961	-1.405772	-0.611471
0.150	7.134823	0.035378	691.771928	-4.154928	9.959936	0.093785	-1.439772	-0.600621
0.160	6.743333	0.086696	690.809347	-4.099846	10.250212	0.066027	-1.483798	-0.593484
0.170	6.296722	0.102823	690.266288	-4.080401	10.595706	0.043412	-1.535017	-0.591134
0.180	5.853538	0.090967	690.331246	-4.101865	10.977558	0.027932	-1.590187	-0.594188
0.190	5.459772	0.057295	691.085563	-4.164747	11.378332	0.020278	-1.646443	-0.602638
0.200	5.133863	0.005491	692.485585	-4.264557	11.786171	0.019419	-1.702010	-0.615833
0.210	4.862177	-0.063030	694.379703	-4.392850	12.196963	0.022606	-1.756526	-0.632629
0.220	4.607119	-0.147404	696.550955	-4.539439	12.613659	0.025944	-1.810874	-0.651702
0.230	4.324272	-0.245278	698.770055	-4.695277	13.042934	0.025422	-1.866556	-0.671935
0.240	3.981300	-0.351921	700.844243	-4.855185	13.490437	0.018085	-1.924884	-0.692762
0.250	3.571326	-0.461272	702.650694	-5.019459	13.956363	0.002980	-1.986245	-0.714360
0.260	3.116433	-0.568391	704.147959	-5.193706	14.433009	-0.018444	-2.049712	-0.737587
0.270	2.661092	-0.671706	705.365131	-5.386848	14.905088	-0.042643	-2.113102	-0.763696
0.280	2.258892	-0.773581	706.374400	-5.607834	15.352476	-0.064998	-2.173419	-0.793890
0.290	1.957483	-0.878874	707.256520	-5.862173	15.754112	-0.081240	-2.227496	-0.828861
0.300	1.786244	-0.992480	708.069944	-6.149576	16.091664	-0.088804	-2.272609	-0.868498
0.310	1.749836	-1.117257	708.832876	-6.463768	16.352043	-0.087516	-2.306897	-0.911889
0.320	1.829078	-1.253375	709.522923	-6.794707	16.528531	-0.079333	-2.329527	-0.957645
0.330	1.988649	-1.399446	710.092251	-7.132341	16.620665	-0.067246	-2.340635	-1.004425
0.340	2.188978	-1.554908	710.489402	-7.470207	16.633081	-0.053862	-2.341074	-1.051417
0.350	2.398263	-1.722424	710.676439	-7.807279	16.573711	-0.040319	-2.332104	-1.098570
0.360	2.600586	-1.908802	710.633894	-8.147329	16.451849	-0.025966	-2.315095	-1.146488
0.370	2.797497	-2.123486	710.353843	-8.496279	16.276752	-0.008888	-2.291358	-1.196063
0.380	3.002860	-2.374683	709.827743	-8.858767	16.057215	0.013066	-2.262128	-1.248016
0.390	3.233282	-2.664518	709.037333	-9.235345	15.802106	0.041227	-2.228671	-1.302519
0.400	3.498229	-2.985442	707.954791	-9.621238	15.521335	0.075413	-2.192419	-1.359019
0.410	3.794072	-3.319776	706.554463	-10.006806	15.226451	0.113825	-2.155029	-1.416282
0.420	4.104491	-3.642793	704.833539	-10.379209	14.930247	0.153485	-2.118266	-1.472576
0.430	4.406641	-3.928113	702.833623	-10.724658	14.645313	0.191035	-2.083753	-1.525917
0.440	4.679886	-4.153472	700.652026	-11.030807	14.382169	0.223524	-2.052684	-1.574363
0.450	4.912888	-4.305075	698.433920	-11.288850	14.147837	0.248899	-2.025651	-1.616309
0.460	5.105811	-4.379400	696.344441	-11.494767	13.945581	0.266115	-2.002684	-1.650730
0.470	5.266636	-4.381985	694.529333	-11.649332	13.776123	0.274999	-1.983519	-1.677299
0.480	5.403143	-4.323853	693.078616	-11.756926	13.640056	0.276015	-1.968039	-1.696334
0.490	5.514213	-4.217189	692.007211	-11.823694	13.540619	0.269994	-1.956716	-1.708608
0.500	5.584658	-4.072401	691.260672	-11.855803	13.485608	0.257833	-1.950872	-1.715099
0.510	5.586397	-3.897888	690.745658	-11.858593	13.487370	0.240235	-1.952581	-1.716781
0.520	5.486072	-3.702205	690.375414	-11.837021	13.560421	0.217615	-1.964210	-1.714577
0.530	5.256620	-3.496722	690.113253	-11.797030	13.717230	0.190236	-1.987678	-1.709434
0.540	4.888754	-3.296491	689.996209	-11.746786	13.963562	0.158525	-2.023716	-1.702442
0.550	4.398012	-3.118118	690.128067	-11.696649	14.295145	0.123413	-2.071376	-1.694852
0.560	3.824122	-2.975265	690.643240	-11.657421	14.697132	0.086524	-2.128035	-1.687908
0.570	3.221958	-2.873908	691.655115	-11.637307	15.146793	0.050034	-2.189934	-1.682530
0.580	2.646831	-2.809979	693.209071	-11.638878	15.618512	0.016158	-2.253074	-1.678985
0.590	2.139525	-2.770965	695.257771	-11.657626	16.089238	-0.013538	-2.314140	-1.676734
0.600	1.716875	-2.741028	697.666002	-11.683162	16.542419	-0.038661	-2.371109	-1.674607
0.610	1.371344	-2.707195	700.240391	-11.702793	16.969295	-0.060095	-2.423353	-1.671254
0.620	1.079368	-2.663684	702.772054	-11.705985	17.367445	-0.079604	-2.471277	-1.665687
0.630	0.814897	-2.612469	705.078814	-11.687756	17.737481	-0.099087	-2.515674	-1.657652
0.640	0.562907	-2.560134	707.035755	-11.649705	18.079253	-0.119747	-2.557049	-1.647683
0.650	0.327897	-2.512851	708.586812	-11.598625	18.388984	-0.141489	-2.595163	-1.636867
0.660	0.134265	-2.472131	709.735924	-11.543722	18.658381	-0.162838	-2.628919	-1.626481
0.670	0.018110	-2.433586	710.522944	-11.493758	18.876078	-0.181499	-2.656646	-1.617648
0.680	0.012890	-2.389386	710.994387	-11.455110	19.030869	-0.195362	-2.676655	-1.611139
0.690	0.134103	-2.333224	711.180200	-11.431085	19.115380	-0.203478	-2.687839	-1.607340
0.700	0.369644	-2.265258	711.085204	-11.422292	19.128504	-0.206434	-2.690044	-1.606318
0.710	0.681049	-2.194444	710.698228	-11.427606	19.075500	-0.205918	-2.684051	-1.607941
0.720	1.016014	-2.136682	710.014212	-11.445263	18.965760	-0.203727	-2.671180	-1.611977
0.730	1.326730	-2.109094	709.057343	-11.473678	18.809443	-0.200801	-2.652739	-1.618159
0.740	1.585480	-2.122818	707.891018	-11.511803	18.614624	-0.196755	-2.629589	-1.626211
0.750	1.790738	-2.177869	706.606423	-11.559049	18.386258	-0.190064	-2.602051	-1.635854
0.760	1.962191	-2.262927	705.293476	-11.615076	18.127256	-0.178776	-2.570172	-1.646843
0.770	2.128404	-2.360483	704.008608	-11.679650	17.841040	-0.161397	-2.534208	-1.659021
0.780	2.313224	-2.455064	702.756355	-11.752597	17.534280	-0.137618	-2.495072	-1.672357
0.790	2.526292	-2.540531	701.495012	-11.833670	17.218456	-0.108646	-2.454537	-1.686921
0.800	2.760329	-2.622823	700.165058	-11.922246	16.909313	-0.077048	-2.415047	-1.702776
0.810	2.995085	-2.716679	698.728499	-12.016951	16.624277	-0.046178	-2.379218	-1.719831
0.820	3.205684	-2.837873	697.201995	-12.115459	16.378879	-0.019291	-2.349230	-1.737726
0.830	3.371893	-2.994630	695.668226	-12.214645	16.183660	0.001405	-2.326347	-1.755815
0.840	3.484609	-3.182222	694.258394	-12.311076	16.042761	0.015367	-2.310777	-1.773270
0.850	3.547007	-3.383021	693.111196	-12.401498	15.954711	0.023655	-2.301898	-1.789251
0.860	3.569860	-3.571673	692.325397	-12.482924	15.915079	0.028161	-2.298786	-1.803043
0.870	3.562989	-3.722970	691.927574	-12.552294	15.919978	0.030467	-2.300816	-1.814105
0.880	3.526576	-3.819449	691.870271	-12.606121	15.968975	0.030930	-2.308088	-1.822035
0.890	3.446652	-3.856292	692.061024	-12.640855	16.066120	0.028440	-2.321489	-1.826552
0.900	3.297802	-3.842244	692.408170	-12.654229	16.218413	0.020996	-2.342320	-1.827568
0.910	3.053162	-3.796460	692.862886	-12.647028	16.432031	0.006852	-2.371614	-1.825329
0.920	2.698135	-3.742269	693.440540	-12.624030	16.707749	-0.014336	-2.409399	-1.820492
0.930	2.241588	-3.699667	694.214224	-12.593040	17.037508	-0.040934	-2.454215	-1.813999
0.940	1.718837	-3.678680	695.284287	-12.562132	17.403726	-0.069658	-2.503109	-1.806762
0.950	1.184621	-3.675628	696.735974	-12.536448	17.781683	-0.096587	-2.552141	-1.799311
0.960	0.699362	-3.673777	698.600774	-12.516266	18.144017	-0.118357	-2.597194	-1.791619
0.970	0.314810	-3.648712	700.834730	-12.497303	18.465646	-0.133004	-2.634807	-1.783203
0.980	0.064299	-3.577000	703.319593	-12.472921	18.727596	-0.140213	-2.662743	-1.773436
0.990	-0.040545	-3.445112	705.883860	-12.437019	18.918881	-0.141057	-2.680169	-1.761907
1.000	-0.007861	-3.255211	708.334849	-12.386241	19.036261	-0.137457	-2.687466	-1.748642
1.010	0.139323	-3.025670	710.491796	-12.320682	19.082256	-0.131578	-2.685781	-1.734106
1.020	0.369431	-2.786222	712.212140	-12.243129	19.062265	-0.125258	-2.676487	-1.719028
1.030	0.649615	-2.569404	713.406294	-12.157487	18.981860	-0.119571	-2.660736	-1.704146
1.040	0.953147	-2.401120	714.038914	-12.067243	18.845185	-0.114642	-2.639238	-1.689998
1.050	1.264911	-2.293467	714.117385	-11.974622	18.654906	-0.109829	-2.612302	-1.676842
1.060	1.582546	-2.242222	713.672121	-11.880649	18.413430	-0.104267	-2.580097	-1.664721
1.070	1.912251	-2.229844	712.736921	-11.785782	18.124673	-0.097539	-2.542968	-1.653595
1.080	2.260995	-2.232863	711.338110	-11.690403	17.795524	-0.090081	-2.501697	-1.643438
1.090	2.628930	-2.230859	709.496903	-11.594588	17.436508	-0.083015	-2.457588	-1.634199
1.100	3.005552	-2.213556	707.242204	-11.497230	17.061579	-0.077456	-2.412410	-1.625642
1.110	3.370741	-2.183244	704.625561	-11.395259	16.687412	-0.073804	-2.368267	-1.617208
1.120	3.698907	-2.151779	701.729445	-11.283783	16.332569	-0.071508	-2.327474	-1.607996
1.130	3.963172	-2.133789	698.664720	-11.157315	16.016699	-0.069483	-2.292473	-1.596948
1.140	4.137806	-2.139322	695.560105	-11.011541	15.759466	-0.066887	-2.265723	-1.583119
1.150	4.199663	-2.169004	692.551231	-10.844861	15.578684	-0.063792	-2.249463	-1.565929
1.160	4.130625	-2.213184	689.775689	-10.659265	15.487554	-0.061364	-2.245303	-1.545323
1.170	3.921960	-2.254704	687.374333	-10.460452	15.491747	-0.061458	-2.253757	-1.521798
1.180	3.579265	-2.273917	685.493331	-10.257134	15.587672	-0.065802	-2.273935	-1.496314
1.190	3.125308	-2.254300	684.279830	-10.059644	15.762911	-0.075152	-2.303577	-1.470107
1.200	2.598441	-2.187192	683.866609	-9.878157	15.998895	-0.088815	-2.339476	-1.444457
1.210	2.045960	-2.074336	684.346438	-9.721056	16.274925	-0.104740	-2.378171	-1.420487
1.220	1.514140	-1.927648	685.743851	-9.593792	16.572195	-0.120120	-2.416674	-1.399034
1.230	1.038373	-1.766479	687.997058	-9.498300	16.876434	-0.132219	-2.452981	-1.380573
1.240	0.637062	-1.613344	690.960952	-9.432833	17.178356	-0.139072	-2.486154	-1.365176
1.250	0.311467	-1.489225	694.432543	-9.392261	17.472026	-0.139850	-2.516015	-1.352509
1.260	0.051290	-1.409428	698.187857	-9.369030	17.752193	-0.134888	-2.542610	-1.341907
1.270	-0.156594	-1.380874	702.013368	-9.354865	18.011928	-0.125532	-2.565753	-1.332577
1.280	-0.319863	-1.401487	705.720212	-9.342796	18.241528	-0.113911	-2.584810	-1.323867
1.290	-0.436072	-1.461917	709.141822	-9.328697	18.429005	-0.102597	-2.598776	-1.315491
1.300	-0.493070	-1.549109	712.125572	-9.311727	18.561818	-0.094103	-2.606537	-1.307596
1.310	-0.474126	-1.650376	714.530474	-9.293596	18.629107	-0.090235	-2.607182	-1.300658
1.320	-0.365522	-1.756384	716.236403	-9.277164	18.623566	-0.091482	-2.600198	-1.295266
1.330	-0.163290	-1.862223	717.161310	-9.264943	18.542325	-0.096710	-2.585517	-1.291891
1.340	0.123793	-1.966727	717.277081	-9.257942	18.386764	-0.103338	-2.563412	-1.290707
1.350	0.475874	-2.070775	716.615325	-9.255104	18.161576	-0.108041	-2.534355	-1.291502
1.360	0.867011	-2.175284	715.260460	-9.253461	17.873567	-0.107749	-2.498889	-1.293719
1.370	1.271051	-2.279599	713.334292	-9.248951	17.530553	-0.100597	-2.457551	-1.296580
1.380	1.666532	-2.380845	710.979491	-9.237632	17.140669	-0.086434	-2.410853	-1.299282
1.390	2.039791	-2.474319	708.347198	-9.216840	16.712237	-0.066687	-2.359329	-1.301175
1.400	2.386013	-2.554574	705.589147	-9.185745	16.254186	-0.043716	-2.303633	-1.301855
1.410	2.708098	-2.616815	702.851547	-9.144981	15.776616	-0.020020	-2.244658	-1.301125
1.420	3.013678	-2.658302	700.268502	-9.095592	15.290947	0.002376	-2.183583	-1.298872
1.430	3.311338	-2.679325	697.954705	-9.038074	14.809311	0.022174	-2.121815	-1.294937
1.440	3.607324	-2.683357	695.998122	-8.972239	14.343394	0.038752	-2.060838	-1.289118
1.450	3.903517	-2.676318	694.453442	-8.897941	13.903301	0.051969	-2.002049	-1.281287
1.460	4.196585	-2.665213	693.337539	-8.815982	13.496947	0.062036	-1.946663	-1.271528
1.470	4.477870	-2.656474	692.629122	-8.728404	13.130080	0.069485	-1.895687	-1.260184
1.480	4.733924	-2.654454	692.275313	-8.637923	12.806689	0.075142	-1.849942	-1.247758
1.490	4.948085	-2.660489	692.206215	-8.546944	12.529459	0.079944	-1.810076	-1.234740
1.500	5.103352	-2.672807	692.354323	-8.456822	12.300102	0.084609	-1.776562	-1.221459
1.510	5.185953	-2.687327	692.671843	-8.367762	12.119425	0.089360	-1.749663	-1.208041
1.520	5.188403	-2.699164	693.139557	-8.279228	11.986990	0.093908	-1.729376	-1.194453
1.530	5.111150	-2.704427	693.765693	-8.190422	11.900325	0.097693	-1.715323	-1.180575
1.540	4.962917	-2.701713	694.577528	-8.100452	11.853979	0.100210	-1.706646	-1.166242
1.550	4.760543	-2.692600	695.608799	-8.008175	11.838958	0.101220	-1.701956	-1.151247
1.560	4.528669	-2.680829	696.884420	-7.911997	11.843026	0.100798	-1.699425	-1.135338
1.570	4.298468	-2.670484	698.403995	-7.809955	11.851948	0.099211	-1.697005	-1.118257
1.580	4.104163	-2.663908	700.127810	-7.700160	11.851328	0.096645	-1.692738	-1.099822
1.590	3.977134	-2.660116	701.970748	-7.581426	11.828444	0.092926	-1.685034	-1.080020
1.600	3.939126	-2.654266	703.808640	-7.453666	11.773533	0.087430	-1.672832	-1.059047
1.610	3.997221	-2.638376	705.497549	-7.317624	11.680325	0.079300	-1.655615	-1.037229
1.620	4.142780	-2.603151	706.901086	-7.173996	11.546022	0.067904	-1.633329	-1.014851
1.630	4.354955	-2.540545	707.916881	-7.022491	11.370967	0.053261	-1.606257	-0.991994
1.640	4.607459	-2.446427	708.493057	-6.861544	11.158096	0.036172	-1.574905	-0.968470
1.650	4.876194	-2.322447	708.629322	-6.688876	10.912125	0.017982	-1.539892	-0.943917
1.660	5.145299	-2.176288	708.363741	-6.502605	10.638614	0.000121	-1.501858	-0.917975
1.670	5.409908	-2.019997	707.752520	-6.302212	10.343197	-0.016332	-1.461414	-0.890454
1.680	5.675047	-1.866715	706.852630	-6.088715	10.031275	-0.030883	-1.419147	-0.861384
1.690	5.951344	-1.726672	705.714057	-5.863840	9.708218	-0.043638	-1.375659	-0.830909
1.700	6.249077	-1.603822	704.382346	-5.628616	9.379795	-0.055186	-1.331634	-0.799085
1.710	6.572365	-1.494611	702.906920	-5.382340	9.052507	-0.066431	-1.287867	-0.765726
1.720	6.915246	-1.389592	701.348739	-5.122594	8.733623	-0.078421	-1.245261	-0.730392
1.730	7.261017	-1.277279	699.781952	-4.846386	8.430959	-0.092146	-1.204798	-0.692557
1.740	7.585333	-1.148641	698.287507	-4.551832	8.152460	-0.108233	-1.167493	-0.651856
1.750	7.862134	-1.000522	696.941021	-4.239420	7.905621	-0.126600	-1.134331	-0.608290
1.760	8.070253	-0.836771	695.800353	-3.912122	7.696789	-0.146301	-1.106178	-0.562248
1.770	8.198168	-0.666610	694.898440	-3.574260	7.530519	-0.165764	-1.083686	-0.514357
1.780	8.245311	-0.500787	694.244054	-3.229907	7.409213	-0.183397	-1.067235	-0.465241
1.790	8.219974	-0.347032	693.829146	-2.881880	7.333126	-0.198252	-1.056907	-0.415359
1.800	8.135379	-0.206896	693.638947	-2.531834	7.300594	-0.210344	-1.052506	-0.365007
1.810	8.005898	-0.075422	693.661201	-2.181093	7.308274	-0.220471	-1.053580	-0.314432
1.820	7.844704	0.056406	693.892489	-1.831404	7.351240	-0.229678	-1.059421	-0.263932
1.830	7.663135	0.197878	694.340667	-1.484974	7.422926	-0.238718	-1.069061	-0.213868
1.840	7.471272	0.355277	695.022548	-1.143841	7.515050	-0.247824	-1.081267	-0.164576
1.850	7.278859	0.530387	695.956073	-0.809024	7.617729	-0.256842	-1.094570	-0.116246
1.860	7.095830	0.721171	697.147156	-0.479887	7.720050	-0.265535	-1.107377	-0.068836
1.870	6.932192	0.924085	698.573894	-0.153914	7.811156	-0.273801	-1.118157	-0.022033
1.880	6.797496	1.136970	700.174142	0.173111	7.881654	-0.281683	-1.125670	0.024724
1.890	6.700216	1.361205	701.844009	0.506475	7.924841	-0.289230	-1.129146	0.072163
1.900	6.647313	1.602050	703.451176	0.851387	7.937169	-0.296333	-1.128318	0.121030
1.910	6.644260	1.866893	704.858762	1.211425	7.917717	-0.302648	-1.123305	0.171868
1.920	6.695646	2.162138	705.949495	1.587008	7.867043	-0.307661	-1.114392	0.224805
1.930	6.806021	2.490203	706.641347	1.974592	7.786250	-0.310839	-1.101867	0.279433
1.940	6.980281	2.847843	706.891984	2.367024	7.676860	-0.311819	-1.086002	0.334849
1.950	7.222782	3.226137	706.694364	2.754937	7.541446	-0.310556	-1.067144	0.389834
1.960	7.534921	3.611585	706.067517	3.128582	7.384403	-0.307396	-1.045849	0.443100
1.970	7.911888	3.987556	705.046784	3.479427	7.212249	-0.303043	-1.022946	0.493503
1.980	8.340154	4.335818	703.677711	3.801190	7.033250	-0.298407	-0.999499	0.540189
1.990	8.797244	4.638470	702.015936	4.090214	6.856557	-0.294318	-0.976695	0.582638
2.000	9.254291	4.880727	700.131696	4.345280	6.691240	-0.291155	-0.955712	0.620637
2.010	9.680729	5.054358	698.114552	4.567026	6.545556	-0.288535	-0.937605	0.654194
2.020	10.049678	5.160553	696.073924	4.757159	6.426678	-0.285259	-0.923275	0.683427
2.030	10.342340	5.210521	694.133296	4.917613	6.340817	-0.279650	-0.913487	0.708454
2.040	10.549881	5.222795	692.417887	5.049821	6.293536	-0.270178	-0.908922	0.729303
2.050	10.672061	5.217720	691.037143	5.154297	6.290008	-0.256113	-0.910227	0.745878
2.060	10.713087	5.211095	690.065972	5.230682	6.335149	-0.237906	-0.918050	0.757997
2.070	10.676663	5.209616	689.531686	5.278328	6.433559	-0.217158	-0.933033	0.765495
2.080	10.562968	5.210012	689.413479	5.297251	6.589179	-0.196236	-0.955766	0.768371
2.090	10.369655	5.202058	689.656182	5.289056	6.804539	-0.177670	-0.986657	0.766912
2.100	10.096662	5.173967	690.192285	5.257339	7.079795	-0.163515	-1.025771	0.761721
2.110	9.752042	5.117828	690.960939	5.207211	7.412074	-0.154855	-1.072720	0.753619
2.120	9.354937	5.032819	691.913676	5.143962	7.795801	-0.151621	-1.126701	0.743440
2.130	8.932971	4.924991	693.004248	5.071260	8.224293	-0.152770	-1.186759	0.731779
2.140	8.514420	4.804001	694.169766	4.989628	8.692132	-0.156711	-1.252162	0.718791
2.150	8.118675	4.678769	695.316082	4.895922	9.197236	-0.161777	-1.322742	0.704129
2.160	7.749842	4.554328	696.318938	4.784040	9.741522	-0.166584	-1.399003	0.687047
2.170	7.396751	4.431016	697.045389	4.646404	10.329724	-0.170146	-1.481930	0.666586
2.180	7.039187	4.305504	697.390855	4.475452	10.966750	-0.171733	-1.572540	0.641742
2.190	6.657109	4.172214	697.319722	4.264673	11.654588	-0.170619	-1.671341	0.611581
2.200	6.238652	4.024003	696.894147	4.009251	12.389930	-0.165962	-1.777878	0.575303
2.210	5.783913	3.852073	696.278759	3.706678	13.163402	-0.156951	-1.890536	0.532356
2.220	5.303915	3.645876	695.717438	3.357514	13.960622	-0.143187	-2.006651	0.482597
2.230	4.816272	3.394018	695.488025	2.966040	14.764569	-0.125100	-2.122908	0.426469
2.240	4.339952	3.086801	695.846744	2.540331	15.558181	-0.104119	-2.235863	0.365070
2.250	3.891126	2.720102	696.975063	2.091351	16.326157	-0.082446	-2.342431	0.300061
2.260	3.481182	2.299221	698.939603	1.631124	17.055508	-0.062475	-2.440198	0.233371
2.270	3.116992	1.840695	701.672567	1.170594	17.735125	-0.046138	-2.527550	0.166829
2.280	2.802874	1.370654	704.976653	0.718033	18.355040	-0.034440	-2.603638	0.101852
2.290	2.543195	0.919787	708.554288	0.278625	18.905989	-0.027313	-2.668248	0.039323
2.300	2.344628	0.516541	712.055851	-0.144804	19.379580	-0.023747	-2.721638	-0.020336
2.310	2.217272	0.180806	715.136097	-0.550572	19.769116	-0.022140	-2.764385	-0.076988
2.320	2.174015	-0.079957	717.504691	-0.937256	20.070935	-0.020762	-2.797325	-0.130627
2.330	2.227650	-0.271106	718.958425	-1.303536	20.285818	-0.018179	-2.821556	-0.181309
