Time[s]	Fx[N]	Fy[N]	Fz[N]	Mx[Nm]	My[Nm]	Mz[Nm]	COPx[cm]	COPy[cm]
0.010	4.006620	-3.572213	579.629090	3.729150	-11.751982	0.128136	2.027500	0.643368
0.020	4.092499	-3.595655	579.647051	3.755618	-11.732340	0.123459	2.024049	0.647915
0.030	4.161122	-3.609806	579.694148	3.780244	-11.710282	0.118834	2.020079	0.652110
0.040	4.199421	-3.608949	579.780284	3.801445	-11.683815	0.114590	2.015214	0.655670
0.050	4.202125	-3.592783	579.886017	3.818785	-11.651590	0.111289	2.009290	0.658541
0.060	4.172565	-3.565866	579.969923	3.833418	-11.613041	0.109503	2.002352	0.660968
0.070	4.120868	-3.535140	579.987536	3.847838	-11.568457	0.109516	1.994604	0.663435
0.080	4.060246	-3.507017	579.911597	3.864838	-11.519000	0.111174	1.986337	0.666453
0.090	4.002730	-3.485464	579.744215	3.886096	-11.466586	0.113963	1.977870	0.670312
0.100	3.956016	-3.471630	579.516744	3.911154	-11.413594	0.117207	1.969502	0.674899
0.110	3.922680	-3.464560	579.278665	3.937373	-11.362422	0.120225	1.961478	0.679703
0.120	3.901737	-3.462215	579.080417	3.960917	-11.314979	0.122395	1.953956	0.684001
0.130	3.891045	-3.462272	578.956943	3.978314	-11.272286	0.123211	1.946999	0.687152
0.140	3.888689	-3.462526	578.918396	3.987862	-11.234334	0.122414	1.940573	0.688847
0.150	3.892741	-3.461067	578.951353	3.990269	-11.200295	0.120145	1.934583	0.689224
0.160	3.900435	-3.456437	579.029066	3.988265	-11.169020	0.117006	1.928922	0.688785
0.170	3.908177	-3.447876	579.125202	3.985447	-11.139584	0.113918	1.923519	0.688184
0.180	3.912674	-3.435466	579.224099	3.984944	-11.111634	0.111830	1.918365	0.687980
0.190	3.912203	-3.419974	579.322683	3.988418	-11.085345	0.111438	1.913501	0.688462
0.200	3.906862	-3.402390	579.424328	3.995655	-11.061039	0.113051	1.908970	0.689591
0.210	3.897680	-3.383514	579.529656	4.004785	-11.038687	0.116602	1.904767	0.691040
0.220	3.885500	-3.363998	579.630298	4.013017	-11.017560	0.121674	1.900791	0.692341
0.230	3.870584	-3.344786	579.708950	4.017655	-10.996276	0.127485	1.896862	0.693047
0.240	3.853086	-3.327385	579.745399	4.017004	-10.973289	0.132919	1.892777	0.692891
0.250	3.833753	-3.313542	579.725523	4.010913	-10.947605	0.136767	1.888412	0.691864
0.260	3.814275	-3.304413	579.649395	4.000796	-10.919347	0.138171	1.883785	0.690210
0.270	3.797102	-3.299779	579.534916	3.989039	-10.889839	0.137049	1.879065	0.688317
0.280	3.784747	-3.297921	579.414258	3.977904	-10.861140	0.134187	1.874503	0.686539
0.290	3.778728	-3.296350	579.322481	3.968335	-10.835255	0.130910	1.870332	0.684996
0.300	3.778663	-3.293157	579.282293	3.959331	-10.813311	0.128472	1.866674	0.683489
0.310	3.782278	-3.288207	579.293193	3.948335	-10.795020	0.127511	1.863481	0.681578
0.320	3.786523	-3.283388	579.332035	3.932497	-10.778614	0.127824	1.860524	0.678798
0.330	3.789143	-3.281692	579.365312	3.910126	-10.761269	0.128561	1.857424	0.674898
0.340	3.789778	-3.285765	579.366429	3.881508	-10.739925	0.128709	1.853736	0.669957
0.350	3.790048	-3.296836	579.328880	3.848735	-10.712247	0.127624	1.849079	0.664344
0.360	3.792630	-3.314450	579.269022	3.814745	-10.677439	0.125374	1.843261	0.658545
0.370	3.799735	-3.336786	579.217740	3.782136	-10.636515	0.122722	1.836359	0.652973
0.380	3.811681	-3.361172	579.205705	3.752276	-10.591884	0.120750	1.828691	0.647831
0.390	3.826361	-3.384552	579.249546	3.724928	-10.546508	0.120304	1.820719	0.643061
0.400	3.840108	-3.403870	579.345006	3.698342	-10.503122	0.121571	1.812930	0.638366
0.410	3.849681	-3.416458	579.468966	3.669735	-10.463838	0.124046	1.805763	0.633293
0.420	3.854438	-3.420610	579.587739	3.636094	-10.430150	0.126872	1.799581	0.627359
0.430	3.857463	-3.416348	579.667152	3.595194	-10.403123	0.129277	1.794672	0.620217
0.440	3.864833	-3.406087	579.681301	3.546556	-10.383578	0.130824	1.791256	0.611811
0.450	3.883041	-3.394740	579.619087	3.491849	-10.372123	0.131357	1.789472	0.602439
0.460	3.915603	-3.388974	579.488338	3.434434	-10.368989	0.130814	1.789335	0.592667
0.470	3.960525	-3.395612	579.316483	3.378127	-10.373695	0.129122	1.790678	0.583123
0.480	4.010054	-3.419570	579.146103	3.325760	-10.384734	0.126269	1.793111	0.574252
0.490	4.053090	-3.462048	579.024687	3.278186	-10.399564	0.122485	1.796048	0.566156
0.500	4.079305	-3.519697	578.990525	3.234168	-10.415082	0.118342	1.798835	0.558587
0.510	4.083320	-3.585130	579.059675	3.191183	-10.428471	0.114627	1.800932	0.551097
0.520	4.067270	-3.648668	579.219731	3.146770	-10.438030	0.112017	1.802085	0.543277
0.530	4.040696	-3.700881	579.433173	3.099720	-10.443558	0.110736	1.802375	0.534957
0.540	4.017541	-3.735366	579.648871	3.050485	-10.446079	0.110406	1.802139	0.526264
0.550	4.011100	-3.751063	579.817732	3.000662	-10.447070	0.110141	1.801785	0.517518
0.560	4.028899	-3.753084	579.907612	2.952030	-10.447602	0.108824	1.801598	0.509052
0.570	4.069772	-3.751123	579.912539	2.905854	-10.447736	0.105407	1.801606	0.501085
0.580	4.124460	-3.755517	579.852659	2.862820	-10.446383	0.099207	1.801558	0.493715
0.590	4.179259	-3.772540	579.764782	2.823390	-10.441700	0.090189	1.801023	0.486989
0.600	4.220902	-3.801364	579.687243	2.788057	-10.431989	0.079211	1.799589	0.480959
0.610	4.240644	-3.834361	579.645014	2.757140	-10.416721	0.068068	1.797086	0.475660
0.620	4.236324	-3.860615	579.640739	2.730284	-10.397139	0.059162	1.793721	0.471030
0.630	4.212184	-3.870856	579.655048	2.706135	-10.376024	0.054787	1.790034	0.466853
0.640	4.176999	-3.861479	579.656060	2.682516	-10.356739	0.056249	1.786704	0.462777
0.650	4.141324	-3.835974	579.614114	2.657069	-10.342041	0.063238	1.784298	0.458420
0.660	4.114635	-3.803491	579.515000	2.628069	-10.333208	0.073815	1.783079	0.453494
0.670	4.102852	-3.775498	579.365689	2.595098	-10.329712	0.085118	1.782935	0.447921
0.680	4.106695	-3.762035	579.191146	2.559367	-10.329399	0.094481	1.783418	0.441886
0.690	4.121385	-3.768923	579.025917	2.523487	-10.329040	0.100444	1.783865	0.435816
0.700	4.138057	-3.796535	578.905643	2.490622	-10.325114	0.103172	1.783557	0.430229
0.710	4.146654	-3.839987	578.861022	2.463278	-10.314762	0.104161	1.781907	0.425539
0.720	4.139399	-3.890245	578.913312	2.442330	-10.296702	0.105406	1.778626	0.421882
0.730	4.113654	-3.935902	579.069368	2.426760	-10.271838	0.108452	1.773853	0.419079
0.740	4.073201	-3.965862	579.315976	2.414193	-10.243273	0.113698	1.768167	0.416732
0.750	4.027293	-3.972815	579.616321	2.401858	-10.215559	0.120207	1.762469	0.414388
0.760	3.987586	-3.956352	579.913051	2.387492	-10.193321	0.126061	1.757733	0.411698
0.770	3.964139	-3.923801	580.140461	2.369811	-10.179711	0.129133	1.754698	0.408489
0.780	3.962323	-3.887700	580.243551	2.348473	-10.175319	0.127990	1.753629	0.404739
0.790	3.981835	-3.860822	580.196574	2.323726	-10.178018	0.122580	1.754236	0.400507
0.800	4.017601	-3.851247	580.012127	2.296046	-10.183752	0.114389	1.755783	0.395862
0.810	4.061468	-3.859903	579.736105	2.265982	-10.187854	0.105932	1.757326	0.390864
0.820	4.103801	-3.881444	579.431813	2.234201	-10.186263	0.099783	1.757974	0.385585
0.830	4.134892	-3.907556	579.161855	2.201480	-10.176224	0.097556	1.757061	0.380115
0.840	4.146435	-3.930850	578.975167	2.168469	-10.156433	0.099356	1.754209	0.374536
0.850	4.133183	-3.947591	578.900806	2.135326	-10.126875	0.103922	1.749328	0.368859
0.860	4.094516	-3.958423	578.945863	2.101602	-10.088638	0.109299	1.742587	0.363005
0.870	4.035313	-3.967233	579.095335	2.066599	-10.043722	0.113647	1.734381	0.356867
0.880	3.965441	-3.978971	579.314580	2.030037	-9.994745	0.115833	1.725271	0.350421
0.890	3.897502	-3.997385	579.555947	1.992545	-9.944414	0.115670	1.715868	0.343805
0.900	3.843127	-4.023443	579.769690	1.955605	-9.894875	0.113819	1.706691	0.337307
0.910	3.808985	-4.054870	579.916653	1.920918	-9.847189	0.111463	1.698035	0.331240
0.920	3.794192	-4.086804	579.977789	1.889557	-9.801167	0.109869	1.689921	0.325798
0.930	3.790591	-4.113334	579.955824	1.861387	-9.755596	0.109931	1.682127	0.320953
0.940	3.786023	-4.129422	579.868639	1.835110	-9.708759	0.111842	1.674303	0.316470
0.950	3.769155	-4.132652	579.739004	1.808928	-9.659085	0.115025	1.666109	0.312025
0.960	3.733580	-4.124197	579.586591	1.781464	-9.605731	0.118335	1.657342	0.307368
0.970	3.679415	-4.108650	579.425607	1.752535	-9.548856	0.120405	1.647987	0.302461
0.980	3.612068	-4.092724	579.267718	1.723455	-9.489420	0.119994	1.638175	0.297523
0.990	3.539324	-4.083279	579.127062	1.696762	-9.428633	0.116253	1.628077	0.292986
1.000	3.468534	-4.085252	579.023032	1.675398	-9.367472	0.108915	1.617807	0.289349
1.010	3.405207	-4.100078	578.978018	1.661538	-9.306559	0.098432	1.607412	0.286978
1.020	3.353091	-4.125091	579.010359	1.655480	-9.246411	0.085991	1.596934	0.285915
1.030	3.314875	-4.154239	579.125244	1.655130	-9.187771	0.073344	1.586491	0.285798
1.040	3.292514	-4.180013	579.307630	1.656476	-9.131729	0.062437	1.576318	0.285941
1.050	3.286887	-4.195858	579.521364	1.654957	-9.079553	0.054928	1.566733	0.285573
1.060	3.297218	-4.198028	579.717191	1.647179	-9.032359	0.051723	1.558063	0.284135
1.070	3.320853	-4.186259	579.848165	1.632220	-8.990853	0.052727	1.550553	0.281491
1.080	3.353594	-4.163397	579.886116	1.611996	-8.955259	0.056891	1.544313	0.277985
1.090	3.390476	-4.134465	579.831138	1.590557	-8.925453	0.062566	1.539319	0.274314
1.100	3.426672	-4.105525	579.709956	1.572645	-8.901255	0.067992	1.535467	0.271281
1.110	3.458328	-4.082359	579.565483	1.562153	-8.882789	0.071719	1.532663	0.269539
1.120	3.483114	-4.068992	579.443279	1.561039	-8.870692	0.072840	1.530899	0.269403
1.130	3.500519	-4.066313	579.379477	1.568975	-8.865964	0.071058	1.530252	0.270803
1.140	3.511943	-4.071457	579.392468	1.583696	-8.869479	0.066633	1.530824	0.273337
1.150	3.520657	-4.078544	579.479918	1.601867	-8.881442	0.060295	1.532658	0.276432
1.160	3.531382	-4.080747	579.621907	1.620260	-8.901147	0.053087	1.535682	0.279537
1.170	3.549217	-4.072880	579.788705	1.636954	-8.927108	0.046151	1.539717	0.282336
1.180	3.577979	-4.053487	579.949434	1.652146	-8.957470	0.040450	1.544526	0.284878
1.190	3.618546	-4.025590	580.078443	1.668077	-8.990419	0.036519	1.549863	0.287561
1.200	3.667960	-3.995746	580.158543	1.687871	-9.024419	0.034392	1.555509	0.290933
1.210	3.719867	-3.971664	580.181864	1.713815	-9.058222	0.033749	1.561273	0.295393
1.220	3.766562	-3.959287	580.148996	1.746054	-9.090739	0.034188	1.566966	0.300966
1.230	3.802088	-3.960483	580.067035	1.782442	-9.120948	0.035458	1.572396	0.307282
1.240	3.824924	-3.972260	579.947511	1.819478	-9.148004	0.037582	1.577385	0.313732
1.250	3.838637	-3.987850	579.804964	1.853642	-9.171584	0.040856	1.581840	0.319701
1.260	3.849984	-3.999265	579.656063	1.882458	-9.192306	0.045719	1.585821	0.324754
1.270	3.865457	-4.000352	579.518714	1.904962	-9.211894	0.052462	1.589577	0.328714
1.280	3.888185	-3.989100	579.410825	1.921529	-9.232830	0.060879	1.593486	0.331635
1.290	3.916815	-3.968144	579.348457	1.933251	-9.257522	0.070058	1.597919	0.333694
1.300	3.946664	-3.943234	579.342785	1.941215	-9.287333	0.078507	1.603081	0.335072
1.310	3.971949	-3.920375	579.395768	1.946104	-9.321934	0.084631	1.608906	0.335885
1.320	3.987603	-3.902978	579.496416	1.948297	-9.359284	0.087375	1.615072	0.336205
1.330	3.990096	-3.890341	579.621291	1.948298	-9.396311	0.086675	1.621112	0.336133
1.340	3.977813	-3.878253	579.741197	1.947135	-9.430105	0.083471	1.626606	0.335863
1.350	3.951716	-3.861538	579.831135	1.946386	-9.459197	0.079257	1.631371	0.335682
1.360	3.916334	-3.837364	579.877234	1.947789	-9.484339	0.075424	1.635577	0.335897
1.370	3.880237	-3.807551	579.876416	1.952664	-9.508355	0.072776	1.639721	0.336738
1.380	3.854895	-3.778530	579.830301	1.961526	-9.535025	0.071488	1.644451	0.338293
1.390	3.851519	-3.758893	579.739779	1.974084	-9.567508	0.071448	1.650311	0.340512
1.400	3.876908	-3.755789	579.606613	1.989516	-9.607071	0.072681	1.657516	0.343253
1.410	3.930410	-3.771804	579.442525	2.006720	-9.652755	0.075495	1.665869	0.346319
1.420	4.003872	-3.803498	579.278107	2.024324	-9.702078	0.080266	1.674857	0.349456
1.430	4.084887	-3.841977	579.161371	2.040574	-9.752255	0.087028	1.683858	0.352332
1.440	4.161880	-3.875436	579.142364	2.053463	-9.801218	0.095168	1.692368	0.354570
1.450	4.228591	-3.892995	579.250794	2.061335	-9.847973	0.103434	1.700122	0.355862
1.460	4.285743	-3.888431	579.478856	2.063746	-9.892354	0.110290	1.707112	0.356138
1.470	4.339101	-3.862141	579.778091	2.061970	-9.934535	0.114474	1.713506	0.355648
1.480	4.394932	-3.820568	580.071465	2.058693	-9.974664	0.115506	1.719558	0.354903
1.490	4.455290	-3.773711	580.275574	2.056907	-10.012784	0.113907	1.725522	0.354471
1.500	4.515675	-3.732147	580.325306	2.058600	-10.048935	0.111007	1.731604	0.354732
1.510	4.566320	-3.704542	580.193876	2.063921	-10.083291	0.108456	1.737918	0.355730
1.520	4.596414	-3.695880	579.902985	2.071233	-10.116196	0.107667	1.744464	0.357169
1.530	4.599117	-3.706275	579.519882	2.077976	-10.148077	0.109398	1.751118	0.358568
1.540	4.574977	-3.730511	579.140274	2.081866	-10.179298	0.113603	1.757657	0.359475
1.550	4.532330	-3.758850	578.859985	2.081852	-10.210069	0.119517	1.763824	0.359647
1.560	4.484677	-3.779490	578.743888	2.078487	-10.240469	0.125916	1.769430	0.359138
1.570	4.446300	-3.782341	578.804781	2.073692	-10.270479	0.131477	1.774429	0.358271
1.580	4.427900	-3.762760	579.002562	2.070171	-10.299916	0.135156	1.778907	0.357541
1.590	4.433817	-3.723539	579.264055	2.070664	-10.328291	0.136498	1.783002	0.357465
1.600	4.461583	-3.673997	579.512892	2.077154	-10.354771	0.135764	1.786806	0.358431
1.610	4.503711	-3.626387	579.694994	2.090162	-10.378347	0.133829	1.790312	0.360562
1.620	4.550933	-3.591087	579.790174	2.108353	-10.398113	0.131931	1.793427	0.363641
1.630	4.595616	-3.572729	579.808790	2.128708	-10.413573	0.131309	1.796036	0.367140
1.640	4.634064	-3.569043	579.778706	2.147265	-10.424854	0.132797	1.798075	0.370359
1.650	4.666939	-3.572972	579.729875	2.160200	-10.432715	0.136465	1.799582	0.372622
1.660	4.697819	-3.576935	579.682820	2.164854	-10.438235	0.141508	1.800680	0.373455
1.670	4.730685	-3.576814	579.644588	2.160356	-10.442179	0.146492	1.801480	0.372704
1.680	4.767462	-3.573448	579.612149	2.147641	-10.444261	0.149861	1.801940	0.370531
1.690	4.806536	-3.571131	579.579836	2.128898	-10.442683	0.150486	1.801768	0.367318
1.700	4.842643	-3.574642	579.546065	2.106706	-10.434297	0.148035	1.800426	0.363510
1.710	4.867975	-3.586920	579.515879	2.083197	-10.415477	0.143051	1.797272	0.359472
1.720	4.874207	-3.608327	579.498619	2.059593	-10.383428	0.136756	1.791795	0.355410
1.730	4.855119	-3.637123	579.502785	2.036245	-10.337384	0.130650	1.783837	0.351378
1.740	4.809156	-3.670359	579.531574	2.013062	-10.279214	0.126042	1.773711	0.347360
1.750	4.740936	-3.704711	579.581792	1.990059	-10.213224	0.123655	1.762171	0.343361
1.760	4.660775	-3.737009	579.646211	1.967641	-10.145216	0.123404	1.750243	0.339456
1.770	4.582047	-3.764444	579.717128	1.946426	-10.081009	0.124373	1.738953	0.335754
1.780	4.517070	-3.784747	579.788562	1.926724	-10.024801	0.124997	1.729044	0.332315
1.790	4.473052	-3.796710	579.855883	1.908076	-9.977922	0.123430	1.720759	0.329060
1.800	4.449822	-3.800977	579.913368	1.889282	-9.938495	0.118106	1.713790	0.325787
1.810	4.440415	-3.800406	579.951492	1.869036	-9.902218	0.108351	1.707422	0.322274
1.820	4.434177	-3.799347	579.956804	1.846831	-9.864004	0.094842	1.700817	0.318443
1.830	4.420789	-3.801965	579.916553	1.823517	-9.819803	0.079596	1.693313	0.314445
1.840	4.393349	-3.810636	579.826923	1.801156	-9.767755	0.065417	1.684598	0.310637
1.850	4.349551	-3.825555	579.699671	1.782291	-9.708175	0.055015	1.674691	0.307451
1.860	4.291104	-3.845756	579.561346	1.769082	-9.642570	0.050132	1.663770	0.305245
1.870	4.222118	-3.870652	579.443864	1.762661	-9.572411	0.050953	1.652000	0.304199
1.880	4.147154	-3.900835	579.371962	1.762860	-9.498430	0.055978	1.639436	0.304271
1.890	4.069465	-3.937496	579.355980	1.768256	-9.420675	0.062424	1.626060	0.305211
1.900	3.989880	-3.980899	579.393961	1.776449	-9.339068	0.067148	1.611868	0.306605
1.910	3.906763	-4.029079	579.479025	1.784510	-9.253975	0.067789	1.596947	0.307951
1.920	3.817319	-4.077817	579.604015	1.789647	-9.166451	0.063659	1.581502	0.308771
1.930	3.720002	-4.121928	579.759298	1.790075	-9.078138	0.055917	1.565846	0.308762
1.940	3.617014	-4.156927	579.926874	1.785890	-8.990987	0.046967	1.550366	0.307951
1.950	3.515535	-4.180047	580.077495	1.779508	-8.907023	0.039338	1.535488	0.306771
1.960	3.426662	-4.190328	580.175045	1.775257	-8.828182	0.034621	1.521641	0.305986
1.970	3.362103	-4.188144	580.187195	1.778076	-8.756134	0.032914	1.509191	0.306466
1.980	3.329822	-4.174613	580.097692	1.791745	-8.691992	0.032993	1.498367	0.308870
1.990	3.330569	-4.151183	579.915031	1.817480	-8.635995	0.033030	1.489183	0.313405
2.000	3.356960	-4.119589	579.673540	1.853556	-8.587398	0.031463	1.481420	0.319759
2.010	3.395629	-4.082197	579.425475	1.896071	-8.544788	0.027632	1.474700	0.327233
2.020	3.431480	-4.042438	579.226046	1.940353	-8.506740	0.021916	1.468639	0.334991
2.030	3.452224	-4.004751	579.116656	1.982308	-8.472429	0.015408	1.462992	0.342299
2.040	3.451430	-3.973610	579.112850	2.019291	-8.441853	0.009345	1.457721	0.348687
2.050	3.429399	-3.951755	579.201509	2.050448	-8.415675	0.004641	1.452979	0.354013
2.060	3.392222	-3.938521	579.347793	2.076660	-8.394942	0.001755	1.449033	0.358448
2.070	3.349874	-3.929453	579.508310	2.100274	-8.380839	0.000859	1.446198	0.362423
2.080	3.313832	-3.917833	579.644838	2.124637	-8.374478	0.002071	1.444760	0.366541
2.090	3.294449	-3.897564	579.733546	2.153397	-8.376581	0.005545	1.444902	0.371446
2.100	3.298408	-3.865985	579.767810	2.189486	-8.387086	0.011386	1.446628	0.377649
2.110	3.326994	-3.825312	579.755997	2.233990	-8.404797	0.019503	1.449713	0.385333
2.120	3.375804	-3.781997	579.716489	2.285390	-8.427318	0.029484	1.453696	0.394225
2.130	3.435976	-3.744204	579.670712	2.339683	-8.451408	0.040548	1.457967	0.403623
2.140	3.496529	-3.718344	579.634479	2.391516	-8.473695	0.051661	1.461903	0.412590
2.150	3.547193	-3.706167	579.610304	2.435939	-8.491492	0.061792	1.465035	0.420272
2.160	3.580891	-3.703804	579.585687	2.470064	-8.503375	0.070193	1.467147	0.426178
2.170	3.595063	-3.703294	579.540440	2.493982	-8.509344	0.076553	1.468292	0.430338
2.180	3.591393	-3.695995	579.460229	2.510609	-8.510539	0.080940	1.468701	0.433267
2.190	3.574182	-3.676399	579.348643	2.524611	-8.508673	0.083560	1.468662	0.435767
2.200	3.548179	-3.644609	579.230259	2.540842	-8.505399	0.084460	1.468397	0.438658
2.210	3.516854	-3.606296	579.142400	2.562899	-8.501869	0.083393	1.468010	0.442533
2.220	3.481963	-3.570152	579.119494	2.592226	-8.498670	0.080042	1.467516	0.447615
2.230	3.444647	-3.544146	579.177687	2.628038	-8.496107	0.074555	1.466926	0.453753
2.240	3.407536	-3.532493	579.307012	2.667989	-8.494553	0.068003	1.466330	0.460548
2.250	3.376470	-3.534603	579.474622	2.709260	-8.494619	0.062368	1.465917	0.467537
2.260	3.360348	-3.545941	579.637136	2.749578	-8.497064	0.059949	1.465928	0.474362
2.270	3.368453	-3.559778	579.756380	2.787772	-8.502519	0.062502	1.466568	0.480852
2.280	3.406135	-3.568858	579.812588	2.823723	-8.511178	0.070526	1.467919	0.487006
2.290	3.470954	-3.566667	579.810942	2.857859	-8.522498	0.082989	1.469875	0.492895
2.300	3.551415	-3.548394	579.778962	2.890502	-8.534975	0.097573	1.472108	0.498552
2.310	3.629297	-3.511733	579.754320	2.921428	-8.546181	0.111361	1.474104	0.503908
2.320	3.684797	-3.457622	579.766603	2.949824	-8.553326	0.121736	1.475305	0.508795
2.330	3.702476	-3.390845	579.821234	2.974657	-8.554318	0.127192	1.475337	0.513030
2.340	3.675672	-3.320011	579.894481	2.995241	-8.548875	0.127751	1.474212	0.516515
2.350	3.607772	-3.256212	579.942855	3.011743	-8.539003	0.124812	1.472387	0.519317
2.360	3.510150	-3.210279	579.921956	3.025377	-8.528491	0.120512	1.470627	0.521687
2.370	3.398202	-3.189523	579.805286	3.038145	-8.521657	0.116912	1.469745	0.523994
2.380	3.287577	-3.195364	579.595096	3.052181	-8.521997	0.115353	1.470336	0.526606
2.390	3.191940	-3.222898	579.322068	3.068893	-8.531312	0.116228	1.472637	0.529739
2.400	3.121933	-3.262461	579.035669	3.088199	-8.549591	0.119132	1.476522	0.533335
2.410	3.084222	-3.302436	578.790331	3.108169	-8.575564	0.123223	1.481636	0.537011
