Time[s]	Fx[N]	Fy[N]	Fz[N]	Mx[Nm]	My[Nm]	Mz[Nm]	COPx[cm]	COPy[cm]
0.010	-0.079176	1.047963	725.812234	1.312706	27.965945	-0.302788	-3.853055	0.180860
0.020	-1.017448	0.741680	725.351367	0.719292	28.581917	-0.311029	-3.940424	0.099165
0.030	-1.920155	0.404907	725.078680	0.118507	29.198093	-0.317030	-4.026886	0.016344
0.040	-2.757480	0.022238	725.149930	-0.493667	29.814311	-0.318364	-4.111468	-0.068078
0.050	-3.509302	-0.398963	725.666716	-1.115988	30.429873	-0.312470	-4.193368	-0.153788
0.060	-4.169016	-0.827786	726.660814	-1.741775	31.043288	-0.296991	-4.272047	-0.239696
0.070	-4.744504	-1.217643	728.093400	-2.360417	31.652096	-0.270343	-4.347258	-0.324192
0.080	-5.254457	-1.520170	729.870325	-2.959686	32.252559	-0.232272	-4.418944	-0.405508
0.090	-5.719795	-1.700547	731.867891	-3.527904	32.838949	-0.184181	-4.487005	-0.482041
0.100	-6.152798	-1.749237	733.959063	-4.055446	33.402517	-0.129085	-4.551005	-0.552544
0.110	-6.548855	-1.686333	736.029943	-4.535527	33.930889	-0.071224	-4.609988	-0.616215
0.120	-6.885573	-1.557003	737.981677	-4.964547	34.408877	-0.015435	-4.662565	-0.672720
0.130	-7.130676	-1.419308	739.721862	-5.342263	34.821038	0.033647	-4.707315	-0.722199
0.140	-7.255457	-1.328139	741.156243	-5.671795	35.155215	0.072488	-4.743293	-0.765263
0.150	-7.247479	-1.320049	742.190729	-5.959301	35.405549	0.099480	-4.770411	-0.802934
0.160	-7.116686	-1.403416	742.745931	-6.213143	35.573649	0.115420	-4.789477	-0.836510
0.170	-6.892487	-1.556870	742.777360	-6.442548	35.667458	0.123392	-4.801904	-0.867359
0.180	-6.613655	-1.736543	742.290306	-6.655928	35.698339	0.127990	-4.809215	-0.896675
0.190	-6.315809	-1.889917	741.341254	-6.859120	35.677542	0.134030	-4.812567	-0.925231
0.200	-6.021779	-1.971842	740.024933	-7.053966	35.613497	0.145093	-4.812473	-0.953206
0.210	-5.738361	-1.957686	738.453301	-7.237883	35.510958	0.162386	-4.808829	-0.980141
0.220	-5.460080	-1.849721	736.735881	-7.405045	35.372161	0.184364	-4.801200	-1.005115
0.230	-5.177725	-1.675267	734.968535	-7.549151	35.199217	0.207345	-4.789214	-1.027139
0.240	-4.887508	-1.477875	733.232283	-7.666811	34.996429	0.226845	-4.772898	-1.045618
0.250	-4.596242	-1.304919	731.598802	-7.759968	34.771380	0.239065	-4.752793	-1.060686
0.260	-4.319834	-1.195616	730.136900	-7.836133	34.534405	0.241922	-4.729853	-1.073242
0.270	-4.076148	-1.172765	728.914913	-7.906343	34.296865	0.235338	-4.705195	-1.084673
0.280	-3.876824	-1.240126	727.996684	-7.981971	34.069090	0.220862	-4.679841	-1.096430
0.290	-3.723180	-1.385704	727.432541	-8.071988	33.858672	0.200887	-4.654545	-1.109655
0.300	-3.607894	-1.589392	727.250377	-8.181896	33.669276	0.177775	-4.629668	-1.125045
0.310	-3.519531	-1.831580	727.453245	-8.314489	33.499702	0.153229	-4.605066	-1.142959
0.320	-3.444703	-2.098696	728.027146	-8.471670	33.342933	0.128207	-4.579902	-1.163648
0.330	-3.364728	-2.383012	728.956740	-8.656038	33.185220	0.103443	-4.552427	-1.187456
0.340	-3.248403	-2.677183	730.241002	-8.871212	33.005765	0.080248	-4.519846	-1.214833
0.350	-3.046726	-2.967226	731.898385	-9.120625	32.777669	0.061014	-4.478445	-1.246160
0.360	-2.696032	-3.229038	733.953701	-9.405417	32.470753	0.048927	-4.424087	-1.281473
0.370	-2.132703	-3.432165	736.406697	-9.722562	32.056347	0.046900	-4.353077	-1.320271
0.380	-1.316703	-3.550837	739.192712	-10.064294	31.513363	0.056170	-4.263213	-1.361525
0.390	-0.255549	-3.577929	742.153481	-10.419283	30.833954	0.075285	-4.154660	-1.403926
0.400	0.982682	-3.534984	745.035650	-10.775163	30.026525	0.100027	-4.030213	-1.446261
0.410	2.276663	-3.472290	747.524038	-11.121340	29.114437	0.124452	-3.894783	-1.487757
0.420	3.481036	-3.457137	749.301042	-11.450867	28.130529	0.142696	-3.754236	-1.528206
0.430	4.468346	-3.553787	750.111704	-11.760665	27.109441	0.150819	-3.614054	-1.567855
0.440	5.166751	-3.802732	749.812533	-12.050204	26.080705	0.147936	-3.478297	-1.607096
0.450	5.577515	-4.207397	748.390808	-12.319497	25.064938	0.136329	-3.349178	-1.646131
0.460	5.766136	-4.733141	745.953627	-12.567541	24.073835	0.120686	-3.227256	-1.684762
0.470	5.833477	-5.318148	742.695747	-12.791872	23.113024	0.106825	-3.112045	-1.722357
0.480	5.880940	-5.891296	738.859551	-12.989130	22.185961	0.100287	-3.002730	-1.757997
0.490	5.983306	-6.390268	734.699300	-13.156082	21.297208	0.105084	-2.898765	-1.790676
0.500	6.176441	-6.774205	730.456781	-13.290562	20.454211	0.122856	-2.800195	-1.819486
0.510	6.459666	-7.028301	726.349485	-13.392099	19.667498	0.152647	-2.707718	-1.843754
0.520	6.807496	-7.161192	722.568364	-13.462211	18.949704	0.191382	-2.622548	-1.863106
0.530	7.184044	-7.198232	719.280436	-13.504465	18.313882	0.234879	-2.546139	-1.877496
0.540	7.554682	-7.173881	716.630863	-13.524312	17.771525	0.279013	-2.479872	-1.887208
0.550	7.892477	-7.125125	714.740173	-13.528702	17.330712	0.320634	-2.424757	-1.892814
0.560	8.179878	-7.086228	713.695586	-13.525345	16.994807	0.358004	-2.381240	-1.895114
0.570	8.407714	-7.084392	713.539680	-13.521628	16.762037	0.390717	-2.349139	-1.895007
0.580	8.573271	-7.136183	714.261979	-13.523443	16.626042	0.419243	-2.327723	-1.893345
0.590	8.677926	-7.245278	715.798034	-13.534222	16.577142	0.444289	-2.315897	-1.890788
0.600	8.724445	-7.402481	718.036816	-13.554385	16.603872	0.466183	-2.312398	-1.887701
0.610	8.714641	-7.588675	720.833505	-13.581153	16.694248	0.484499	-2.315964	-1.884090
0.620	8.648586	-7.780419	724.023511	-13.608711	16.836378	0.498045	-2.325391	-1.879595
0.630	8.525898	-7.956653	727.435002	-13.628798	17.018375	0.505169	-2.339505	-1.873542
0.640	8.348465	-8.104053	730.899162	-13.631768	17.227961	0.504229	-2.357091	-1.865068
0.650	8.123284	-8.218661	734.258041	-13.607928	17.452348	0.494087	-2.376869	-1.853290
0.660	7.863890	-8.302870	737.369321	-13.548630	17.678738	0.474525	-2.397542	-1.837428
0.670	7.589267	-8.358944	740.107576	-13.446642	17.895350	0.446483	-2.417939	-1.816850
0.680	7.320181	-8.381848	742.363591	-13.295738	18.092503	0.411992	-2.437148	-1.791001
0.690	7.074396	-8.354637	744.045110	-13.089881	18.263276	0.373785	-2.454593	-1.759286
0.700	6.862929	-8.248852	745.081563	-12.822539	18.403508	0.334755	-2.469999	-1.720958
0.710	6.688892	-8.030595	745.432233	-12.486640	18.511241	0.297433	-2.483290	-1.675087
0.720	6.549075	-7.670538	745.094521	-12.075373	18.585916	0.263628	-2.494437	-1.620650
0.730	6.437264	-7.154321	744.108615	-11.583707	18.627733	0.234287	-2.503362	-1.556723
0.740	6.347665	-6.489464	742.556739	-11.010119	18.637501	0.209670	-2.509909	-1.482731
0.750	6.276947	-5.706307	740.557072	-10.357811	18.617064	0.189826	-2.513927	-1.398651
0.760	6.224363	-4.852758	738.252817	-9.634898	18.570041	0.175165	-2.515404	-1.305095
0.770	6.190619	-3.984708	735.797118	-8.853497	18.502311	0.166729	-2.514594	-1.203253
0.780	6.176748	-3.155272	733.336328	-8.028065	18.421747	0.165907	-2.512046	-1.094732
0.790	6.183639	-2.406026	730.996537	-7.173578	18.337228	0.173678	-2.508525	-0.981342
0.800	6.211648	-1.762407	728.877870	-6.304080	18.257508	0.189847	-2.504879	-0.864902
0.810	6.259365	-1.233881	727.056762	-5.431922	18.190703	0.212755	-2.501965	-0.747111
0.820	6.321518	-0.817747	725.591649	-4.567618	18.144613	0.239687	-2.500665	-0.629503
0.830	6.387125	-0.504227	724.526126	-3.719926	18.127522	0.267712	-2.501983	-0.513429
0.840	6.439097	-0.280473	723.886499	-2.895634	18.148716	0.294449	-2.507122	-0.400012
0.850	6.455660	-0.132323	723.675454	-2.098754	18.218244	0.318379	-2.517461	-0.290013
0.860	6.413028	-0.043837	723.866816	-1.329442	18.345820	0.338613	-2.534419	-0.183658
0.870	6.288608	0.004550	724.405973	-0.583444	18.539225	0.354327	-2.559231	-0.080541
0.880	6.064232	0.037909	725.217161	0.147153	18.802708	0.364213	-2.592700	0.020291
0.890	5.729293	0.086840	726.215352	0.871743	19.135867	0.366209	-2.635013	0.120039
0.900	5.283678	0.184178	727.319134	1.598223	19.533289	0.357702	-2.685656	0.219742
0.910	4.740070	0.358489	728.461935	2.330264	19.984968	0.336202	-2.743447	0.319888
0.920	4.124679	0.626459	729.600486	3.065708	20.477256	0.300296	-2.806640	0.420190
0.930	3.475433	0.987347	730.719519	3.796686	20.994042	0.250533	-2.873064	0.519582
0.940	2.837539	1.422374	731.830888	4.511553	21.517878	0.189827	-2.940280	0.616475
0.950	2.257420	1.900354	732.965354	5.198262	22.030914	0.123151	-3.005724	0.709210
0.960	1.776250	2.388273	734.157525	5.848149	22.515778	0.056550	-3.066887	0.796580
0.970	1.423748	2.862795	735.427785	6.458876	22.956644	-0.004275	-3.121536	0.878247
0.980	1.212844	3.317523	736.767623	7.035507	23.340634	-0.055354	-3.167978	0.954915
0.990	1.136706	3.762650	738.134280	7.589321	23.659284	-0.095309	-3.205282	1.028176
1.000	1.170026	4.217570	739.456564	8.134790	23.909450	-0.125385	-3.233381	1.100104
1.010	1.275285	4.700445	740.648142	8.685766	24.093068	-0.148661	-3.252971	1.172725
1.020	1.412030	5.219562	741.621538	9.252159	24.215690	-0.168783	-3.265235	1.247558
1.030	1.545307	5.769479	742.297809	9.838128	24.284383	-0.188762	-3.271515	1.325361
1.040	1.650069	6.332354	742.611922	10.442107	24.305884	-0.210253	-3.273026	1.406132
1.050	1.711647	6.883058	742.517814	11.058241	24.285556	-0.233472	-3.270703	1.489290
1.060	1.725365	7.396305	741.996459	11.678452	24.227159	-0.257573	-3.265131	1.573923
1.070	1.697983	7.854089	741.065710	12.294449	24.133090	-0.281156	-3.256538	1.659023
1.080	1.650074	8.251593	739.786579	12.899343	24.004817	-0.302699	-3.244830	1.743657
1.090	1.615249	8.599517	738.260607	13.488716	23.843447	-0.320890	-3.229679	1.827094
1.100	1.633025	8.921492	736.616747	14.061046	23.650424	-0.334893	-3.210682	1.908869
1.110	1.736601	9.246854	734.990763	14.617356	23.428206	-0.344512	-3.187551	1.988781
1.120	1.941250	9.600954	733.502654	15.160218	23.180664	-0.350179	-3.160270	2.066825
1.130	2.239404	9.996430	732.237660	15.692573	22.913096	-0.352748	-3.129188	2.143098
1.140	2.604434	10.428696	731.234848	16.216847	22.631973	-0.353237	-3.095035	2.217734
1.150	2.999805	10.877241	730.485482	16.734557	22.344727	-0.352628	-3.058887	2.290882
1.160	3.387995	11.312049	729.941343	17.246185	22.059749	-0.351827	-3.022126	2.362681
1.170	3.735480	11.702672	729.531085	17.750975	21.786416	-0.351723	-2.986359	2.433203
1.180	4.014182	12.026832	729.181002	18.246618	21.534730	-0.353231	-2.953276	2.502344
1.190	4.202499	12.276063	728.835834	18.729142	21.314177	-0.357196	-2.924414	2.569734
1.200	4.288595	12.457263	728.475340	19.193396	21.131828	-0.364162	-2.900830	2.634735
1.210	4.275745	12.590471	728.122697	19.634307	20.990283	-0.374130	-2.882795	2.696566
1.220	4.186531	12.703985	727.841384	20.048661	20.886435	-0.386444	-2.869641	2.754537
1.230	4.061838	12.828100	727.719228	20.436783	20.811864	-0.399887	-2.859876	2.808334
1.240	3.952515	12.988744	727.842291	20.803297	20.754977	-0.413025	-2.851576	2.858215
1.250	3.905394	13.202159	728.265934	21.156438	20.704207	-0.424710	-2.842946	2.905043
1.260	3.948669	13.471434	728.992880	21.505900	20.651115	-0.434604	-2.832828	2.950084
1.270	4.082537	13.785396	729.966673	21.859858	20.592164	-0.443447	-2.820973	2.994638
1.280	4.279103	14.120435	731.083683	22.222193	20.528519	-0.452862	-2.807958	3.039624
1.290	4.491994	14.445673	732.219506	22.591034	20.464102	-0.464713	-2.794804	3.085282
1.300	4.672307	14.730766	733.259177	22.959274	20.402920	-0.480257	-2.782498	3.131127
1.310	4.784781	14.954008	734.118823	23.316826	20.346925	-0.499479	-2.771612	3.176165
1.320	4.817964	15.107781	734.751454	23.653552	20.295265	-0.520955	-2.762195	3.219259
1.330	4.784855	15.199495	735.139004	23.961507	20.244984	-0.542406	-2.753899	3.259453
1.340	4.714921	15.248010	735.279762	24.235663	20.192496	-0.561710	-2.746233	3.296114
1.350	4.642265	15.277224	735.180319	24.473051	20.134886	-0.577869	-2.738768	3.328850
1.360	4.595896	15.309190	734.855406	24.671018	20.070394	-0.591336	-2.731203	3.357262
1.370	4.595807	15.358706	734.332733	24.825573	19.998066	-0.603518	-2.723298	3.380698
1.380	4.654420	15.430346	733.657004	24.930749	19.917039	-0.615677	-2.714762	3.398148
1.390	4.779780	15.518242	732.888788	24.979465	19.826098	-0.627854	-2.705199	3.408357
1.400	4.976801	15.608459	732.098205	24.965549	19.723862	-0.638386	-2.694155	3.410137
1.410	5.245502	15.683040	731.356947	24.885915	19.609438	-0.644319	-2.681240	3.402704
1.420	5.578226	15.723903	730.732434	24.741577	19.482995	-0.642503	-2.666228	3.385860
1.430	5.958950	15.714788	730.285221	24.536701	19.345691	-0.630870	-2.649060	3.359879
1.440	6.366427	15.640867	730.067353	24.275755	19.198844	-0.609246	-2.629736	3.325139
1.450	6.780476	15.487264	730.117510	23.959772	19.042705	-0.579316	-2.608170	3.281632
1.460	7.188629	15.238610	730.450158	23.583161	18.875539	-0.543742	-2.584097	3.228579
1.470	7.589721	14.881077	731.040405	23.132404	18.693687	-0.504866	-2.557135	3.164313
1.480	7.992092	14.406710	731.810985	22.587420	18.492894	-0.463681	-2.527004	3.086510
1.490	8.406484	13.818072	732.629237	21.925642	18.270605	-0.419631	-2.493841	2.992734
1.500	8.836321	13.130434	733.319361	21.127966	18.028485	-0.371388	-2.458477	2.881141
1.510	9.269626	12.369443	733.690448	20.184855	17.774279	-0.318280	-2.422586	2.751141
1.520	9.676645	11.564328	733.575488	19.100488	17.522313	-0.261622	-2.388618	2.603752
1.530	10.015230	10.739090	732.871765	17.893415	17.292201	-0.205108	-2.359513	2.441548
1.540	10.242900	9.905359	731.570951	16.593625	17.105824	-0.153816	-2.338232	2.268218
1.550	10.331254	9.060021	729.769494	15.237348	16.983234	-0.112150	-2.327205	2.087967
1.560	10.276499	8.188757	727.656639	13.861555	16.938756	-0.081791	-2.327850	1.904958
1.570	10.100841	7.274500	725.485118	12.499704	16.978612	-0.060762	-2.340312	1.722944
1.580	9.843609	6.308288	723.533648	11.179326	17.100904	-0.044094	-2.363526	1.545101
1.590	9.546282	5.299352	722.068876	9.921297	17.297733	-0.025676	-2.395579	1.374010
1.600	9.238547	4.281130	721.310552	8.740387	17.558436	-0.000351	-2.434241	1.211737
1.610	8.931242	3.310562	721.402199	7.646579	17.872566	0.034624	-2.477476	1.059961
1.620	8.617900	2.459678	722.390859	6.646587	18.231625	0.079168	-2.523790	0.920082
1.630	8.282436	1.800615	724.220286	5.744982	18.629286	0.130882	-2.572323	0.793264
1.640	7.908527	1.387349	726.739624	4.944531	19.060521	0.186010	-2.622744	0.680372
1.650	7.486676	1.239151	729.725801	4.245764	19.520348	0.240371	-2.675025	0.581830
1.660	7.017169	1.331430	732.915403	3.646290	20.002779	0.290008	-2.729207	0.497505
1.670	6.509554	1.597949	736.040819	3.140459	20.500263	0.331585	-2.785207	0.426669
1.680	5.980417	1.944663	738.864113	2.719596	21.003669	0.362647	-2.842697	0.368078
1.690	5.450770	2.271109	741.200583	2.372552	21.502741	0.381837	-2.901069	0.320096
1.700	4.943236	2.492556	742.926627	2.086228	21.986846	0.389030	-2.959491	0.280812
1.710	4.478722	2.556245	743.974292	1.846029	22.445848	0.385309	-3.017019	0.248131
1.720	4.072985	2.447762	744.321761	1.636551	22.870969	0.372767	-3.072726	0.219871
1.730	3.734469	2.187174	743.988206	1.442743	23.255565	0.354163	-3.125798	0.193920
1.740	3.464764	1.817452	743.034061	1.251389	23.595734	0.332448	-3.175593	0.168416
1.750	3.261574	1.389141	741.561444	1.052349	23.890651	0.310180	-3.221668	0.141910
1.760	3.122348	0.945467	739.708935	0.838817	24.142510	0.288849	-3.263785	0.113398
1.770	3.046181	0.511490	737.639030	0.606257	24.356068	0.268264	-3.301895	0.082189
1.780	3.032773	0.089708	735.521151	0.350415	24.537886	0.246273	-3.336122	0.047642
1.790	3.079254	-0.337221	733.515006	0.065513	24.695405	0.219051	-3.366721	0.008931
1.800	3.177182	-0.797705	731.757857	-0.256310	24.836010	0.182068	-3.394020	-0.035027
1.810	3.312083	-1.318890	730.356438	-0.623906	24.966159	0.131496	-3.418353	-0.085425
1.820	3.466343	-1.914353	729.382149	-1.044858	25.090732	0.065490	-3.439998	-0.143253
1.830	3.623976	-2.575699	728.868241	-1.523104	25.212750	-0.015192	-3.459164	-0.208968
1.840	3.774334	-3.271106	728.809299	-2.057464	25.333581	-0.107442	-3.476023	-0.282305
1.850	3.912531	-3.951756	729.164333	-2.641559	25.453564	-0.206641	-3.490786	-0.362272
1.860	4.036586	-4.564342	729.863730	-3.264942	25.572879	-0.307603	-3.503788	-0.447336
1.870	4.143382	-5.065546	730.818397	-3.914852	25.692388	-0.405290	-3.515564	-0.535681
1.880	4.225859	-5.433567	731.928691	-4.577892	25.814098	-0.495187	-3.526860	-0.625456
1.890	4.272729	-5.672934	733.091970	-5.241289	25.941019	-0.573440	-3.538576	-0.714957
1.900	4.270770	-5.811356	734.209171	-5.893755	26.076407	-0.636941	-3.551632	-0.802735
1.910	4.208982	-5.890196	735.190937	-6.526140	26.222672	-0.683487	-3.566784	-0.887680
1.920	4.083375	-5.952121	735.962745	-7.131814	26.380370	-0.711989	-3.584471	-0.969046
1.930	3.900636	-6.029884	736.468260	-7.706508	26.547611	-0.722578	-3.604719	-1.046414
1.940	3.678905	-6.139335	736.671270	-8.247518	26.720096	-0.716437	-3.627140	-1.119566
1.950	3.444991	-6.278062	736.557602	-8.752628	26.891895	-0.695385	-3.651024	-1.188315
1.960	3.228945	-6.429196	736.137561	-9.219230	27.056838	-0.661376	-3.675514	-1.252379
1.970	3.057874	-6.568253	735.447166	-9.643867	27.210214	-0.616121	-3.699819	-1.311293
1.980	2.950786	-6.670113	734.544987	-10.022124	27.350302	-0.560923	-3.723435	-1.364399
1.990	2.915286	-6.713780	733.502466	-10.348684	27.479260	-0.496697	-3.746308	-1.410859
2.000	2.946149	-6.684313	732.389173	-10.617518	27.603064	-0.424162	-3.768907	-1.449710
2.010	3.025515	-6.573046	731.258719	-10.822356	27.730547	-0.344186	-3.792166	-1.479963
2.020	3.124785	-6.377559	730.142736	-10.957661	27.871953	-0.258175	-3.817329	-1.500756
2.030	3.208371	-6.101928	729.057061	-11.020064	28.037432	-0.168314	-3.845712	-1.511550
2.040	3.239177	-5.756832	728.017133	-11.009772	28.235740	-0.077412	-3.878444	-1.512296
2.050	3.185089	-5.358969	727.054132	-10.931225	28.473118	0.011631	-3.916231	-1.503495
2.060	3.025318	-4.929620	726.223626	-10.792599	28.752303	0.096434	-3.959153	-1.486126
2.070	2.755277	-4.492511	725.603312	-10.604379	29.071811	0.175372	-4.006571	-1.461457
2.080	2.388676	-4.071355	725.281445	-10.377653	29.425861	0.247325	-4.057164	-1.430845
2.090	1.955910	-3.687507	725.340140	-10.122891	29.805117	0.311211	-4.109123	-1.395606
2.100	1.498610	-3.358002	725.837784	-9.849490	30.198133	0.365800	-4.160452	-1.356982
2.110	1.061594	-3.094162	726.794060	-9.565752	30.593045	0.409995	-4.209314	-1.316157
2.120	0.684557	-2.901064	728.180456	-9.278614	30.979079	0.443420	-4.254313	-1.274219
2.130	0.395922	-2.778107	729.918665	-8.992977	31.347518	0.466873	-4.294659	-1.232052
2.140	0.210078	-2.720574	731.888084	-8.711133	31.692048	0.482340	-4.330177	-1.190227
2.150	0.127775	-2.721643	733.941243	-8.432960	32.008562	0.492499	-4.361189	-1.148997
2.160	0.138536	-2.774100	735.923253	-8.157081	32.294707	0.499924	-4.388325	-1.108415
2.170	0.223981	-2.870978	737.689676	-7.882518	32.549478	0.506277	-4.412354	-1.068541
2.180	0.361247	-3.004793	739.118204	-7.610116	32.773089	0.511853	-4.434080	-1.029621
2.190	0.525898	-3.165735	740.112906	-7.343115	32.967185	0.515666	-4.454345	-0.992161
2.200	0.693795	-3.339947	740.603657	-7.086658	33.135330	0.516105	-4.474098	-0.956876
2.210	0.841714	-3.509102	740.545420	-6.846465	33.283584	0.511851	-4.494469	-0.924517
2.220	0.947045	-3.652056	739.920764	-6.627119	33.420973	0.502667	-4.516831	-0.895653
2.230	0.987230	-3.748341	738.745340	-6.430496	33.559629	0.489671	-4.542787	-0.870462
2.240	0.939502	-3.782341	737.073035	-6.254704	33.714374	0.474926	-4.574089	-0.848587
2.250	0.781469	-3.746473	734.997899	-6.093802	33.901555	0.460463	-4.612470	-0.829091
2.260	0.493509	-3.641949	732.652399	-5.938388	34.137103	0.447206	-4.659386	-0.810533
2.270	0.063893	-3.476656	730.202361	-5.776995	34.434118	0.434326	-4.715695	-0.791150
2.280	-0.504073	-3.260993	727.837435	-5.598138	34.800555	0.419387	-4.781364	-0.769147
2.290	-1.186181	-3.003522	725.755050	-5.392637	35.237682	0.399243	-4.855313	-0.743038
2.300	-1.937179	-2.708503	724.138367	-5.155628	35.739791	0.371280	-4.935492	-0.711967
2.310	-2.698527	-2.376392	723.132732	-4.887561	36.295228	0.334465	-5.019165	-0.675887
2.320	-3.411430	-2.007040	722.826910	-4.593792	36.888201	0.289821	-5.103324	-0.635531
2.330	-4.028859	-1.604190	723.243336	-4.282965	37.500609	0.240229	-5.185061	-0.592189
2.340	-4.521214	-1.179234	724.338172	-3.964854	38.113384	0.189684	-5.261822	-0.547376
