Time[s]	Fx[N]	Fy[N]	Fz[N]	Mx[Nm]	My[Nm]	Mz[Nm]	COPx[cm]	COPy[cm]
0.010	-1.081663	-2.189702	726.541130	-22.899056	29.251313	-0.310649	-4.026106	-3.151791
0.020	-1.311124	-2.498142	730.674604	-23.140044	29.759505	-0.328518	-4.072881	-3.166942
0.030	-1.576752	-2.753340	734.404921	-23.379369	30.239507	-0.348618	-4.117552	-3.183444
0.040	-1.894795	-2.911025	737.423797	-23.614847	30.664356	-0.371677	-4.158308	-3.202344
0.050	-2.248761	-2.945679	739.575460	-23.843412	31.009283	-0.395903	-4.192849	-3.223932
0.060	-2.591709	-2.856823	740.879117	-24.060814	31.253914	-0.417168	-4.218490	-3.247603
0.070	-2.860824	-2.670272	741.500613	-24.261754	31.384055	-0.430200	-4.232506	-3.271980
0.080	-2.997673	-2.432568	741.682290	-24.440549	31.392267	-0.430280	-4.232576	-3.295285
0.090	-2.965585	-2.198981	741.654894	-24.592052	31.276969	-0.414727	-4.217186	-3.315835
0.100	-2.757512	-2.018413	741.561309	-24.712420	31.040549	-0.383653	-4.185837	-3.332485
0.110	-2.392574	-1.920506	741.416687	-24.799469	30.687513	-0.339877	-4.139037	-3.344876
0.120	-1.905049	-1.909754	741.116282	-24.852582	30.223722	-0.288257	-4.078135	-3.353398
0.130	-1.332691	-1.968322	740.486197	-24.872280	29.657028	-0.234844	-4.005075	-3.358912
0.140	-0.709804	-2.065237	739.358038	-24.859729	28.998636	-0.186051	-3.922137	-3.362340
0.150	-0.066019	-2.167095	737.640321	-24.816407	28.263945	-0.147848	-3.831670	-3.364296
0.160	0.572151	-2.245855	735.360974	-24.744088	27.471938	-0.124911	-3.735844	-3.364890
0.170	1.180536	-2.282004	732.667028	-24.645099	26.643202	-0.119756	-3.636468	-3.363752
0.180	1.738918	-2.264208	729.785286	-24.522736	25.797414	-0.132073	-3.534932	-3.360267
0.190	2.234347	-2.187809	726.963082	-24.381811	24.951354	-0.158518	-3.432273	-3.353927
0.200	2.664383	-2.053892	724.413303	-24.229212	24.118026	-0.193180	-3.329318	-3.344667
0.210	3.038472	-1.869455	722.280619	-24.074233	23.306949	-0.228707	-3.226855	-3.333086
0.220	3.376204	-1.648107	720.632819	-23.928266	22.525274	-0.257846	-3.125763	-3.320452
0.230	3.702031	-1.410265	719.471455	-23.803576	21.779143	-0.274983	-3.027103	-3.308481
0.240	4.037512	-1.181882	718.753561	-23.711271	21.074623	-0.277189	-2.932107	-3.298943
0.250	4.393914	-0.991230	718.417190	-23.658996	20.417810	-0.264432	-2.842055	-3.293211
0.260	4.768827	-0.863982	718.404141	-23.649111	19.814107	-0.238865	-2.758072	-3.291895
0.270	5.148905	-0.817706	718.673978	-23.678102	19.267143	-0.203505	-2.680930	-3.294693
0.280	5.517350	-0.857491	719.206559	-23.737575	18.777894	-0.160922	-2.610918	-3.300523
0.290	5.861811	-0.974563	719.995061	-23.816613	18.344339	-0.112556	-2.547842	-3.307886
0.300	6.178284	-1.148947	721.035138	-23.904689	17.961647	-0.058926	-2.491092	-3.315329
0.310	6.469669	-1.355521	722.316023	-23.994099	17.622661	-0.000453	-2.439744	-3.321828
0.320	6.741313	-1.571116	723.816163	-24.080971	17.318446	0.061721	-2.392658	-3.326946
0.330	6.997516	-1.779687	725.501962	-24.164420	17.038834	0.125389	-2.348558	-3.330717
0.340	7.241216	-1.973760	727.326336	-24.244307	16.773034	0.187530	-2.306122	-3.333347
0.350	7.476008	-2.152392	729.225232	-24.318837	16.510367	0.244860	-2.264097	-3.334887
0.360	7.707786	-2.317489	731.113689	-24.383390	16.241138	0.294415	-2.221424	-3.335102
0.370	7.944219	-2.470601	732.885483	-24.431268	15.957497	0.333989	-2.177352	-3.333572
0.380	8.192505	-2.611433	734.419798	-24.455915	15.654094	0.362450	-2.131491	-3.329964
0.390	8.457408	-2.737880	735.594804	-24.453468	15.328346	0.379931	-2.083803	-3.324312
0.400	8.740879	-2.846553	736.304300	-24.424511	14.980379	0.387894	-2.034536	-3.317176
0.410	9.042454	-2.933009	736.472659	-24.374371	14.612877	0.388971	-1.984171	-3.309610
0.420	9.358540	-2.991839	736.065183	-24.311984	14.230962	0.386525	-1.933383	-3.302966
0.430	9.680205	-3.017373	735.092989	-24.247828	13.841971	0.383917	-1.883023	-3.298607
0.440	9.991560	-3.005409	733.611799	-24.191648	13.454905	0.383673	-1.834063	-3.297609
0.450	10.271330	-2.955530	731.713970	-24.150573	13.079544	0.386886	-1.787521	-3.300548
0.460	10.497791	-2.872861	729.514838	-24.127921	12.725518	0.393087	-1.744381	-3.307393
0.470	10.654402	-2.768030	727.137436	-24.122710	12.401638	0.400569	-1.705542	-3.317490
0.480	10.732947	-2.654703	724.700886	-24.129886	12.115648	0.406978	-1.671814	-3.329634
0.490	10.733167	-2.545283	722.315937	-24.141378	11.874236	0.409992	-1.643912	-3.342219
0.500	10.660355	-2.446431	720.087088	-24.148034	11.683043	0.407921	-1.622449	-3.353488
0.510	10.523152	-2.356305	718.116772	-24.142112	11.546500	0.400076	-1.607886	-3.361864
0.520	10.332651	-2.264638	716.505628	-24.119661	11.467488	0.386757	-1.600474	-3.366291
0.530	10.102489	-2.155868	715.345934	-24.082033	11.446985	0.368889	-1.600203	-3.366488
0.540	9.848831	-2.014724	714.710728	-24.036003	11.483884	0.347541	-1.606788	-3.363039
0.550	9.589453	-1.832800	714.644164	-23.992404	11.575138	0.323607	-1.619706	-3.357252
0.560	9.341887	-1.613788	715.156666	-23.963663	11.716250	0.297825	-1.638277	-3.350827
0.570	9.121188	-1.374925	716.224063	-23.960857	11.902036	0.271125	-1.661776	-3.345442
0.580	8.937891	-1.143500	717.786776	-23.990871	12.127510	0.245035	-1.689570	-3.342339
0.590	8.796212	-0.949549	719.745596	-24.054099	12.388872	0.221756	-1.721285	-3.342028
0.600	8.692054	-0.817648	721.954987	-24.143092	12.684593	0.203545	-1.756978	-3.344127
0.610	8.610511	-0.760795	724.221082	-24.242649	13.016412	0.191461	-1.797298	-3.347410
0.620	8.523502	-0.777805	726.314585	-24.331970	13.389675	0.184019	-1.843509	-3.350059
0.630	8.389567	-0.853810	728.005314	-24.389133	13.812287	0.176610	-1.897278	-3.350131
0.640	8.158692	-0.962638	729.115879	-24.397349	14.291846	0.162356	-1.960161	-3.346155
0.650	7.784210	-1.070201	729.580597	-24.351375	14.831245	0.134422	-2.032845	-3.337722
0.660	7.240687	-1.138863	729.486873	-24.261705	15.424006	0.089101	-2.114364	-3.325859
0.670	6.542176	-1.133221	729.076191	-24.154320	16.051274	0.028468	-2.201591	-3.313004
0.680	5.751854	-1.027568	728.693818	-24.065080	16.682371	-0.038699	-2.289353	-3.302495
0.690	4.974895	-0.814189	728.696577	-24.029939	17.279625	-0.098572	-2.371306	-3.297660
0.700	4.332715	-0.510013	729.346861	-24.074193	17.806330	-0.136278	-2.441408	-3.300788
0.710	3.926327	-0.158019	730.730028	-24.204807	18.235110	-0.140921	-2.495465	-3.312414
0.720	3.803829	0.179584	732.726304	-24.408851	18.553633	-0.109512	-2.532137	-3.331237
0.730	3.946783	0.436230	735.047447	-24.658550	18.765760	-0.048061	-2.553000	-3.354688
0.740	4.281207	0.559495	737.320963	-24.920603	18.888096	0.030613	-2.561720	-3.379885
0.750	4.706543	0.526042	739.186203	-25.165753	18.943760	0.111233	-2.562786	-3.404521
0.760	5.128042	0.346836	740.367759	-25.374983	18.956031	0.180575	-2.560353	-3.427348
0.770	5.479035	0.060923	740.709273	-25.540809	18.944047	0.230461	-2.557555	-3.448156
0.780	5.727295	-0.278743	740.171623	-25.664625	18.921285	0.258580	-2.556338	-3.467388
0.790	5.868388	-0.621053	738.811574	-25.752483	18.896127	0.267485	-2.557638	-3.485663
0.800	5.913588	-0.928464	736.756662	-25.811638	18.873277	0.262598	-2.561670	-3.503414
0.810	5.879640	-1.182034	734.183433	-25.848945	18.855123	0.250078	-2.568176	-3.520775
0.820	5.783821	-1.380173	731.297557	-25.870847	18.842796	0.235175	-2.576625	-3.537664
0.830	5.643363	-1.533214	728.312555	-25.883840	18.837101	0.221340	-2.586404	-3.553947
0.840	5.475708	-1.656449	725.428250	-25.894451	18.839393	0.210097	-2.597003	-3.569540
0.850	5.296761	-1.764210	722.814128	-25.908561	18.852210	0.201430	-2.608168	-3.584402
0.860	5.117310	-1.866844	720.602034	-25.930640	18.879415	0.194383	-2.619950	-3.598469
0.870	4.940484	-1.970812	718.888662	-25.963525	18.925737	0.187608	-2.632638	-3.611620
0.880	4.763157	-2.080575	717.744127	-26.008758	18.995859	0.179723	-2.646606	-3.623681
0.890	4.581578	-2.200498	717.219798	-26.067030	19.093366	0.169518	-2.662136	-3.634455
0.900	4.398239	-2.335632	717.348025	-26.138331	19.219880	0.156106	-2.679296	-3.643745
0.910	4.225589	-2.491263	718.131103	-26.222003	19.374639	0.139062	-2.697925	-3.651423
0.920	4.083580	-2.671832	719.525149	-26.317196	19.554584	0.118501	-2.717707	-3.657578
0.930	3.991640	-2.880001	721.430002	-26.424062	19.754874	0.095026	-2.738294	-3.662734
0.940	3.959189	-3.116433	723.694107	-26.545262	19.969599	0.069538	-2.759398	-3.668022
0.950	3.980125	-3.380388	726.135379	-26.686886	20.192437	0.042981	-2.780809	-3.675194
0.960	4.034886	-3.670972	728.571194	-26.857917	20.417001	0.016230	-2.802334	-3.686382
0.970	4.099775	-3.988544	730.847041	-27.068068	20.636775	-0.009784	-2.823679	-3.703657
0.980	4.159338	-4.335556	732.854454	-27.324612	20.844740	-0.033765	-2.844322	-3.728518
0.990	4.215599	-4.715836	734.532890	-27.629344	21.033080	-0.053854	-2.863463	-3.761485
1.000	4.288878	-5.131465	735.856070	-27.976787	21.193533	-0.067803	-2.880119	-3.801937
1.010	4.408542	-5.577597	736.809600	-28.354311	21.318797	-0.073631	-2.893393	-3.848255
1.020	4.596997	-6.037395	737.370622	-28.744126	21.404760	-0.070528	-2.902850	-3.898192
1.030	4.854372	-6.480282	737.499349	-29.126541	21.452586	-0.059592	-2.908828	-3.949365
1.040	5.152152	-6.865813	737.146924	-29.483476	21.469458	-0.043968	-2.912507	-3.999674
1.050	5.440003	-7.152814	736.276517	-29.801188	21.467373	-0.028242	-2.915667	-4.047554
1.060	5.662971	-7.310606	734.888020	-30.071547	21.460401	-0.017283	-2.920227	-4.091990
1.070	5.780353	-7.327956	733.034591	-30.291771	21.461685	-0.015007	-2.927786	-4.132379
1.080	5.777016	-7.216653	730.823688	-30.463065	21.481409	-0.023501	-2.939342	-4.168319
1.090	5.663082	-7.009092	728.403773	-30.589014	21.526178	-0.042777	-2.955253	-4.199459
1.100	5.464849	-6.751306	725.944367	-30.674513	21.599414	-0.071094	-2.975354	-4.225463
1.110	5.213777	-6.493504	723.617166	-30.725490	21.702003	-0.105586	-2.999100	-4.246097
1.120	4.939217	-6.279705	721.581450	-30.748980	21.832727	-0.142856	-3.025677	-4.261332
1.130	4.666263	-6.137921	719.973287	-30.752813	21.988568	-0.179374	-3.054081	-4.271382
1.140	4.416284	-6.073053	718.897305	-30.744558	22.165228	-0.211745	-3.083226	-4.276627
1.150	4.206890	-6.065445	718.420241	-30.729952	22.358133	-0.236982	-3.112125	-4.277434
1.160	4.049780	-6.077043	718.565411	-30.711438	22.563744	-0.252808	-3.140110	-4.273993
1.170	3.947479	-6.064090	719.307800	-30.687475	22.780638	-0.257914	-3.167022	-4.266251
1.180	3.891374	-5.991972	720.571542	-30.652923	23.009861	-0.252115	-3.193279	-4.253974
1.190	3.862987	-5.846575	722.233187	-30.600206	23.254415	-0.236378	-3.219793	-4.236887
1.200	3.838611	-5.637894	724.133067	-30.520620	23.518161	-0.212747	-3.247768	-4.214781
1.210	3.795410	-5.394792	726.093714	-30.405206	23.804589	-0.184198	-3.278446	-4.187504
1.220	3.716274	-5.153196	727.941539	-30.245090	24.115945	-0.154477	-3.312896	-4.154879
1.230	3.591541	-4.942294	729.527401	-30.031668	24.452919	-0.127885	-3.351885	-4.116592
1.240	3.417397	-4.773662	730.743177	-29.757304	24.814715	-0.108907	-3.395819	-4.072197
1.250	3.192379	-4.637071	731.533590	-29.417020	25.199053	-0.101578	-3.444688	-4.021281
1.260	2.914288	-4.504431	731.903508	-29.010983	25.601713	-0.108666	-3.497963	-3.963771
1.270	2.579765	-4.340450	731.919483	-28.546827	26.015697	-0.130886	-3.554448	-3.900269
1.280	2.187749	-4.115938	731.702085	-28.040510	26.430520	-0.166457	-3.612197	-3.832230
1.290	1.745878	-3.818602	731.405759	-27.514829	26.832324	-0.211178	-3.668596	-3.761910
1.300	1.276656	-3.457486	731.186917	-26.995525	27.205215	-0.259021	-3.720692	-3.692014
1.310	0.819005	-3.060188	731.166810	-26.505831	27.533672	-0.303128	-3.765717	-3.625141
1.320	0.422316	-2.664650	731.399785	-26.061020	27.805381	-0.337019	-3.801667	-3.563170
1.330	0.133850	-2.308630	731.857928	-25.664785	28.013674	-0.355818	-3.827748	-3.506799
1.340	-0.015578	-2.019849	732.438936	-25.308716	28.158858	-0.357270	-3.844533	-3.455403
1.350	-0.021157	-1.809082	732.995985	-24.975022	28.247976	-0.342251	-3.853770	-3.407252
1.360	0.095361	-1.667541	733.380009	-24.641423	28.292935	-0.314601	-3.857882	-3.359980
1.370	0.293743	-1.569076	733.480965	-24.286514	28.307345	-0.280236	-3.859316	-3.311131
1.380	0.527844	-1.476985	733.256535	-23.894032	28.302872	-0.245814	-3.859887	-3.258618
1.390	0.757748	-1.354154	732.741697	-23.455178	28.286147	-0.217423	-3.860316	-3.201016
1.400	0.958408	-1.173877	732.037595	-22.969034	28.257208	-0.199693	-3.860076	-3.137685
1.410	1.123827	-0.927802	731.282644	-22.441734	28.210031	-0.195448	-3.857610	-3.068818
1.420	1.266721	-0.627991	730.613015	-21.884997	28.135090	-0.205622	-3.850888	-2.995429
1.430	1.413635	-0.302187	730.123315	-21.314224	28.023237	-0.229150	-3.838151	-2.919264
1.440	1.595812	0.015828	729.840049	-20.746007	27.869598	-0.262785	-3.818590	-2.842542
1.450	1.837760	0.296850	729.718076	-20.195179	27.675975	-0.301208	-3.792694	-2.767532
1.460	2.147759	0.523750	729.662530	-19.672100	27.450670	-0.337865	-3.762105	-2.696055
1.470	2.515133	0.693675	729.567560	-19.181219	27.205870	-0.366607	-3.729041	-2.629122
1.480	2.916216	0.815356	729.354914	-18.721634	26.953871	-0.383546	-3.695577	-2.566876
1.490	3.325685	0.903649	728.996087	-18.289526	26.703911	-0.388222	-3.663108	-2.508865
1.500	3.726320	0.973811	728.511523	-17.881420	26.460877	-0.383405	-3.632184	-2.454514
1.510	4.111602	1.037478	727.952364	-17.496774	26.226148	-0.373617	-3.602729	-2.403560
1.520	4.480773	1.101262	727.376397	-17.138745	25.999803	-0.363107	-3.574463	-2.356242
1.530	4.831127	1.167740	726.828743	-16.812934	25.782904	-0.354305	-3.547315	-2.313191
1.540	5.153472	1.237670	726.333183	-16.524929	25.578597	-0.347410	-3.521607	-2.275117
1.550	5.433664	1.312112	725.895148	-16.277979	25.391478	-0.341110	-3.497954	-2.242470
1.560	5.658720	1.393695	725.512972	-16.071826	25.225650	-0.333904	-3.476940	-2.215236
1.570	5.823566	1.486904	725.190806	-15.902905	25.082660	-0.325259	-3.458767	-2.192927
1.580	5.934839	1.597553	724.946236	-15.765388	24.960519	-0.316052	-3.443086	-2.174698
1.590	6.010139	1.731507	724.808678	-15.652341	24.854275	-0.308174	-3.429081	-2.159513
1.600	6.073334	1.892779	724.809231	-15.556558	24.757713	-0.303607	-3.415756	-2.146297
1.610	6.147915	2.081519	724.966575	-15.471101	24.665384	-0.303486	-3.402279	-2.134043
1.620	6.250655	2.292722	725.274972	-15.389822	24.574319	-0.307556	-3.388276	-2.121929
1.630	6.387147	2.516313	725.698897	-15.308000	24.485043	-0.314198	-3.373995	-2.109415
1.640	6.550057	2.738635	726.175074	-15.222995	24.401777	-0.320988	-3.360316	-2.096326
1.650	6.720337	2.944717	726.619423	-15.134663	24.331949	-0.325580	-3.348651	-2.082887
1.660	6.870876	3.120551	726.936175	-15.045330	24.285285	-0.326555	-3.340773	-2.069691
1.670	6.971141	3.254827	727.028879	-14.959207	24.272786	-0.323896	-3.338627	-2.057581
1.680	6.991225	3.340026	726.815217	-14.881364	24.305661	-0.318938	-3.344132	-2.047476
1.690	6.904946	3.372958	726.247235	-14.816582	24.394122	-0.313854	-3.358928	-2.040157
1.700	6.693475	3.354748	725.335141	-14.768569	24.545807	-0.310916	-3.384064	-2.036103
1.710	6.351152	3.290044	724.167049	-14.739799	24.763871	-0.311752	-3.419635	-2.035414
1.720	5.892945	3.185456	722.911960	-14.731897	25.045279	-0.316811	-3.464499	-2.037855
1.730	5.359369	3.047921	721.794075	-14.746027	25.380282	-0.325152	-3.516277	-2.042969
1.740	4.812914	2.884212	721.037733	-14.782673	25.753935	-0.334665	-3.571787	-2.050194
1.750	4.322725	2.702229	720.799879	-14.840645	26.149682	-0.342699	-3.627870	-2.058913
1.760	3.941062	2.513117	721.119100	-14.915904	26.553908	-0.347008	-3.682319	-2.068438
1.770	3.681958	2.332056	721.907013	-15.001267	26.959546	-0.346668	-3.734490	-2.078005
1.780	3.513954	2.176015	722.989407	-15.087801	27.366944	-0.342560	-3.785248	-2.086863
1.790	3.372843	2.058921	724.180294	-15.167838	27.781385	-0.337033	-3.836253	-2.094484
1.800	3.189966	1.986748	725.355187	-15.238447	28.208243	-0.332782	-3.888887	-2.100826
1.810	2.923325	1.955432	726.490731	-15.303617	28.647852	-0.331423	-3.943320	-2.106512
1.820	2.577476	1.952779	727.655938	-15.373710	29.092216	-0.332504	-3.998073	-2.112772
1.830	2.204066	1.963188	728.963547	-15.462033	29.524838	-0.333406	-4.050249	-2.121098
1.840	1.884046	1.972495	730.505487	-15.579813	29.923686	-0.330164	-4.096299	-2.132744
1.850	1.699897	1.970693	732.298638	-15.731731	30.266211	-0.318885	-4.133042	-2.148267
1.860	1.708814	1.951632	734.259074	-15.913803	30.534699	-0.297283	-4.158573	-2.167328
1.870	1.925629	1.910465	736.210408	-16.114315	30.720284	-0.265778	-4.172759	-2.188819
1.880	2.319534	1.840725	737.920469	-16.317240	30.824578	-0.227708	-4.177222	-2.211246
1.890	2.823675	1.733409	739.153035	-16.506767	30.858699	-0.188510	-4.174873	-2.233200
1.900	3.353213	1.579579	739.718119	-16.671193	30.840282	-0.154178	-4.169194	-2.253722
1.910	3.825895	1.376097	739.505948	-16.804793	30.789593	-0.129595	-4.163536	-2.272435
1.920	4.179221	1.131733	738.497159	-16.907286	30.725968	-0.117348	-4.160607	-2.289418
1.930	4.379604	0.869738	736.752207	-16.981821	30.665527	-0.117355	-4.162258	-2.304957
1.940	4.421820	0.623945	734.390679	-17.032949	30.620427	-0.127259	-4.169501	-2.319331
1.950	4.321044	0.428658	731.572015	-17.065621	30.599239	-0.143320	-4.182669	-2.332733
1.960	4.102863	0.306082	728.483475	-17.085247	30.607719	-0.161473	-4.201567	-2.345317
1.970	3.796499	0.256906	725.333276	-17.098168	30.649412	-0.178311	-4.225563	-2.357284
1.980	3.433058	0.258669	722.342093	-17.111861	30.725997	-0.191747	-4.253663	-2.368941
1.990	3.046488	0.273109	719.727796	-17.134473	30.837612	-0.201201	-4.284621	-2.380688
2.000	2.673154	0.259599	717.683863	-17.173612	30.983411	-0.207279	-4.317139	-2.392922
2.010	2.347485	0.189175	716.356370	-17.234562	31.162356	-0.211135	-4.350119	-2.405864
2.020	2.094385	0.053722	715.825216	-17.318459	31.374062	-0.213814	-4.382922	-2.419370
2.030	1.921481	-0.132735	716.093720	-17.421216	31.619351	-0.215919	-4.415532	-2.432812
2.040	1.814654	-0.340375	717.089344	-17.533956	31.900207	-0.217781	-4.448568	-2.445156
2.050	1.739202	-0.534493	718.677208	-17.645211	32.218977	-0.220089	-4.483094	-2.455235
2.060	1.647455	-0.686555	720.685324	-17.744331	32.576908	-0.224549	-4.520268	-2.462147
2.070	1.492017	-0.781486	722.935884	-17.824897	32.972360	-0.234081	-4.560897	-2.465626
2.080	1.241516	-0.819223	725.273745	-17.886893	33.399100	-0.252162	-4.605034	-2.466226
2.090	0.893552	-0.811178	727.584396	-17.936897	33.845180	-0.281403	-4.651719	-2.465267
2.100	0.479071	-0.774029	729.798394	-17.986235	34.292886	-0.321958	-4.698953	-2.464548
2.110	0.055392	-0.723630	731.883764	-18.047722	34.720095	-0.370606	-4.743936	-2.465927
2.120	-0.309811	-0.671190	733.829918	-18.131999	35.103034	-0.421148	-4.783538	-2.470872
2.130	-0.557126	-0.622904	735.627186	-18.244556	35.419803	-0.466090	-4.814912	-2.480136
2.140	-0.649658	-0.582883	737.246504	-18.384342	35.653729	-0.498896	-4.836066	-2.493649
2.150	-0.579048	-0.557518	738.624416	-18.544274	35.795707	-0.515821	-4.846266	-2.510650
2.160	-0.363747	-0.558227	739.658572	-18.713352	35.845200	-0.516700	-4.846182	-2.529999
2.170	-0.042682	-0.600225	740.217782	-18.879630	35.809911	-0.504597	-4.837753	-2.550551
2.180	0.332894	-0.696967	740.167435	-19.033127	35.704350	-0.484682	-4.823821	-2.571462
2.190	0.708265	-0.852325	739.405369	-19.167740	35.547574	-0.462771	-4.807589	-2.592318
2.200	1.034278	-1.054163	737.897214	-19.281562	35.360510	-0.443950	-4.792064	-2.613042
2.210	1.275015	-1.273035	735.698309	-19.375651	35.163332	-0.431681	-4.779586	-2.633641
2.220	1.411936	-1.467870	732.954158	-19.452096	34.973335	-0.427610	-4.771558	-2.653931
2.230	1.443517	-1.597325	729.880281	-19.512563	34.803564	-0.431977	-4.768394	-2.673392
2.240	1.381772	-1.632773	726.729177	-19.557988	34.662241	-0.444267	-4.769623	-2.691235
2.250	1.247992	-1.567961	723.753822	-19.589288	34.553024	-0.463707	-4.774140	-2.706623
2.260	1.068751	-1.421559	721.175401	-19.608378	34.476171	-0.489353	-4.780553	-2.718947
2.270	0.871363	-1.231595	719.160491	-19.618749	34.430416	-0.519875	-4.787584	-2.728007
2.280	0.678170	-1.043790	717.810473	-19.625260	34.414915	-0.553328	-4.794429	-2.734045
2.290	0.501119	-0.897946	717.163132	-19.633247	34.430326	-0.587181	-4.800906	-2.737626
2.300	0.339802	-0.817011	717.203610	-19.647331	34.478470	-0.618680	-4.807348	-2.739436
