Time[s]	Fx[N]	Fy[N]	Fz[N]	Mx[Nm]	My[Nm]	Mz[Nm]	COPx[cm]	COPy[cm]
0.010	1.527447	1.554299	671.399869	15.120586	-2.744040	-0.171717	0.408704	2.252098
0.020	0.631407	1.560393	674.148000	15.248786	-2.152895	-0.185715	0.319350	2.261935
0.030	-0.135758	1.560081	676.230186	15.341861	-1.577837	-0.198262	0.233328	2.268734
0.040	-0.682051	1.547741	677.134475	15.370344	-1.029974	-0.207714	0.152108	2.269910
0.050	-0.973743	1.518670	676.594649	15.315223	-0.512600	-0.212356	0.075762	2.263574
0.060	-1.037816	1.464988	674.628654	15.170927	-0.022612	-0.210546	0.003352	2.248782
0.070	-0.945685	1.371337	671.510441	14.945855	0.445315	-0.201050	-0.066315	2.225707
0.080	-0.785917	1.214519	667.689186	14.660203	0.894133	-0.183498	-0.133915	2.195663
0.090	-0.636677	0.969827	663.679070	14.341405	1.321792	-0.158781	-0.199161	2.160895
0.100	-0.547415	0.623148	659.946529	14.018191	1.721882	-0.129165	-0.260912	2.124140
0.110	-0.534670	0.183911	656.821691	13.714780	2.087201	-0.097943	-0.317773	2.088052
0.120	-0.590762	-0.308006	654.455403	13.446702	2.414405	-0.068672	-0.368918	2.054640
0.130	-0.699212	-0.786832	652.831319	13.219216	2.707255	-0.044294	-0.414694	2.024905
0.140	-0.848889	-1.177497	651.826121	13.028533	2.976555	-0.026511	-0.456649	1.998774
0.150	-1.040578	-1.418761	651.295551	12.865203	3.236414	-0.015590	-0.496919	1.975325
0.160	-1.283629	-1.483440	651.155258	12.718368	3.498256	-0.010468	-0.537238	1.953200
0.170	-1.584829	-1.387078	651.426503	12.579363	3.765061	-0.009032	-0.577972	1.931049
0.180	-1.935299	-1.181786	652.228360	12.443672	4.028249	-0.008507	-0.617613	1.907870
0.190	-2.302842	-0.938751	653.717733	12.310961	4.268634	-0.006016	-0.652978	1.883223
0.200	-2.635545	-0.727189	655.999636	12.183565	4.461371	0.000813	-0.680087	1.857252
0.210	-2.877214	-0.597435	659.043557	12.064072	4.583246	0.013406	-0.695439	1.830542
0.220	-2.988404	-0.572547	662.640547	11.952905	4.619597	0.032130	-0.697150	1.803829
0.230	-2.962250	-0.648873	666.419605	11.846759	4.568135	0.056434	-0.685474	1.777673
0.240	-2.825724	-0.803201	669.918157	11.738438	4.438199	0.085050	-0.662499	1.752220
0.250	-2.624582	-1.003070	672.680893	11.618110	4.246120	0.116094	-0.631224	1.727135
0.260	-2.399911	-1.216971	674.352667	11.475441	4.009221	0.147104	-0.594529	1.701697
0.270	-2.169413	-1.421995	674.737193	11.301849	3.741363	0.175253	-0.554492	1.675000
0.280	-1.923377	-1.607500	673.809773	11.092122	3.451690	0.197844	-0.512265	1.646180
0.290	-1.636011	-1.774568	671.691360	10.845018	3.146192	0.213029	-0.468398	1.614584
0.300	-1.284146	-1.932306	668.604072	10.562844	2.830286	0.220402	-0.423313	1.579835
0.310	-0.862708	-2.092912	664.829199	10.250417	2.510483	0.221135	-0.377613	1.541812
0.320	-0.389863	-2.267230	660.678838	9.913904	2.194238	0.217514	-0.332119	1.500563
0.330	0.099225	-2.461507	656.479508	9.559909	1.888296	0.212060	-0.287640	1.456239
0.340	0.566130	-2.675237	652.558584	9.194918	1.596534	0.206591	-0.244658	1.409056
0.350	0.983870	-2.900067	649.224710	8.824959	1.318385	0.201654	-0.203071	1.359307
0.360	1.346284	-3.120339	646.738762	8.455360	1.048684	0.196582	-0.162150	1.307384
0.370	1.668213	-3.316215	645.278642	8.090527	0.779310	0.190095	-0.120771	1.253804
0.380	1.976631	-3.469795	644.907065	7.733710	0.502263	0.181061	-0.077881	1.199198
0.390	2.296572	-3.572981	645.555085	7.386693	0.213053	0.168997	-0.033003	1.144239
0.400	2.637929	-3.633806	647.033282	7.049503	-0.087087	0.154175	0.013459	1.089512
0.410	2.988885	-3.677289	649.074374	6.720531	-0.391264	0.137569	0.060280	1.035402
0.420	3.318993	-3.739161	651.396954	6.397356	-0.689284	0.120848	0.105816	0.982098
0.430	3.590883	-3.854828	653.767706	6.078060	-0.971257	0.106345	0.148563	0.929697
0.440	3.776002	-4.048479	656.037821	5.762304	-1.230849	0.096715	0.187619	0.878349
0.450	3.868161	-4.326602	658.141261	5.451616	-1.466888	0.094138	0.222883	0.828335
0.460	3.889195	-4.677387	660.061598	5.148976	-1.682874	0.099302	0.254957	0.780075
0.470	3.883642	-5.074709	661.789022	4.858218	-1.884859	0.110655	0.284813	0.734104
0.480	3.903570	-5.484119	663.290600	4.583637	-2.078773	0.124431	0.313403	0.691045
0.490	3.989245	-5.868826	664.505085	4.329752	-2.268285	0.135560	0.341349	0.651575
0.500	4.154055	-6.195021	665.358104	4.100856	-2.453950	0.139138	0.368816	0.616338
0.510	4.380816	-6.436816	665.785320	3.900050	-2.633883	0.131865	0.395606	0.585782
0.520	4.631269	-6.580767	665.752899	3.727933	-2.805688	0.112917	0.421431	0.559957
0.530	4.864011	-6.629189	665.270866	3.581705	-2.968897	0.084010	0.446269	0.538383
0.540	5.052113	-6.600874	664.398987	3.455649	-3.126901	0.048779	0.470636	0.520116
0.550	5.192429	-6.528019	663.244425	3.343259	-3.287444	0.011790	0.495661	0.504076
0.560	5.303505	-6.449096	661.948824	3.240226	-3.461280	-0.022475	0.522892	0.489498
0.570	5.414990	-6.399044	660.663981	3.146717	-3.659437	-0.050472	0.553903	0.476296
0.580	5.555291	-6.399649	659.520262	3.067664	-3.890170	-0.070209	0.589848	0.465136
0.590	5.743743	-6.453405	658.596834	3.010787	-4.156733	-0.081524	0.631150	0.457152
0.600	5.989252	-6.543061	657.904614	2.983310	-4.456532	-0.085970	0.677383	0.453456
0.610	6.292580	-6.637323	657.389931	2.988937	-4.781489	-0.086281	0.727344	0.454667
0.620	6.648034	-6.701020	656.959199	3.026475	-5.119234	-0.085566	0.779232	0.460679
0.630	7.043046	-6.706181	656.514799	3.090552	-5.454822	-0.086449	0.830876	0.470751
0.640	7.457785	-6.639994	655.986401	3.173895	-5.772728	-0.090352	0.880007	0.483835
0.650	7.867759	-6.507099	655.345130	3.269912	-6.058757	-0.097113	0.924514	0.498960
0.660	8.249762	-6.326192	654.598382	3.374309	-6.301392	-0.105044	0.962635	0.515478
0.670	8.588217	-6.122835	653.773107	3.485021	-6.492227	-0.111459	0.993040	0.533063
0.680	8.877988	-5.921125	652.899046	3.600745	-6.625433	-0.113495	1.014771	0.551501
0.690	9.121625	-5.736827	651.999821	3.719123	-6.696491	-0.108914	1.027069	0.570418
0.700	9.322283	-5.574174	651.093045	3.835819	-6.700716	-0.096572	1.029149	0.589135
0.710	9.475955	-5.427618	650.195459	3.945149	-6.632117	-0.076432	1.020019	0.606764
0.720	9.566907	-5.288134	649.327689	4.042039	-6.482979	-0.049229	0.998414	0.622496
0.730	9.568328	-5.151464	648.514449	4.124412	-6.244254	-0.016040	0.962855	0.635978
0.740	9.447667	-5.024189	647.778774	4.194811	-5.906687	0.021977	0.911837	0.647568
0.750	9.174442	-4.924107	647.133066	4.260279	-5.462511	0.063550	0.844109	0.658331
0.760	8.727754	-4.874022	646.573528	4.330240	-4.907414	0.107031	0.758988	0.669721
0.770	8.101270	-4.891419	646.084713	4.413034	-4.242411	0.150135	0.656634	0.683043
0.780	7.304707	-4.978558	645.656481	4.512518	-3.475295	0.189951	0.538258	0.698904
0.790	6.362563	-5.117322	645.309037	4.626356	-2.621402	0.223341	0.406224	0.716921
0.800	5.312063	-5.271003	645.116265	4.747035	-1.703358	0.247607	0.264039	0.735842
0.810	4.201817	-5.392674	645.215770	4.865398	-0.749555	0.261082	0.116171	0.754073
0.820	3.090635	-5.437731	645.796665	4.975144	0.208562	0.263363	-0.032295	0.770389
0.830	2.044008	-5.376894	647.062769	5.076139	1.139807	0.255131	-0.176151	0.784489
0.840	1.125877	-5.205514	649.177848	5.174931	2.016439	0.237778	-0.310614	0.797151
0.850	0.386112	-4.945796	652.208050	5.282349	2.816716	0.213097	-0.431874	0.809918
0.860	-0.152097	-4.640767	656.081141	5.409596	3.526495	0.183184	-0.537509	0.824532
0.870	-0.499170	-4.341837	660.578868	5.564842	4.139629	0.150502	-0.626667	0.842419
0.880	-0.696676	-4.094264	665.367467	5.751713	4.656954	0.117957	-0.699907	0.864442
0.890	-0.806187	-3.925458	670.056702	5.969676	5.084145	0.088768	-0.758763	0.890921
0.900	-0.893644	-3.839497	674.267119	6.215332	5.429125	0.066035	-0.805189	0.921791
0.910	-1.014251	-3.818486	677.683903	6.483520	5.699888	0.052010	-0.841084	0.956717
0.920	-1.201344	-3.829017	680.084299	6.767887	5.903240	0.047332	-0.868016	0.995154
0.930	-1.460580	-3.830939	681.338934	7.061088	6.044450	0.050579	-0.887143	1.036355
0.940	-1.769432	-3.786036	681.398366	7.354847	6.127456	0.058450	-0.899247	1.079375
0.950	-2.081863	-3.665456	680.279754	7.639962	6.155142	0.066616	-0.904796	1.123062
0.960	-2.338129	-3.455733	678.064161	7.906284	6.129418	0.070990	-0.903958	1.166008
0.970	-2.478738	-3.163182	674.905304	8.142958	6.051140	0.068921	-0.896591	1.206533
0.980	-2.459600	-2.815501	671.040470	8.339358	5.920142	0.059941	-0.882233	1.242750
0.990	-2.263720	-2.459030	666.788843	8.486953	5.735700	0.045804	-0.860197	1.272810
1.000	-1.905098	-2.150846	662.524906	8.581745	5.497524	0.029863	-0.829784	1.295309
1.010	-1.423392	-1.946594	658.625084	8.626321	5.207057	0.015966	-0.790595	1.309747
1.020	-0.871893	-1.886685	655.400516	8.630494	4.868657	0.007260	-0.742852	1.316827
1.030	-0.303996	-1.984654	653.039324	8.610022	4.490237	0.005245	-0.687591	1.318454
1.040	0.237047	-2.221530	651.580550	8.583650	4.083058	0.009394	-0.626639	1.317358
1.050	0.723149	-2.548896	650.928788	8.569419	3.660610	0.017421	-0.562367	1.316491
1.060	1.141972	-2.900523	650.901381	8.581432	3.236840	0.026047	-0.497286	1.318392
1.070	1.494817	-3.208961	651.288473	8.627997	2.824270	0.031951	-0.433644	1.324758
1.080	1.792954	-3.421168	651.905294	8.711298	2.432598	0.032543	-0.373152	1.336283
1.090	2.052610	-3.508028	652.623423	8.828174	2.068098	0.026403	-0.316890	1.352721
1.100	2.288820	-3.465914	653.377701	8.971380	1.733717	0.013344	-0.265347	1.373077
1.110	2.509328	-3.312229	654.153600	9.131087	1.429540	-0.005744	-0.218533	1.395863
1.120	2.710985	-3.078711	654.964585	9.296670	1.153280	-0.029168	-0.176083	1.419416
1.130	2.881057	-2.805446	655.829281	9.458764	0.900727	-0.054655	-0.137342	1.442260
1.140	3.003876	-2.536010	656.754397	9.611157	0.666239	-0.079539	-0.101444	1.463432
1.150	3.070144	-2.312215	657.724209	9.751908	0.443415	-0.101018	-0.067417	1.482674
1.160	3.084258	-2.167085	658.695201	9.883286	0.226018	-0.116625	-0.034313	1.500434
1.170	3.065680	-2.116716	659.596073	10.010587	0.009075	-0.124884	-0.001376	1.517684
1.180	3.043318	-2.154055	660.335728	10.140225	-0.210072	-0.125921	0.031813	1.535617
1.190	3.045322	-2.248410	660.820946	10.277602	-0.431212	-0.121696	0.065254	1.555278
1.200	3.089140	-2.352556	660.980901	10.425358	-0.651645	-0.115607	0.098587	1.577256
1.210	3.176664	-2.415538	660.790448	10.582515	-0.867509	-0.111501	0.131284	1.601493
1.220	3.296676	-2.396328	660.281992	10.744725	-1.075512	-0.112399	0.162887	1.627293
1.230	3.432645	-2.273780	659.539210	10.905408	-1.274201	-0.119340	0.193196	1.653489
1.240	3.570916	-2.050979	658.673978	11.057137	-1.464170	-0.130793	0.222291	1.678696
1.250	3.704718	-1.754496	657.795730	11.192737	-1.647139	-0.142834	0.250403	1.701552
1.260	3.832621	-1.429536	656.985154	11.305931	-1.824307	-0.150051	0.277679	1.720881
1.270	3.953546	-1.131400	656.280948	11.391776	-1.994766	-0.146867	0.303950	1.735808
1.280	4.062043	-0.913720	655.682448	11.447210	-2.154789	-0.128918	0.328633	1.745847
1.290	4.146976	-0.815361	655.165136	11.471749	-2.298558	-0.094177	0.350836	1.750971
1.300	4.194841	-0.849660	654.702018	11.468060	-2.420158	-0.043630	0.369658	1.751646
1.310	4.196320	-1.000079	654.282498	11.441987	-2.515976	0.018629	0.384540	1.748784
1.320	4.152459	-1.224482	653.922100	11.401716	-2.586391	0.086005	0.395520	1.743589
1.330	4.076402	-1.466979	653.660159	11.356155	-2.636046	0.150714	0.403275	1.737318
1.340	3.988851	-1.673264	653.547771	11.313006	-2.672648	0.205524	0.408945	1.731014
1.350	3.909198	-1.804127	653.632530	11.277227	-2.704882	0.245445	0.413823	1.725316
1.360	3.847178	-1.842868	653.946478	11.250411	-2.740341	0.268756	0.419047	1.720387
1.370	3.799882	-1.795262	654.498874	11.231181	-2.784223	0.277013	0.425398	1.715997
1.380	3.755767	-1.683764	655.271258	11.216194	-2.839089	0.274053	0.433269	1.711687
1.390	3.703041	-1.539280	656.213835	11.201208	-2.905423	0.264507	0.442756	1.706945
1.400	3.637353	-1.393496	657.246538	11.181782	-2.982495	0.252509	0.453786	1.701307
1.410	3.564736	-1.273316	658.268536	11.153508	-3.069097	0.241071	0.466238	1.694371
1.420	3.498944	-1.197515	659.175232	11.111959	-3.163891	0.232161	0.479977	1.685737
1.430	3.455099	-1.175301	659.876908	11.052684	-3.265270	0.227075	0.494830	1.674961
1.440	3.442705	-1.206842	660.312465	10.971578	-3.370836	0.226666	0.510491	1.661574
1.450	3.460721	-1.285986	660.454923	10.865731	-3.476922	0.231195	0.526443	1.645189
1.460	3.496619	-1.404492	660.309992	10.734579	-3.578736	0.240013	0.541978	1.625688
1.470	3.530115	-1.555875	659.911839	10.580903	-3.671413	0.251418	0.556349	1.603381
1.480	3.540651	-1.736877	659.318985	10.411118	-3.751651	0.262959	0.569019	1.579071
1.490	3.515911	-1.945850	658.609245	10.234523	-3.819145	0.272111	0.579880	1.553960
1.500	3.457520	-2.179050	657.870604	10.061663	-3.877009	0.277016	0.589327	1.529429
1.510	3.380685	-2.426949	657.187895	9.902320	-3.930861	0.276952	0.598134	1.506772
1.520	3.307366	-2.672817	656.629788	9.763659	-3.986932	0.272358	0.607181	1.486935
1.530	3.256284	-2.894819	656.241564	9.648821	-4.050096	0.264497	0.617165	1.470315
1.540	3.235266	-3.071013	656.045665	9.556174	-4.122843	0.254955	0.628438	1.456632
1.550	3.240126	-3.185176	656.047750	9.479468	-4.205755	0.245238	0.641075	1.444936
1.560	3.260268	-3.231262	656.243997	9.409086	-4.299119	0.236585	0.655110	1.433779
1.570	3.287048	-3.215298	656.625468	9.334165	-4.404547	0.229996	0.670785	1.421536
1.580	3.319481	-3.154733	657.176735	9.245026	-4.525418	0.226315	0.688615	1.406779
1.590	3.364056	-3.075727	657.868742	9.135184	-4.665737	0.226230	0.709220	1.388603
1.600	3.429537	-3.008849	658.649771	9.002464	-4.828115	0.230159	0.733032	1.366806
1.610	3.520799	-2.983654	659.441338	8.849042	-5.012132	0.238141	0.760057	1.341900
1.620	3.635780	-3.023147	660.144878	8.680624	-5.214070	0.249814	0.789837	1.314957
1.630	3.766924	-3.139682	660.660041	8.505159	-5.428043	0.264440	0.821609	1.287373
1.640	3.905276	-3.333520	660.909296	8.331518	-5.647774	0.280921	0.854546	1.260614
1.650	4.043788	-3.594014	660.859884	8.168397	-5.868086	0.297808	0.887947	1.236026
1.660	4.177521	-3.902306	660.534737	8.023511	-6.085518	0.313375	0.921302	1.214699
1.670	4.301384	-4.234304	660.008020	7.903084	-6.298121	0.325762	0.954249	1.197422
1.680	4.408383	-4.563342	659.386392	7.811605	-6.504884	0.333133	0.986506	1.184678
1.690	4.491153	-4.862324	658.781724	7.751816	-6.705329	0.333816	1.017838	1.176690
1.700	4.546793	-5.105373	658.283431	7.724781	-6.899493	0.326504	1.048104	1.173473
1.710	4.581742	-5.269388	657.938323	7.729970	-7.088029	0.310534	1.077309	1.174878
1.720	4.612193	-5.336407	657.743637	7.765358	-7.272068	0.286196	1.105608	1.180606
1.730	4.657849	-5.297477	657.655119	7.827613	-7.452723	0.254894	1.133227	1.190231
1.740	4.731554	-5.157174	657.606910	7.912251	-7.630486	0.219047	1.160342	1.203189
1.750	4.831084	-4.936133	657.535639	8.013571	-7.804814	0.181767	1.186980	1.218728
1.760	4.938899	-4.668795	657.400338	8.124537	-7.974134	0.146415	1.212980	1.235858
1.770	5.030841	-4.395731	657.192629	8.237085	-8.136281	0.116186	1.238036	1.253374
1.780	5.088750	-4.153097	656.935464	8.343285	-8.289133	0.093729	1.261788	1.270031
1.790	5.109278	-3.963664	656.672010	8.437189	-8.431044	0.080783	1.283905	1.284841
1.800	5.103833	-3.833223	656.449320	8.516609	-8.560825	0.077798	1.304111	1.297375
1.810	5.090329	-3.753415	656.303575	8.583907	-8.677427	0.083660	1.322167	1.307917
1.820	5.082290	-3.708932	656.252854	8.645322	-8.779754	0.095717	1.337861	1.317377
1.830	5.081751	-3.685146	656.298905	8.709085	-8.866886	0.110313	1.351044	1.327000
1.840	5.079475	-3.672641	656.434423	8.783154	-8.938732	0.123729	1.361710	1.338009
1.850	5.061430	-3.667334	656.650528	8.873490	-8.996804	0.133154	1.370105	1.351326
1.860	5.017096	-3.667350	656.941164	8.983423	-9.044744	0.137239	1.376797	1.367462
1.870	4.944697	-3.669197	657.304679	9.113870	-9.088311	0.136060	1.382663	1.386552
1.880	4.850912	-3.665702	657.744600	9.263766	-9.134751	0.130693	1.388799	1.408414
1.890	4.746344	-3.647015	658.269764	9.430248	-9.191705	0.122719	1.396343	1.432581
1.900	4.640382	-3.604251	658.891247	9.608716	-9.265966	0.113877	1.406297	1.458316
1.910	4.538689	-3.533862	659.614003	9.793309	-9.362432	0.105843	1.419380	1.484703
1.920	4.444214	-3.440322	660.425246	9.978086	-9.483602	0.099975	1.435984	1.510858
1.930	4.360350	-3.335475	661.285057	10.158649	-9.629753	0.096964	1.456218	1.536198
1.940	4.293958	-3.234466	662.124756	10.333533	-9.799687	0.096507	1.480036	1.560662
1.950	4.256288	-3.149723	662.855593	10.504687	-9.991621	0.097162	1.507360	1.584762
1.960	4.260803	-3.085385	663.386434	10.676795	-10.203799	0.096566	1.538138	1.609438
1.970	4.318282	-3.034550	663.645329	10.855620	-10.434643	0.092035	1.572322	1.635756
1.980	4.431314	-2.980741	663.597544	11.045956	-10.682575	0.081408	1.609797	1.664556
1.990	4.591453	-2.903251	663.253216	11.249863	-10.945838	0.063864	1.650326	1.696164
2.000	4.781488	-2.784402	662.661809	11.465799	-11.222547	0.040436	1.693556	1.730264
2.010	4.982542	-2.615826	661.895718	11.688899	-11.510900	0.014027	1.739081	1.765973
2.020	5.182628	-2.401229	661.028807	11.912250	-11.809234	-0.011113	1.786493	1.802077
2.030	5.382012	-2.154515	660.116080	12.128702	-12.115584	-0.030378	1.835372	1.837359
2.040	5.592172	-1.894406	659.180182	12.332659	-12.426705	-0.040108	1.885176	1.870909
2.050	5.828407	-1.638429	658.209794	12.521381	-12.737025	-0.038845	1.935101	1.902339
2.060	6.099643	-1.399221	657.172126	12.695407	-13.038256	-0.028069	1.983994	1.931824
2.070	6.400571	-1.184203	656.035402	12.857888	-13.320188	-0.011992	2.030407	1.959938
2.080	6.710109	-0.997511	654.791431	13.012988	-13.572551	0.003669	2.072805	1.987349
2.090	6.996908	-0.841940	653.468196	13.163990	-13.787166	0.013576	2.109845	2.014481
2.100	7.229085	-0.719170	652.128580	13.312026	-13.959490	0.014641	2.140604	2.041319
2.110	7.383658	-0.627844	650.859336	13.456091	-14.088983	0.007165	2.164674	2.067435
2.120	7.451798	-0.560488	649.758436	13.594263	-14.178408	-0.005208	2.182105	2.092203
2.130	7.438653	-0.501328	648.926699	13.725372	-14.232636	-0.016764	2.193258	2.115088
2.140	7.359285	-0.427390	648.463390	13.850097	-14.257590	-0.021743	2.198673	2.135833
2.150	7.233865	-0.314153	648.460083	13.970835	-14.259647	-0.016318	2.199002	2.154463
2.160	7.084518	-0.144600	648.986672	14.090393	-14.245399	0.000213	2.195022	2.171138
2.170	6.933832	0.081983	650.069048	14.210124	-14.221506	0.025437	2.187692	2.185941
2.180	6.802979	0.345774	651.666394	14.328356	-14.194382	0.054911	2.178167	2.198726
2.190	6.707633	0.609416	653.660795	14.439899	-14.169601	0.083805	2.167730	2.209081
2.200	6.652391	0.827728	655.868458	14.536943	-14.151235	0.108445	2.157633	2.216442
2.210	6.627059	0.960643	658.071689	14.611114	-14.141386	0.127285	2.148913	2.220292
2.220	6.608571	0.984828	660.060767	14.655882	-14.140125	0.141140	2.142246	2.220384
2.230	6.569514	0.900480	661.671013	14.668443	-14.145754	0.152747	2.137883	2.216879
2.240	6.489885	0.731753	662.803512	14.650447	-14.155275	0.165777	2.135667	2.210376
2.250	6.365847	0.520871	663.425327	14.607357	-14.164896	0.183524	2.135115	2.201809
2.260	6.210352	0.317324	663.553841	14.546657	-14.170613	0.207627	2.135563	2.192235
2.270	6.045377	0.164903	663.236523	14.475530	-14.168979	0.237319	2.136339	2.182559
2.280	5.890810	0.090329	662.537644	14.398819	-14.158095	0.269583	2.136949	2.173283
2.290	5.756875	0.096902	661.536291	14.317870	-14.138619	0.300197	2.137240	2.164336
2.300	5.644073	0.164961	660.330813	14.230384	-14.114370	0.325231	2.137470	2.155039
2.310	5.549385	0.258758	659.039925	14.131083	-14.092136	0.342353	2.138283	2.144192
2.320	5.473700	0.337535	657.792323	14.012872	-14.080547	0.351443	2.140576	2.130288
2.330	5.425322	0.367430	656.703270	13.868142	-14.088157	0.354367	2.145285	2.111782
2.340	5.417328	0.330616	655.844983	13.689876	-14.121066	0.354196	2.153110	2.087365
2.350	5.460368	0.228781	655.223931	13.472375	-14.180517	0.354266	2.164225	2.056148
2.360	5.554934	0.079791	654.778108	13.211736	-14.261151	0.357354	2.178013	2.017743
2.370	5.687215	-0.091156	654.400058	12.906280	-14.350795	0.365090	2.192970	1.972231
2.380	5.830827	-0.262641	653.980550	12.557081	-14.432567	0.377615	2.206880	1.920100
2.390	5.954069	-0.426684	653.458848	12.168533	-14.489231	0.393536	2.217313	1.862173
2.400	6.030235	-0.594051	652.861488	11.748654	-14.508671	0.410206	2.222320	1.799563
