Time[s]	Fx[N]	Fy[N]	Fz[N]	Mx[Nm]	My[Nm]	Mz[Nm]	COPx[cm]	COPy[cm]
0.010	-0.987559	-0.183290	547.177534	-3.491392	0.921319	-0.408634	-0.168377	-0.638073
0.020	-1.030323	-0.208130	548.114273	-3.490481	1.042559	-0.388000	-0.190208	-0.636816
0.030	-1.051991	-0.228848	549.038284	-3.491306	1.142164	-0.370499	-0.208030	-0.635895
0.040	-1.036380	-0.240002	549.918009	-3.496229	1.202762	-0.358546	-0.218717	-0.635773
0.050	-0.975186	-0.235393	550.691259	-3.508512	1.213769	-0.353279	-0.220408	-0.637111
0.060	-0.867041	-0.209572	551.277528	-3.531707	1.172111	-0.354595	-0.212617	-0.640641
0.070	-0.714648	-0.159982	551.602304	-3.568579	1.080884	-0.361631	-0.195954	-0.646948
0.080	-0.522341	-0.088788	551.619588	-3.620036	0.946807	-0.373385	-0.171641	-0.656256
0.090	-0.294994	-0.003640	551.321790	-3.684708	0.777640	-0.389152	-0.141050	-0.668341
0.100	-0.037602	0.083077	550.734205	-3.759574	0.580497	-0.408490	-0.105404	-0.682648
0.110	0.245282	0.156573	549.899126	-3.841510	0.361324	-0.430723	-0.065707	-0.698584
0.120	0.550126	0.203039	548.859007	-3.928988	0.125256	-0.454307	-0.022821	-0.715846
0.130	0.874154	0.213015	547.647785	-4.022920	-0.122720	-0.476625	0.022409	-0.734582
0.140	1.214040	0.183622	546.294263	-4.126124	-0.377319	-0.494514	0.069069	-0.755293
0.150	1.564615	0.119064	544.833745	-4.241641	-0.632937	-0.505314	0.116171	-0.778520
0.160	1.918891	0.029536	543.318902	-4.370733	-0.883933	-0.507880	0.162691	-0.804451
0.170	2.269370	-0.071072	541.821585	-4.511464	-1.124994	-0.503009	0.207632	-0.832647
0.180	2.609172	-0.168222	540.423306	-4.658558	-1.351447	-0.493157	0.250072	-0.862020
0.190	2.931812	-0.249920	539.199101	-4.804770	-1.559473	-0.481672	0.289220	-0.891094
0.200	3.230038	-0.309208	538.203536	-4.943402	-1.746191	-0.471898	0.324448	-0.918500
0.210	3.495307	-0.345170	537.466351	-5.070933	-1.909563	-0.466456	0.355290	-0.943489
0.220	3.719020	-0.362280	536.999299	-5.188447	-2.048179	-0.466790	0.381412	-0.966193
0.230	3.895251	-0.368485	536.808664	-5.301100	-2.161077	-0.472921	0.402579	-0.987521
0.240	4.023518	-0.372766	536.904286	-5.415878	-2.247817	-0.483450	0.418663	-1.008723
0.250	4.109937	-0.382798	537.298145	-5.538742	-2.308768	-0.495862	0.429700	-1.030851
0.260	4.165865	-0.403232	537.992153	-5.672413	-2.345329	-0.507226	0.435941	-1.054367
0.270	4.204393	-0.434957	538.961808	-5.815564	-2.359764	-0.515105	0.437835	-1.079031
0.280	4.236226	-0.475517	540.145525	-5.963550	-2.354628	-0.518354	0.435925	-1.104064
0.290	4.266653	-0.520418	541.446873	-6.110216	-2.332165	-0.517403	0.430728	-1.128498
0.300	4.294787	-0.564800	542.750328	-6.250085	-2.294156	-0.513866	0.422691	-1.151558
0.310	4.315356	-0.604923	543.944727	-6.380062	-2.242339	-0.509632	0.412237	-1.172925
0.320	4.322413	-0.639072	544.945332	-6.500061	-2.179027	-0.505943	0.399862	-1.192791
0.330	4.313227	-0.667678	545.706107	-6.612426	-2.107344	-0.502957	0.386168	-1.211719
0.340	4.290226	-0.692628	546.218215	-6.720596	-2.030745	-0.499992	0.371783	-1.230387
0.350	4.259663	-0.715960	546.497139	-6.827708	-1.952006	-0.496192	0.357185	-1.249358
0.360	4.227435	-0.738531	546.565948	-6.935761	-1.872203	-0.491162	0.342539	-1.268971
0.370	4.194136	-0.759505	546.442668	-7.045681	-1.790290	-0.485193	0.327626	-1.289372
0.380	4.152138	-0.777407	546.136244	-7.158181	-1.703528	-0.479033	0.311924	-1.310695
0.390	4.086588	-0.792650	545.651800	-7.274844	-1.608619	-0.473442	0.294807	-1.333239
0.400	3.980374	-0.810265	545.003440	-7.398714	-1.503143	-0.468825	0.275804	-1.357554
0.410	3.821253	-0.840895	544.230058	-7.533868	-1.386811	-0.465112	0.254821	-1.384317
0.420	3.608315	-0.898676	543.406378	-7.684110	-1.262171	-0.461892	0.232270	-1.414063
0.430	3.355096	-0.996377	542.640972	-7.851489	-1.134616	-0.458724	0.209092	-1.446903
0.440	3.087999	-1.139850	542.058071	-8.035404	-1.011723	-0.455496	0.186645	-1.482388
0.450	2.840510	-1.324458	541.768389	-8.232640	-0.902085	-0.452643	0.166508	-1.519587
0.460	2.645145	-1.535205	541.840420	-8.438176	-0.813883	-0.451095	0.150207	-1.557318
0.470	2.525698	-1.750531	542.283201	-8.646352	-0.753493	-0.451925	0.138948	-1.594435
0.480	2.492072	-1.948171	543.045302	-8.852036	-0.724498	-0.455824	0.133414	-1.630073
0.490	2.539061	-2.110784	544.027667	-9.051452	-0.727329	-0.462702	0.133693	-1.663785
0.500	2.649176	-2.229471	545.104226	-9.242419	-0.759610	-0.471631	0.139351	-1.695532
0.510	2.798478	-2.304327	546.144273	-9.423889	-0.816985	-0.481177	0.149591	-1.725531
0.520	2.963620	-2.342406	547.032060	-9.595064	-0.894118	-0.489964	0.163449	-1.754022
0.530	3.127766	-2.354299	547.680291	-9.754616	-0.985576	-0.497165	0.179955	-1.781078
0.540	3.283324	-2.350823	548.035694	-9.900506	-1.086435	-0.502652	0.198242	-1.806544
0.550	3.430744	-2.340881	548.077519	-10.030565	-1.192584	-0.506750	0.217594	-1.830136
0.560	3.574605	-2.330822	547.812428	-10.143468	-1.300768	-0.509762	0.237448	-1.851632
0.570	3.719402	-2.324839	547.269734	-10.239539	-1.408531	-0.511578	0.257374	-1.871022
0.580	3.867097	-2.325599	546.498478	-10.320967	-1.514180	-0.511599	0.277069	-1.888563
0.590	4.017129	-2.334452	545.564504	-10.391346	-1.616781	-0.509011	0.296350	-1.904696
0.600	4.168227	-2.351195	544.544287	-10.454800	-1.716002	-0.503243	0.315126	-1.919917
0.610	4.320596	-2.373865	543.514633	-10.515038	-1.811710	-0.494313	0.333332	-1.934637
0.620	4.476892	-2.399074	542.541591	-10.574603	-1.903448	-0.482887	0.350839	-1.949086
0.630	4.640886	-2.422959	541.674044	-10.634577	-1.990135	-0.470055	0.367404	-1.963280
0.640	4.814044	-2.442383	540.944817	-10.694874	-2.070125	-0.457027	0.382687	-1.977073
0.650	4.991892	-2.456033	540.376941	-10.754983	-2.141478	-0.444909	0.396293	-1.990274
0.660	5.162826	-2.465114	539.989391	-10.814687	-2.202147	-0.434571	0.407813	-2.002759
0.670	5.310903	-2.473432	539.797519	-10.874310	-2.249989	-0.426534	0.416821	-2.014517
0.680	5.421616	-2.486537	539.807536	-10.934484	-2.282754	-0.420902	0.422883	-2.025626
0.690	5.487455	-2.509839	540.008620	-10.995683	-2.298166	-0.417385	0.425580	-2.036205
0.700	5.509970	-2.546236	540.367814	-11.057762	-2.294100	-0.415441	0.424544	-2.046340
0.710	5.497235	-2.594405	540.831355	-11.119611	-2.268803	-0.414477	0.419503	-2.056022
0.720	5.458634	-2.648652	541.333187	-11.179007	-2.221173	-0.414013	0.410315	-2.065088
0.730	5.400478	-2.700354	541.808312	-11.232850	-2.151117	-0.413720	0.397026	-2.073215
0.740	5.325162	-2.740177	542.206471	-11.277905	-2.059908	-0.413361	0.379912	-2.080002
0.750	5.233931	-2.760188	542.501523	-11.311945	-1.950374	-0.412688	0.359515	-2.085145
0.760	5.130790	-2.755290	542.693935	-11.334847	-1.826694	-0.411406	0.336597	-2.088626
0.770	5.024370	-2.723803	542.806676	-11.349029	-1.693726	-0.409218	0.312031	-2.090805
0.780	4.926042	-2.667319	542.876628	-11.358853	-1.555992	-0.405903	0.286620	-2.092345
0.790	4.845235	-2.590147	542.943898	-11.369108	-1.416662	-0.401326	0.260922	-2.093975
0.800	4.784730	-2.498555	543.041116	-11.383263	-1.276982	-0.395388	0.235154	-2.096206
0.810	4.738633	-2.399812	543.185012	-11.402315	-1.136355	-0.388012	0.209202	-2.099159
0.820	4.693982	-2.301075	543.373022	-11.424771	-0.992967	-0.379264	0.182741	-2.102565
0.830	4.634974	-2.208491	543.586440	-11.447664	-0.844611	-0.369561	0.155377	-2.105951
0.840	4.547973	-2.126979	543.798554	-11.468005	-0.689484	-0.359814	0.126790	-2.108870
0.850	4.425658	-2.060637	543.983826	-11.483959	-0.526944	-0.351343	0.096868	-2.111085
0.860	4.269185	-2.013110	544.124561	-11.495329	-0.358230	-0.345556	0.065836	-2.112628
0.870	4.087836	-1.987221	544.213530	-11.503360	-0.186932	-0.343488	0.034349	-2.113759
0.880	3.896430	-1.983901	544.252647	-11.510130	-0.018812	-0.345375	0.003456	-2.114850
0.890	3.711576	-2.001218	544.248854	-11.517763	0.139287	-0.350441	-0.025592	-2.116268
0.900	3.547991	-2.034350	544.209419	-11.527679	0.281305	-0.357045	-0.051690	-2.118243
0.910	3.415700	-2.076718	544.139055	-11.540110	0.403998	-0.363174	-0.074245	-2.120802
0.920	3.318374	-2.121678	544.040105	-11.554189	0.508287	-0.367098	-0.093428	-2.123775
0.930	3.252998	-2.163875	543.915376	-11.568700	0.599226	-0.367924	-0.110169	-2.126930
0.940	3.211085	-2.199671	543.772083	-11.583230	0.684456	-0.365827	-0.125872	-2.130163
0.950	3.181423	-2.226740	543.625014	-11.599097	0.771678	-0.361873	-0.141950	-2.133658
0.960	3.153555	-2.243523	543.497257	-11.619429	0.866172	-0.357532	-0.159370	-2.137900
0.970	3.120663	-2.249254	543.417629	-11.648170	0.969346	-0.354069	-0.178380	-2.143502
0.980	3.080739	-2.244665	543.415024	-11.688349	1.078794	-0.352097	-0.198521	-2.150907
0.990	3.035738	-2.232800	543.510882	-11.740489	1.189664	-0.351494	-0.218885	-2.160120
1.000	2.989329	-2.219255	543.711686	-11.802041	1.296663	-0.351697	-0.238483	-2.170643
1.010	2.944311	-2.211520	544.004394	-11.868227	1.395848	-0.352196	-0.256588	-2.181642
1.020	2.900881	-2.217623	544.358387	-11.933887	1.485520	-0.352902	-0.272894	-2.192285
1.030	2.856549	-2.244567	544.735363	-11.995444	1.565996	-0.354189	-0.287478	-2.202068
1.040	2.807791	-2.296920	545.103157	-12.052201	1.638566	-0.356675	-0.300597	-2.210995
1.050	2.752673	-2.375775	545.445000	-12.106578	1.704206	-0.360938	-0.312443	-2.219578
1.060	2.693162	-2.478258	545.757926	-12.163309	1.762618	-0.367333	-0.322967	-2.228700
1.070	2.636083	-2.597947	546.042024	-12.227799	1.811875	-0.375892	-0.331820	-2.239351
1.080	2.592401	-2.726494	546.288833	-12.304132	1.848698	-0.386244	-0.338410	-2.252313
1.090	2.575058	-2.856253	546.476502	-12.393408	1.869252	-0.397543	-0.342055	-2.267876
1.100	2.595927	-2.983040	546.573286	-12.493114	1.870241	-0.408485	-0.342176	-2.285716
1.110	2.662653	-3.107628	546.545558	-12.597840	1.850069	-0.417512	-0.338502	-2.304994
1.120	2.776295	-3.234792	546.365672	-12.701038	1.809668	-0.423198	-0.331219	-2.324641
1.130	2.930655	-3.369834	546.017515	-12.797011	1.752681	-0.424728	-0.320994	-2.343700
1.140	3.113597	-3.514176	545.500137	-12.882240	1.684956	-0.422263	-0.308883	-2.361547
1.150	3.309890	-3.662495	544.830212	-12.955565	1.613524	-0.416975	-0.296152	-2.377909
1.160	3.504546	-3.803245	544.043104	-13.017378	1.545338	-0.410668	-0.284047	-2.392711
1.170	3.685742	-3.922372	543.191404	-13.068527	1.486091	-0.405113	-0.273585	-2.405879
1.180	3.846731	-4.008316	542.339772	-13.109609	1.439540	-0.401366	-0.265431	-2.417232
1.190	3.986227	-4.056076	541.556172	-13.140887	1.407547	-0.399400	-0.259908	-2.426505
1.200	4.106995	-4.068975	540.901602	-13.162590	1.390642	-0.398160	-0.257097	-2.433454
1.210	4.213207	-4.057635	540.421661	-13.175229	1.388603	-0.395982	-0.256948	-2.437953
1.220	4.307931	-4.036641	540.142223	-13.179783	1.400759	-0.391127	-0.259331	-2.440058
1.230	4.392047	-4.020363	540.069286	-13.177762	1.426067	-0.382240	-0.264053	-2.440013
1.240	4.464819	-4.019754	540.191620	-13.171198	1.463246	-0.368647	-0.270875	-2.438246
1.250	4.525237	-4.041001	540.484570	-13.162510	1.511073	-0.350517	-0.279577	-2.435316
1.260	4.573057	-4.085508	540.914100	-13.154123	1.568697	-0.328815	-0.290009	-2.431832
1.270	4.608981	-4.150245	541.441472	-13.147825	1.635665	-0.305039	-0.302095	-2.428300
1.280	4.634228	-4.228228	542.029212	-13.144009	1.711503	-0.280840	-0.315758	-2.424963
1.290	4.650127	-4.309634	542.646920	-13.141121	1.795074	-0.257717	-0.330800	-2.421671
1.300	4.658096	-4.383827	543.273217	-13.135695	1.884161	-0.236950	-0.346816	-2.417880
1.310	4.659871	-4.441854	543.891233	-13.123144	1.975609	-0.219688	-0.363236	-2.412825
1.320	4.657550	-4.478493	544.479415	-13.099022	2.065981	-0.207036	-0.379442	-2.405788
1.330	4.653221	-4.493117	545.003461	-13.060124	2.152415	-0.199957	-0.394936	-2.396338
1.340	4.648324	-4.489112	545.415956	-13.005006	2.233312	-0.198956	-0.409470	-2.384420
1.350	4.643004	-4.472260	545.666473	-12.933901	2.308686	-0.203697	-0.423095	-2.370294
1.360	4.635808	-4.448815	545.718068	-12.848348	2.380135	-0.212741	-0.436147	-2.354393
1.370	4.623967	-4.424031	545.561202	-12.750796	2.450463	-0.223631	-0.449164	-2.337189
1.380	4.604313	-4.401511	545.217282	-12.644232	2.522979	-0.233405	-0.462747	-2.319118
1.390	4.574609	-4.383395	544.730437	-12.531822	2.600691	-0.239454	-0.477427	-2.300555
1.400	4.534882	-4.371042	544.152687	-12.416400	2.685724	-0.240418	-0.493561	-2.281786
1.410	4.488263	-4.365613	543.530342	-12.299725	2.779225	-0.236669	-0.511328	-2.262932
1.420	4.440884	-4.368035	542.897533	-12.181632	2.881769	-0.230091	-0.530813	-2.243818
1.430	4.400565	-4.378213	542.277893	-12.059516	2.994020	-0.223255	-0.552119	-2.223863
1.440	4.374350	-4.393808	541.690857	-11.928596	3.117250	-0.218434	-0.575467	-2.202104
1.450	4.365301	-4.409161	541.157367	-11.782974	3.253539	-0.216989	-0.601219	-2.177366
1.460	4.369492	-4.414999	540.701465	-11.617020	3.405696	-0.219290	-0.629866	-2.148509
1.470	4.374524	-4.399407	540.347739	-11.426489	3.577119	-0.224996	-0.662003	-2.114655
1.480	4.360661	-4.350179	540.117201	-11.209023	3.771606	-0.233387	-0.698294	-2.075295
1.490	4.304842	-4.257947	540.025025	-10.964054	3.992858	-0.243639	-0.739384	-2.030286
1.500	4.186821	-4.118886	540.082216	-10.692427	4.243444	-0.255028	-0.785703	-1.979778
1.510	3.995830	-3.935753	540.299785	-10.396007	4.523318	-0.267121	-0.837187	-1.924118
1.520	3.735523	-3.716848	540.690773	-10.077415	4.828439	-0.279885	-0.893013	-1.863804
1.530	3.424823	-3.473568	541.266175	-9.739828	5.150254	-0.293619	-0.951520	-1.799453
1.540	3.093612	-3.217694	542.025253	-9.386811	5.476598	-0.308676	-1.010395	-1.731803
1.550	2.774473	-2.959372	542.945104	-9.022132	5.793941	-0.325052	-1.067132	-1.661702
1.560	2.493644	-2.706196	543.975187	-8.649494	6.090304	-0.342051	-1.119592	-1.590053
1.570	2.264409	-2.463361	545.040146	-8.272082	6.357803	-0.358316	-1.166483	-1.517701
1.580	2.084755	-2.234325	546.050487	-7.891964	6.593986	-0.372309	-1.207578	-1.445281
1.590	1.939520	-2.021187	546.917329	-7.509613	6.801615	-0.383053	-1.243628	-1.373080
1.600	1.806165	-1.824457	547.566156	-7.123900	6.987141	-0.390674	-1.276036	-1.301012
1.610	1.662528	-1.642486	547.945470	-6.732811	7.158400	-0.396397	-1.306407	-1.228737
1.620	1.494240	-1.471158	548.028873	-6.334746	7.322140	-0.401965	-1.336087	-1.155915
1.630	1.299425	-1.304346	547.812118	-5.929911	7.482138	-0.408846	-1.365822	-1.082472
1.640	1.089302	-1.135287	547.308850	-5.521069	7.638533	-0.417687	-1.395653	-1.008767
1.650	0.884973	-0.958505	546.548641	-5.113236	7.788654	-0.428281	-1.425061	-0.935550
1.660	0.712035	-0.771484	545.578570	-4.712533	7.928876	-0.439948	-1.453297	-0.863768
1.670	0.594874	-0.575438	544.466205	-4.324925	8.056504	-0.451963	-1.479707	-0.794342
1.680	0.551936	-0.375024	543.300039	-3.955455	8.170742	-0.463738	-1.503910	-0.728043
1.690	0.592549	-0.177274	542.184211	-3.608058	8.272499	-0.474729	-1.525773	-0.665467
1.700	0.715454	0.009943	541.226535	-3.285615	8.363569	-0.484257	-1.545299	-0.607068
1.710	0.908801	0.179603	540.521617	-2.989932	8.445927	-0.491521	-1.562551	-0.553157
1.720	1.151225	0.326919	540.133669	-2.721551	8.521590	-0.495880	-1.577682	-0.503866
1.730	1.413993	0.450035	540.084963	-2.479505	8.592967	-0.497253	-1.591040	-0.459095
1.740	1.664675	0.549966	540.353851	-2.261125	8.663366	-0.496344	-1.603276	-0.418453
1.750	1.872314	0.630134	540.881977	-2.062030	8.737266	-0.494492	-1.615374	-0.381235
1.760	2.012748	0.695955	541.586674	-1.876385	8.820080	-0.493239	-1.628563	-0.346461
1.770	2.071856	0.754663	542.373507	-1.697433	8.917445	-0.493880	-1.644152	-0.312964
1.780	2.045426	0.815278	543.146015	-1.518182	9.034316	-0.497298	-1.663331	-0.279516
1.790	1.936370	0.888297	543.813242	-1.331992	9.174307	-0.504089	-1.687033	-0.244935
1.800	1.751377	0.984673	544.297452	-1.132840	9.339522	-0.514745	-1.715886	-0.208129
1.810	1.498767	1.114026	544.542956	-0.915310	9.530761	-0.529646	-1.750231	-0.168088
1.820	1.188030	1.282750	544.524402	-0.674586	9.747748	-0.548794	-1.790140	-0.123885
1.830	0.830462	1.492976	544.252005	-0.406777	9.989096	-0.571429	-1.835381	-0.074740
1.840	0.439970	1.742960	543.772269	-0.109600	10.252027	-0.595737	-1.885353	-0.020155
1.850	0.033262	2.028667	543.164032	0.216906	10.532100	-0.618845	-1.939027	0.039934
1.860	-0.370948	2.345636	542.529684	0.570179	10.823170	-0.637178	-1.994945	0.105096
1.870	-0.753587	2.690187	541.981179	0.945768	11.117647	-0.647096	-2.051298	0.174502
1.880	-1.097242	3.059409	541.621860	1.338516	11.406995	-0.645596	-2.106081	0.247131
1.890	-1.387911	3.449888	541.528265	1.743541	11.682383	-0.630870	-2.157299	0.321967
1.900	-1.615944	3.855589	541.738071	2.156362	11.935385	-0.602617	-2.203165	0.398045
1.910	-1.775818	4.265696	542.248586	2.572117	12.158557	-0.562093	-2.242248	0.474343
1.920	-1.864807	4.663514	543.025376	2.984460	12.345778	-0.511936	-2.273518	0.549599
1.930	-1.881385	5.027421	544.015295	3.384859	12.492391	-0.455847	-2.296331	0.622199
1.940	-1.824771	5.334219	545.156091	3.762802	12.595342	-0.398155	-2.310410	0.690225
1.950	-1.696837	5.564449	546.377815	4.107009	12.653523	-0.343362	-2.315892	0.751679
1.960	-1.506285	5.708249	547.597821	4.407364	12.668297	-0.295755	-2.313431	0.804854
1.970	-1.273154	5.769543	548.716631	4.657045	12.643908	-0.259126	-2.304269	0.848716
1.980	-1.030464	5.766369	549.622560	4.854168	12.587359	-0.236494	-2.290182	0.883182
1.990	-0.820363	5.726606	550.208335	5.002284	12.507519	-0.229720	-2.273233	0.909162
2.000	-0.684633	5.680471	550.395353	5.109381	12.413586	-0.239062	-2.255394	0.928311
2.010	-0.652603	5.652636	550.155362	5.185718	12.313344	-0.262891	-2.238158	0.942592
2.020	-0.731456	5.656908	549.519178	5.241307	12.211815	-0.297803	-2.222273	0.953799
2.030	-0.903122	5.695205	548.567793	5.283927	12.110710	-0.339227	-2.207696	0.963222
2.040	-1.129052	5.760527	547.409642	5.318138	12.008701	-0.382380	-2.193732	0.971510
2.050	-1.360824	5.841805	546.154423	5.345337	11.902229	-0.423234	-2.179279	0.978723
2.060	-1.552437	5.927893	544.895337	5.364423	11.786444	-0.459127	-2.163066	0.984487
2.070	-1.669942	6.008935	543.706614	5.372429	11.656120	-0.488755	-2.143825	0.988112
2.080	-1.695552	6.075358	542.653952	5.364693	11.506538	-0.511653	-2.120419	0.988603
2.090	-1.625786	6.116287	541.807013	5.334929	11.334324	-0.527531	-2.091949	0.984655
2.100	-1.465987	6.119476	541.240982	5.275936	11.138147	-0.535917	-2.057890	0.974785
2.110	-1.225210	6.073659	541.020651	5.181362	10.919176	-0.536318	-2.018255	0.957701
2.120	-0.914995	5.972334	541.172249	5.048001	10.681272	-0.528774	-1.973729	0.932790
2.130	-0.552601	5.816786	541.658040	4.877503	10.430790	-0.514456	-1.925715	0.900477
2.140	-0.165762	5.616375	542.369889	4.676499	10.175840	-0.495933	-1.876181	0.862234
2.150	0.205849	5.385685	543.149647	4.454922	9.924971	-0.476992	-1.827300	0.820202
2.160	0.516020	5.140013	543.830882	4.223211	9.685562	-0.462041	-1.780988	0.776567
2.170	0.724067	4.891482	544.285506	3.989619	9.462405	-0.455267	-1.738500	0.733001
2.180	0.809107	4.647378	544.456544	3.758615	9.256860	-0.459679	-1.700202	0.690343
2.190	0.779981	4.410566	544.365454	3.530676	9.066700	-0.476243	-1.665554	0.648586
2.200	0.675638	4.180634	544.093854	3.303085	8.886636	-0.503361	-1.633291	0.607080
2.210	0.554861	3.954645	543.749010	3.071117	8.709508	-0.536955	-1.601752	0.564804
2.220	0.478917	3.727580	543.426930	2.829247	8.527973	-0.571270	-1.569295	0.520631
2.230	0.493811	3.493375	543.185781	2.572400	8.336294	-0.600246	-1.534704	0.473576
2.240	0.618761	3.247002	543.036396	2.297245	8.131752	-0.619095	-1.497460	0.423037
2.250	0.844259	2.986852	542.948845	2.003290	7.915362	-0.625589	-1.457847	0.368965
2.260	1.138627	2.716066	542.869062	1.693344	7.691837	-0.620651	-1.416886	0.311925
2.270	1.458965	2.441948	542.739096	1.373134	7.468818	-0.607983	-1.376134	0.253001
2.280	1.762259	2.173925	542.516252	1.050183	7.255431	-0.592856	-1.337367	0.193576
2.290	2.014100	1.921218	542.187127	0.732314	7.060424	-0.580507	-1.302212	0.135067
2.300	2.193828	1.691242	541.773014	0.426192	6.890427	-0.574708	-1.271829	0.078666
2.310	2.295347	1.488834	541.325565	0.136240	6.748926	-0.576927	-1.246741	0.025168
2.320	2.323660	1.315873	540.915186	-0.135891	6.636181	-0.586262	-1.226843	-0.025122
2.330	2.288949	1.171084	540.616521	-0.391209	6.549769	-0.600085	-1.211537	-0.072364
2.340	2.201532	1.050212	540.494947	-0.632625	6.485136	-0.615137	-1.199851	-0.117045
