Time[s]	Fx[N]	Fy[N]	Fz[N]	Mx[Nm]	My[Nm]	Mz[Nm]	COPx[cm]	COPy[cm]
0.010	3.178795	-2.488404	680.983632	-26.404900	2.258029	0.314588	-0.331584	-3.877465
0.020	3.221096	-2.503668	680.816163	-26.379684	2.350096	0.343774	-0.345188	-3.874715
0.030	3.255680	-2.514840	680.683147	-26.350491	2.442890	0.371556	-0.358888	-3.871183
0.040	3.279356	-2.517771	680.606490	-26.315185	2.536770	0.396338	-0.372722	-3.866432
0.050	3.295120	-2.509695	680.594853	-26.274324	2.631728	0.416453	-0.386681	-3.860494
0.060	3.310019	-2.490402	680.639063	-26.231371	2.727326	0.430686	-0.400701	-3.853933
0.070	3.330680	-2.463033	680.710726	-26.191636	2.822741	0.438844	-0.414675	-3.847690
0.080	3.359204	-2.433656	680.766165	-26.160145	2.916984	0.442009	-0.428486	-3.842750
0.090	3.391949	-2.409313	680.757078	-26.139341	3.009412	0.442315	-0.442068	-3.839746
0.100	3.422011	-2.395183	680.646915	-26.127701	3.100392	0.442380	-0.455507	-3.838657
0.110	3.443847	-2.392181	680.428547	-26.119934	3.191748	0.444555	-0.469079	-3.838747
0.120	3.457169	-2.396208	680.135636	-26.108601	3.286530	0.450203	-0.483217	-3.838735
0.130	3.467873	-2.399511	679.839992	-26.086442	3.388087	0.459220	-0.498365	-3.837144
0.140	3.485723	-2.393565	679.631840	-26.048530	3.498860	0.470078	-0.514817	-3.832741
0.150	3.520251	-2.372102	679.588198	-25.993641	3.619570	0.480529	-0.532612	-3.824911
0.160	3.576866	-2.333078	679.742133	-25.924420	3.749230	0.488718	-0.551567	-3.813861
0.170	3.654566	-2.279173	680.067415	-25.846261	3.885937	0.494178	-0.571405	-3.800544
0.180	3.745626	-2.217053	680.486409	-25.765335	4.028008	0.498095	-0.591931	-3.786312
0.190	3.836994	-2.155525	680.897064	-25.686680	4.174872	0.502673	-0.613143	-3.772476
0.200	3.912785	-2.102717	681.206013	-25.613175	4.327373	0.509858	-0.635252	-3.759975
0.210	3.957190	-2.063065	681.354406	-25.545583	4.487413	0.520079	-0.658602	-3.749236
0.220	3.957152	-2.035616	681.329036	-25.483262	4.657198	0.531624	-0.683546	-3.740228
0.230	3.904358	-2.014772	681.157916	-25.425026	4.838387	0.540996	-0.710318	-3.732618
0.240	3.796340	-1.993110	680.894267	-25.369750	5.031479	0.544141	-0.738952	-3.725946
0.250	3.636673	-1.964651	680.596058	-25.316554	5.235580	0.538082	-0.769264	-3.719762
0.260	3.434213	-1.926963	680.309252	-25.264552	5.448446	0.522231	-0.800878	-3.713686
0.270	3.201402	-1.881499	680.060560	-25.212434	5.666613	0.498849	-0.833251	-3.707381
0.280	2.952059	-1.832526	679.860510	-25.158317	5.885574	0.472410	-0.865703	-3.700512
0.290	2.699447	-1.785339	679.712834	-25.100116	6.100207	0.448116	-0.897468	-3.692753
0.300	2.455095	-1.744329	679.623681	-25.036238	6.305608	0.430162	-0.927809	-3.683838
0.310	2.227968	-1.711405	679.604680	-24.966173	6.498145	0.420427	-0.956165	-3.673632
0.320	2.023347	-1.685135	679.667665	-24.890614	6.676289	0.418037	-0.982287	-3.662174
0.330	1.841449	-1.660879	679.814457	-24.811079	6.840781	0.419825	-1.006272	-3.649684
0.340	1.676789	-1.631918	680.028400	-24.729186	6.994024	0.421391	-1.028490	-3.636493
0.350	1.519527	-1.591297	680.272805	-24.645912	7.138878	0.418380	-1.049414	-3.622945
0.360	1.359216	-1.533685	680.497078	-24.561097	7.277406	0.407684	-1.069425	-3.609288
0.370	1.189755	-1.456435	680.648200	-24.473369	7.410088	0.388271	-1.088681	-3.595597
0.380	1.013139	-1.359630	680.684557	-24.380523	7.535865	0.361450	-1.107101	-3.581765
0.390	0.839918	-1.245534	680.589032	-24.280171	7.652869	0.330406	-1.124448	-3.567523
0.400	0.685905	-1.118072	680.377493	-24.170355	7.759360	0.299125	-1.140449	-3.552492
0.410	0.566585	-0.982606	680.098448	-24.049842	7.854336	0.271062	-1.154882	-3.536230
0.420	0.491573	-0.845749	679.821939	-23.918109	7.937601	0.248103	-1.167600	-3.518290
0.430	0.461170	-0.714780	679.620515	-23.775211	8.009504	0.230234	-1.178526	-3.498307
0.440	0.466005	-0.596317	679.549293	-23.621789	8.070747	0.215971	-1.187662	-3.476097
0.450	0.489706	-0.494263	679.632323	-23.459285	8.122486	0.203233	-1.195129	-3.451761
0.460	0.513767	-0.407646	679.858857	-23.290203	8.166673	0.190186	-1.201231	-3.425741
0.470	0.523066	-0.329463	680.188768	-23.118169	8.206265	0.175740	-1.206469	-3.398787
0.480	0.510044	-0.247762	680.563749	-22.947585	8.244905	0.159622	-1.211482	-3.371849
0.490	0.476041	-0.149386	680.920166	-22.782839	8.285937	0.142173	-1.216873	-3.345890
0.500	0.429507	-0.025262	681.200441	-22.627284	8.331082	0.124116	-1.223000	-3.321678
0.510	0.382148	0.125146	681.361756	-22.482364	8.379505	0.106387	-1.229817	-3.299622
0.520	0.344634	0.292542	681.382030	-22.347320	8.427838	0.090028	-1.236874	-3.279705
0.530	0.323316	0.460619	681.262809	-22.219733	8.471308	0.076005	-1.243471	-3.261551
0.540	0.318799	0.611842	681.028569	-22.096747	8.505504	0.064918	-1.248920	-3.244614
0.550	0.326528	0.733587	680.722618	-21.976417	8.528033	0.056740	-1.252791	-3.228395
0.560	0.338969	0.821804	680.400270	-21.858561	8.539371	0.050753	-1.255051	-3.212603
0.570	0.348579	0.880729	680.119382	-21.744723	8.542559	0.045813	-1.256038	-3.197192
0.580	0.350628	0.919316	679.928451	-21.637298	8.541880	0.040835	-1.256291	-3.182290
0.590	0.344932	0.946693	679.854159	-21.538281	8.541029	0.035260	-1.256303	-3.168074
0.600	0.335746	0.969075	679.892336	-21.448322	8.541493	0.029255	-1.256301	-3.154664
0.610	0.329654	0.989181	680.006738	-21.366593	8.541876	0.023592	-1.256146	-3.142115
0.620	0.332135	1.007578	680.137950	-21.291541	8.538548	0.019266	-1.255414	-3.130474
0.630	0.344212	1.024570	680.220891	-21.222134	8.527337	0.017013	-1.253613	-3.119889
0.640	0.360657	1.041472	680.205351	-21.158962	8.505370	0.016918	-1.250412	-3.110673
0.650	0.370615	1.060630	680.071918	-21.104521	8.472095	0.018286	-1.245765	-3.103278
0.660	0.360757	1.084140	679.837253	-21.062376	8.429134	0.019890	-1.239875	-3.098150
0.670	0.320198	1.111883	679.547648	-21.035506	8.379306	0.020526	-1.233071	-3.095516
0.680	0.245510	1.140132	679.264979	-21.024704	8.325431	0.019667	-1.225653	-3.095214
0.690	0.143738	1.161932	679.051023	-21.027961	8.269386	0.017932	-1.217786	-3.096669
0.700	0.031861	1.169305	678.954419	-21.041186	8.211637	0.017185	-1.209453	-3.099057
0.710	-0.067408	1.156126	679.002253	-21.059840	8.151287	0.020105	-1.200480	-3.101586
0.720	-0.132081	1.120255	679.196729	-21.080591	8.086540	0.029285	-1.190603	-3.103753
0.730	-0.147364	1.064204	679.516464	-21.102211	8.015345	0.046121	-1.179566	-3.105475
0.740	-0.110127	0.994320	679.921161	-21.125422	7.936002	0.070024	-1.167194	-3.107040
0.750	-0.030070	0.918852	680.358275	-21.151921	7.847587	0.098391	-1.153449	-3.108939
0.760	0.072801	0.845467	680.771156	-21.183135	7.750157	0.127431	-1.138438	-3.111638
0.770	0.173814	0.778944	681.108443	-21.219328	7.644730	0.153436	-1.122395	-3.115411
0.780	0.250708	0.719844	681.333017	-21.259416	7.533043	0.173958	-1.105633	-3.120268
0.790	0.289823	0.664757	681.427446	-21.301477	7.417079	0.188414	-1.088462	-3.126008
0.800	0.289382	0.608187	681.394279	-21.343727	7.298421	0.197971	-1.071101	-3.132361
0.810	0.258893	0.545233	681.252849	-21.385549	7.177643	0.204894	-1.053595	-3.139150
0.820	0.214973	0.473710	681.035911	-21.428154	7.054046	0.211753	-1.035782	-3.146406
0.830	0.175134	0.394710	680.787226	-21.474581	6.925935	0.220788	-1.017342	-3.154375
0.840	0.151921	0.311573	680.557662	-21.529138	6.791330	0.233533	-0.997907	-3.163455
0.850	0.149701	0.228049	680.396483	-21.596588	6.648629	0.250624	-0.977170	-3.174118
0.860	0.165323	0.146540	680.337986	-21.681387	6.496724	0.271760	-0.954926	-3.186855
0.870	0.192078	0.067091	680.388648	-21.786917	6.334490	0.295845	-0.931011	-3.202128
0.880	0.224764	-0.012515	680.521949	-21.914555	6.160071	0.321312	-0.905198	-3.220257
0.890	0.263004	-0.095597	680.685076	-22.062770	5.970604	0.346556	-0.877146	-3.241260
0.900	0.311188	-0.184947	680.816153	-22.226815	5.762719	0.370316	-0.846443	-3.264731
0.910	0.375621	-0.281690	680.866039	-22.399439	5.533626	0.391890	-0.812733	-3.289845
0.920	0.461104	-0.385205	680.816693	-22.572521	5.282149	0.411141	-0.775855	-3.315506
0.930	0.569118	-0.493815	680.688726	-22.739112	5.009105	0.428382	-0.735888	-3.340604
0.940	0.698291	-0.605571	680.534486	-22.895182	4.716799	0.444250	-0.693102	-3.364294
0.950	0.846136	-0.718767	680.418983	-23.040465	4.407955	0.459624	-0.647829	-3.386217
0.960	1.010259	-0.832210	680.396385	-23.178051	4.084612	0.475553	-0.600328	-3.406551
0.970	1.188150	-0.945299	680.491361	-23.312888	3.747496	0.493115	-0.550704	-3.425890
0.980	1.376245	-1.057879	680.691592	-23.449736	3.396054	0.513151	-0.498912	-3.444987
0.990	1.569705	-1.170017	680.952762	-23.591303	3.029107	0.535958	-0.444834	-3.464455
1.000	1.763600	-1.281937	681.213414	-23.737174	2.645776	0.561039	-0.388392	-3.484543
1.010	1.954799	-1.394107	681.414646	-23.883911	2.246210	0.587061	-0.329639	-3.505048
1.020	2.143118	-1.507050	681.517961	-24.026414	1.831764	0.612029	-0.268777	-3.525426
1.030	2.330719	-1.620541	681.514730	-24.160123	1.404592	0.633592	-0.206099	-3.545062
1.040	2.519832	-1.732511	681.424128	-24.283146	0.967096	0.649342	-0.141923	-3.563588
1.050	2.710027	-1.838460	681.282113	-24.397194	0.521683	0.657126	-0.076574	-3.581071
1.060	2.896645	-1.931976	681.128016	-24.506713	0.070973	0.655392	-0.010420	-3.597960
1.070	3.071448	-2.006259	680.994781	-24.616618	-0.381957	0.643514	0.056088	-3.614803
1.080	3.225392	-2.055954	680.904941	-24.729933	-0.833752	0.621987	0.122448	-3.631921
1.090	3.352402	-2.078584	680.870484	-24.846549	-1.281464	0.592348	0.188210	-3.649233
1.100	3.452617	-2.075328	680.893758	-24.963474	-1.723395	0.556875	0.253108	-3.666280
1.110	3.533947	-2.051205	680.968168	-25.076028	-2.159671	0.518154	0.317147	-3.682408
1.120	3.611506	-2.014607	681.079080	-25.179137	-2.592316	0.478700	0.380619	-3.696948
1.130	3.705142	-1.975898	681.206138	-25.268288	-3.024875	0.440761	0.444047	-3.709345
1.140	3.835768	-1.944994	681.327751	-25.340181	-3.461673	0.406297	0.508078	-3.719235
1.150	4.021241	-1.928557	681.427137	-25.393233	-3.906763	0.377042	0.573321	-3.726478
1.160	4.272394	-1.928073	681.497749	-25.428007	-4.362669	0.354515	0.640159	-3.731195
1.170	4.589607	-1.939864	681.545378	-25.447390	-4.829224	0.339895	0.708570	-3.733778
1.180	4.960569	-1.957054	681.585130	-25.456294	-5.302867	0.333725	0.778020	-3.734866
1.190	5.360178	-1.972505	681.633207	-25.460687	-5.776655	0.335496	0.847473	-3.735247
1.200	5.753524	-1.981319	681.695716	-25.466099	-6.241037	0.343326	0.915516	-3.735699
1.210	6.102003	-1.981996	681.759337	-25.476144	-6.685174	0.353949	0.980577	-3.736824
1.220	6.371141	-1.976155	681.789610	-25.491677	-7.098506	0.363224	1.041158	-3.738936
1.230	6.537703	-1.967397	681.739977	-25.510944	-7.472253	0.367091	1.096056	-3.742034
1.240	6.594100	-1.959939	681.569265	-25.530655	-7.800643	0.362686	1.144512	-3.745864
1.250	6.549500	-1.957384	681.260982	-25.547600	-8.081676	0.349210	1.186282	-3.750046
1.260	6.427986	-1.961813	680.837148	-25.560167	-8.317227	0.328183	1.221618	-3.754226
1.270	6.264272	-1.973406	680.361127	-25.569093	-8.512391	0.303027	1.251158	-3.758165
1.280	6.097355	-1.990615	679.926612	-25.577152	-8.674181	0.278174	1.275753	-3.761752
1.290	5.962781	-2.010723	679.634273	-25.588015	-8.809962	0.258049	1.296280	-3.764968
1.300	5.884938	-2.030497	679.563349	-25.604877	-8.926161	0.246162	1.313514	-3.767842
1.310	5.871400	-2.046823	679.748550	-25.629409	-9.027624	0.244451	1.328083	-3.770425
1.320	5.911192	-2.057307	680.170123	-25.661333	-9.117701	0.252949	1.340503	-3.772782
1.330	5.977958	-2.060841	680.758905	-25.698570	-9.198798	0.269884	1.351256	-3.774988
1.340	6.037601	-2.058101	681.412747	-25.737656	-9.272898	0.292243	1.360834	-3.777102
1.350	6.058434	-2.051814	682.018454	-25.774143	-9.341661	0.316638	1.369708	-3.779098
1.360	6.020601	-2.046528	682.474056	-25.802950	-9.406047	0.340172	1.378228	-3.780796
1.370	5.921428	-2.047604	682.707897	-25.818950	-9.465823	0.361016	1.386511	-3.781844
1.380	5.774801	-2.059477	682.692100	-25.818059	-9.519407	0.378603	1.394392	-3.781801
1.390	5.605045	-2.083596	682.448333	-25.798612	-9.564280	0.393421	1.401466	-3.780303
1.400	5.437757	-2.116841	682.044162	-25.762343	-9.597839	0.406514	1.407217	-3.777225
1.410	5.290982	-2.151218	681.579030	-25.714259	-9.618364	0.418853	1.411188	-3.772748
1.420	5.169818	-2.175313	681.160884	-25.661285	-9.625708	0.430845	1.413133	-3.767287
1.430	5.066238	-2.177274	680.878185	-25.610210	-9.621479	0.442210	1.413098	-3.761350
1.440	4.963917	-2.148436	680.775924	-25.565780	-9.608669	0.452278	1.411429	-3.755388
1.450	4.845959	-2.086323	680.844710	-25.529575	-9.590995	0.460517	1.408691	-3.749691
1.460	4.702318	-1.995906	681.027246	-25.500003	-9.572264	0.466944	1.405563	-3.744344
1.470	4.533855	-1.888629	681.239325	-25.473264	-9.555998	0.472203	1.402737	-3.739253
1.480	4.351485	-1.779443	681.397283	-25.444794	-9.545294	0.477294	1.400841	-3.734208
1.490	4.171034	-1.682896	681.442881	-25.410564	-9.542780	0.483158	1.400379	-3.728935
1.500	4.006432	-1.609598	681.358822	-25.367905	-9.550524	0.490337	1.401688	-3.723134
1.510	3.864544	-1.564212	681.171617	-25.315849	-9.569904	0.498817	1.404918	-3.716515
1.520	3.743852	-1.545344	680.941837	-25.255123	-9.601534	0.508052	1.410037	-3.708852
1.530	3.636980	-1.546849	680.744903	-25.187847	-9.645306	0.517143	1.416875	-3.700042
1.540	3.535037	-1.559716	680.648142	-25.116956	-9.700545	0.525148	1.425192	-3.690153
1.550	3.431189	-1.573957	680.690775	-25.045478	-9.766278	0.531442	1.434760	-3.679421
1.560	3.321931	-1.580343	680.872355	-24.975890	-9.841560	0.535999	1.445434	-3.668219
1.570	3.206407	-1.572028	681.152827	-24.909701	-9.925747	0.539434	1.457198	-3.656991
1.580	3.085313	-1.545891	681.464433	-24.847334	-10.018533	0.542786	1.470148	-3.646167
1.590	2.960760	-1.503189	681.732282	-24.788287	-10.119814	0.547092	1.484426	-3.636073
1.600	2.837216	-1.449208	681.897259	-24.731558	-10.229598	0.552991	1.500167	-3.626875
1.610	2.722464	-1.391937	681.933520	-24.676280	-10.348196	0.560539	1.517479	-3.618576
1.620	2.627331	-1.340020	681.854439	-24.622391	-10.476618	0.569352	1.536489	-3.611092
1.630	2.563721	-1.300435	681.705220	-24.571018	-10.616902	0.578986	1.557404	-3.604347
1.640	2.541579	-1.276557	681.545727	-24.524228	-10.772077	0.589312	1.580536	-3.598325
1.650	2.566127	-1.267376	681.430873	-24.484137	-10.945611	0.600605	1.606269	-3.593048
1.660	2.636490	-1.268349	681.396076	-24.451876	-11.140490	0.613304	1.634951	-3.588497
1.670	2.746192	-1.273746	681.451808	-24.427033	-11.358402	0.627628	1.666795	-3.584558
1.680	2.885303	-1.279505	681.586550	-24.407879	-11.599550	0.643343	1.701846	-3.581039
1.690	3.043456	-1.285051	681.774273	-24.392127	-11.863308	0.659784	1.740064	-3.577742
1.700	3.212549	-1.292886	681.982273	-24.377737	-12.149247	0.676129	1.781461	-3.574541
1.710	3.387991	-1.306131	682.177139	-24.363424	-12.457783	0.691795	1.826180	-3.571422
1.720	3.568079	-1.325640	682.328626	-24.348766	-12.789936	0.706835	1.874454	-3.568481
1.730	3.752291	-1.348757	682.412107	-24.333866	-13.146394	0.722131	1.926460	-3.565861
1.740	3.939852	-1.370637	682.410655	-24.318552	-13.526505	0.739249	1.982165	-3.563624
1.750	4.129587	-1.387251	682.317961	-24.301425	-13.927842	0.759912	2.041254	-3.561598
1.760	4.321022	-1.397965	682.142285	-24.279415	-14.346551	0.785306	2.103161	-3.559289
1.770	4.515934	-1.405952	681.909757	-24.248471	-14.778214	0.815494	2.167180	-3.555965
1.780	4.719270	-1.416138	681.663978	-24.205313	-15.218751	0.849223	2.232588	-3.550916
1.790	4.938691	-1.431999	681.459140	-24.149358	-15.664958	0.884200	2.298738	-3.543772
1.800	5.182537	-1.453268	681.346245	-24.083715	-16.114634	0.917805	2.365117	-3.534725
1.810	5.456661	-1.476039	681.356078	-24.014673	-16.566490	0.947991	2.431400	-3.524541
1.820	5.761068	-1.495189	681.485874	-23.949924	-17.020010	0.973998	2.497485	-3.514368
1.830	6.087714	-1.507658	681.696023	-23.896272	-17.475127	0.996502	2.563478	-3.505415
1.840	6.420770	-1.514791	681.918883	-23.857604	-17.931562	1.017040	2.629574	-3.498598
1.850	6.739962	-1.522489	682.076913	-23.833676	-18.387952	1.036920	2.695877	-3.494280
1.860	7.026121	-1.538842	682.104497	-23.819959	-18.841245	1.056192	2.762223	-3.492128
1.870	7.266625	-1.569952	681.967266	-23.808506	-19.286741	1.073228	2.828104	-3.491151
1.880	7.458200	-1.615723	681.673439	-23.789693	-19.718849	1.085195	2.892712	-3.489896
1.890	7.605932	-1.667921	681.273620	-23.754536	-20.132187	1.089231	2.955081	-3.486783
1.900	7.719494	-1.711933	680.848979	-23.697119	-20.522467	1.083767	3.014247	-3.480525
1.910	7.809007	-1.731637	680.491513	-23.616358	-20.886708	1.069384	3.069356	-3.470485
1.920	7.882708	-1.714932	680.282082	-23.516275	-21.222838	1.048823	3.119711	-3.456842
1.930	7.946978	-1.657376	680.271853	-23.404459	-21.529294	1.026138	3.164807	-3.440457
1.940	8.007557	-1.562744	680.471600	-23.289169	-21.805230	1.005332	3.204429	-3.422504
1.950	8.070205	-1.440917	680.851337	-23.176292	-22.051448	0.989019	3.238805	-3.404016
1.960	8.139895	-1.304399	681.349745	-23.067430	-22.271499	0.977619	3.268732	-3.385549
1.970	8.219087	-1.164919	681.889477	-22.959788	-22.472123	0.969337	3.295567	-3.367083
1.980	8.306457	-1.031242	682.392951	-22.847694	-22.662484	0.960888	3.321031	-3.348173
1.990	8.397278	-0.908463	682.794795	-22.724981	-22.852302	0.948651	3.346877	-3.328230
2.000	8.485749	-0.798102	683.050166	-22.587221	-23.049660	0.929874	3.374519	-3.306817
2.010	8.568536	-0.698172	683.139923	-22.432961	-23.259409	0.903524	3.404780	-3.283802
2.020	8.647848	-0.603174	683.072927	-22.263694	-23.482726	0.870515	3.437807	-3.259344
2.030	8.732059	-0.504766	682.883901	-22.082832	-23.717843	0.833286	3.473188	-3.233761
2.040	8.832788	-0.393645	682.625203	-21.894258	-23.961452	0.794966	3.510192	-3.207362
2.050	8.959260	-0.262087	682.353196	-21.700893	-24.210147	0.758444	3.548037	-3.180302
2.060	9.112713	-0.105834	682.112930	-21.503557	-24.461330	0.725609	3.586111	-3.152492
2.070	9.284186	0.075616	681.926232	-21.300457	-24.713319	0.696929	3.624046	-3.123572
2.080	9.457298	0.280269	681.787558	-21.087530	-24.964746	0.671490	3.661661	-3.092977
2.090	9.614639	0.505447	681.669465	-20.859670	-25.213601	0.647516	3.698802	-3.060086
2.100	9.744113	0.748939	681.536068	-20.612550	-25.456432	0.623195	3.735155	-3.024425
2.110	9.841874	1.008786	681.358999	-20.344472	-25.688112	0.597484	3.770129	-2.985867
2.120	9.910787	1.282021	681.128648	-20.057681	-25.902283	0.570484	3.802847	-2.944771
2.130	9.955977	1.563474	680.856073	-19.758571	-26.092216	0.543237	3.832266	-2.902019
2.140	9.980248	1.845586	680.566882	-19.456616	-26.251681	0.517081	3.857326	-2.858884
2.150	9.981719	2.119365	680.292545	-19.162343	-26.375510	0.492968	3.877083	-2.816780
2.160	9.954581	2.376107	680.063768	-18.885136	-26.459854	0.471125	3.890790	-2.776965
2.170	9.892329	2.609378	679.906722	-18.631692	-26.502318	0.451160	3.897934	-2.740331
2.180	9.791780	2.816608	679.840586	-18.405603	-26.502135	0.432432	3.898287	-2.707341
2.190	9.655824	2.999453	679.875166	-18.207963	-26.460373	0.414440	3.891946	-2.678133
2.200	9.493487	3.162419	680.008630	-18.038417	-26.379963	0.397119	3.879357	-2.652675
2.210	9.317102	3.310283	680.226246	-17.895932	-26.265389	0.380987	3.861272	-2.630879
2.220	9.137823	3.445538	680.501310	-17.778916	-26.122020	0.367099	3.838644	-2.612620
2.230	8.961450	3.567048	680.798851	-17.684978	-25.955271	0.356692	3.812473	-2.597680
2.240	8.786400	3.670415	681.081465	-17.610930	-25.769760	0.350580	3.783653	-2.585730
2.250	8.604641	3.749823	681.315678	-17.553428	-25.568617	0.348563	3.752830	-2.576402
2.260	8.405132	3.800470	681.477251	-17.510014	-25.353082	0.349196	3.720312	-2.569420
2.270	8.178278	3.820500	681.554315	-17.479837	-25.122572	0.350092	3.686070	-2.564702
2.280	7.919532	3.811662	681.547677	-17.463455	-24.875283	0.348676	3.649823	-2.562323
2.290	7.630785	3.778677	681.468478	-17.461902	-24.609196	0.343058	3.611201	-2.562393
2.300	7.319341	3.727779	681.334561	-17.475847	-24.323110	0.332680	3.569922	-2.564944
2.310	6.995523	3.665014	681.167478	-17.505536	-24.017321	0.318539	3.525905	-2.569931
2.320	6.670250	3.594672	680.991041	-17.551370	-23.693789	0.302995	3.479310	-2.577328
2.330	6.353221	3.518323	680.830693	-17.614400	-23.355930	0.289256	3.430505	-2.587192
2.340	6.051393	3.434948	680.712369	-17.696288	-23.008194	0.280643	3.380017	-2.599672
