Time[s]	Fx[N]	Fy[N]	Fz[N]	Mx[Nm]	My[Nm]	Mz[Nm]	COPx[cm]	COPy[cm]
0.010	3.760805	-6.347775	716.461558	2.427814	8.259620	1.195525	-1.152835	0.338862
0.020	3.387209	-6.166898	716.214160	2.650289	8.505584	1.172665	-1.187575	0.370041
0.030	2.985333	-6.011165	716.064846	2.874099	8.764888	1.144497	-1.224036	0.401374
0.040	2.544133	-5.897677	716.106389	3.097342	9.045142	1.108118	-1.263100	0.432525
0.050	2.077752	-5.832024	716.426553	3.312563	9.345081	1.064331	-1.304402	0.462373
0.060	1.623969	-5.808037	717.095706	3.507411	9.654290	1.017466	-1.346304	0.489113
0.070	1.232189	-5.811537	718.146582	3.667787	9.955873	0.973752	-1.386329	0.510730
0.080	0.945240	-5.826617	719.552753	3.782194	10.230948	0.938973	-1.421848	0.525631
0.090	0.781979	-5.842077	721.217362	3.845415	10.463471	0.916357	-1.450807	0.533184
0.100	0.727889	-5.855562	722.982998	3.859970	10.644001	0.905514	-1.472234	0.533895
0.110	0.738336	-5.873763	724.664906	3.834996	10.771327	0.902730	-1.486387	0.529210
0.120	0.754177	-5.908641	726.096572	3.783430	10.851501	0.902378	-1.494498	0.521064
0.130	0.723957	-5.971223	727.167927	3.718873	10.894693	0.898814	-1.498236	0.511419
0.140	0.623713	-6.065309	727.839318	3.653237	10.911175	0.888000	-1.499119	0.501929
0.150	0.466224	-6.183450	728.127536	3.595590	10.908083	0.868371	-1.498101	0.493813
0.160	0.296177	-6.306867	728.074636	3.551977	10.888063	0.840814	-1.495460	0.487859
0.170	0.173876	-6.409710	727.717318	3.525608	10.849945	0.808042	-1.490956	0.484475
0.180	0.154614	-6.466403	727.071375	3.516924	10.790778	0.773742	-1.484143	0.483711
0.190	0.271719	-6.459476	726.135321	3.523565	10.708262	0.741883	-1.474692	0.485249
0.200	0.528535	-6.385082	724.906552	3.540580	10.602706	0.716319	-1.462631	0.488419
0.210	0.900344	-6.254325	723.398433	3.561178	10.477961	0.700549	-1.448436	0.492284
0.220	1.343701	-6.090168	721.649624	3.578050	10.341224	0.697354	-1.432998	0.495815
0.230	1.808944	-5.921250	719.724014	3.584984	10.202023	0.708206	-1.417491	0.498105
0.240	2.251708	-5.774833	717.705203	3.578423	10.070930	0.732695	-1.403213	0.498592
0.250	2.640398	-5.671114	715.690479	3.558477	9.958472	0.768341	-1.391450	0.497209
0.260	2.958304	-5.620294	713.786943	3.528989	9.874425	0.811023	-1.383386	0.494404
0.270	3.201050	-5.622621	712.108789	3.496549	9.827355	0.855786	-1.380036	0.491013
0.280	3.371746	-5.670474	710.771806	3.468830	9.824086	0.897700	-1.382172	0.488037
0.290	3.476518	-5.751245	709.881296	3.452929	9.868991	0.932512	-1.390231	0.486409
0.300	3.521866	-5.850034	709.513223	3.454277	9.963383	0.957146	-1.404256	0.486852
0.310	3.513589	-5.951605	709.693622	3.476234	10.105567	0.970080	-1.423934	0.489822
0.320	3.456054	-6.041475	710.384574	3.520133	10.291852	0.971530	-1.448772	0.495525
0.330	3.351095	-6.106492	711.484733	3.585408	10.518235	0.963267	-1.478350	0.503933
0.340	3.197057	-6.135584	712.848037	3.669695	10.782004	0.948084	-1.512525	0.514793
0.350	2.989382	-6.121195	714.316882	3.769115	11.082450	0.929086	-1.551475	0.527653
0.360	2.723681	-6.061272	715.758474	3.879074	11.420357	0.909075	-1.595560	0.541953
0.370	2.400496	-5.960919	717.090442	3.995486	11.796470	0.890215	-1.645046	0.557180
0.380	2.029195	-5.832387	718.286679	4.115752	12.209552	0.873945	-1.699816	0.572996
0.390	1.628186	-5.692517	719.363908	4.238709	12.654715	0.860994	-1.759153	0.589230
0.400	1.220454	-5.558050	720.357702	4.363358	13.122626	0.851362	-1.821682	0.605721
0.410	0.826227	-5.440602	721.299462	4.487040	13.600023	0.844313	-1.885489	0.622077
0.420	0.456355	-5.343524	722.202498	4.604182	14.071587	0.838479	-1.948427	0.637520
0.430	0.109600	-5.261813	723.058943	4.706392	14.522775	0.832135	-2.008519	0.650900
0.440	-0.225260	-5.184742	723.844491	4.783970	14.942772	0.823583	-2.064362	0.660911
0.450	-0.564218	-5.100018	724.526901	4.828223	15.326683	0.811478	-2.115406	0.666397
0.460	-0.922588	-4.998310	725.075419	4.833755	15.676182	0.794936	-2.162007	0.666655
0.470	-1.311008	-4.877125	725.469207	4.800036	15.998264	0.773445	-2.205230	0.661646
0.480	-1.732355	-4.743082	725.703075	4.731838	16.302243	0.746773	-2.246407	0.652035
0.490	-2.178208	-4.611589	725.789340	4.638403	16.595775	0.715085	-2.286583	0.639084
0.500	-2.625275	-4.503444	725.755773	4.531479	16.881215	0.679283	-2.326019	0.624381
0.510	-3.034921	-4.438928	725.640208	4.422666	17.153668	0.641392	-2.363936	0.609485
0.520	-3.359319	-4.431258	725.481967	4.320775	17.401530	0.604631	-2.398616	0.595573
0.530	-3.554681	-4.481888	725.310614	4.230035	17.609456	0.572973	-2.427850	0.583203
0.540	-3.597452	-4.579529	725.134473	4.149865	17.762858	0.550237	-2.449595	0.572289
0.550	-3.496625	-4.703108	724.933581	4.076230	17.852522	0.539052	-2.462642	0.562290
0.560	-3.296384	-4.827522	724.662324	4.003775	17.877806	0.540076	-2.467053	0.552502
0.570	-3.067397	-4.930442	724.264984	3.927535	17.847256	0.551788	-2.464189	0.542279
0.580	-2.889233	-4.998344	723.702228	3.843518	17.776243	0.570928	-2.456292	0.531091
0.590	-2.828661	-5.029989	722.979278	3.748284	17.682299	0.593485	-2.445755	0.518450
0.600	-2.919243	-5.036257	722.161503	3.638303	17.579736	0.615904	-2.434322	0.503807
0.610	-3.148014	-5.036404	721.365832	3.510007	17.475498	0.636048	-2.422557	0.486578
0.620	-3.455004	-5.051877	720.727514	3.360984	17.367810	0.653571	-2.409761	0.466332
0.630	-3.748611	-5.099240	720.355258	3.191914	17.248072	0.669587	-2.394384	0.443103
0.640	-3.933655	-5.184045	720.294704	3.008110	17.105125	0.685834	-2.374740	0.417622
0.650	-3.942195	-5.297826	720.515529	2.819364	16.930089	0.703703	-2.349719	0.391298
0.660	-3.754903	-5.420023	720.924636	2.637494	16.719872	0.723572	-2.319226	0.365849
0.670	-3.404849	-5.525061	721.395931	2.472219	16.478227	0.744768	-2.284214	0.342699
0.680	-2.963402	-5.592331	721.803455	2.327142	16.214420	0.766200	-2.246376	0.322407
0.690	-2.515132	-5.614919	722.048625	2.197779	15.940395	0.787266	-2.207662	0.304381
0.700	-2.132058	-5.603069	722.077943	2.072636	15.667613	0.808436	-2.169795	0.287038
0.710	-1.856282	-5.580899	721.890169	1.936842	15.404508	0.831012	-2.133913	0.268301
0.720	-1.695233	-5.578464	721.532368	1.776650	15.155141	0.856139	-2.100410	0.246233
0.730	-1.628072	-5.623340	721.085506	1.582964	14.919143	0.883618	-2.068984	0.219525
0.740	-1.618065	-5.735003	720.643154	1.352677	14.692696	0.911260	-2.038831	0.187704
0.750	-1.625248	-5.922508	720.289805	1.087870	14.469967	0.935180	-2.008909	0.151032
0.760	-1.615617	-6.183993	720.085488	0.793850	14.244406	0.950908	-1.978155	0.110244
0.770	-1.565951	-6.506700	720.059713	0.477233	14.009619	0.954848	-1.945619	0.066277
0.780	-1.465501	-6.867714	720.212420	0.144642	13.759971	0.945493	-1.910543	0.020083
0.790	-1.316282	-7.236623	720.516965	-0.198120	13.491275	0.923982	-1.872444	-0.027497
0.800	-1.132618	-7.580790	720.922759	-0.546720	13.201640	0.893855	-1.831214	-0.075836
0.810	-0.939080	-7.872546	721.359990	-0.898671	12.892120	0.860215	-1.787196	-0.124580
0.820	-0.765301	-8.096258	721.750963	-1.253128	12.566663	0.828588	-1.741136	-0.173623
0.830	-0.637296	-8.252733	722.029278	-1.610017	12.231046	0.803811	-1.693982	-0.222985
0.840	-0.567448	-8.358932	722.161482	-1.968847	11.890926	0.789125	-1.646574	-0.272632
0.850	-0.547495	-8.442679	722.160632	-2.327747	11.549588	0.785654	-1.599310	-0.322331
0.860	-0.548551	-8.534166	722.082868	-2.683036	11.206325	0.792397	-1.551944	-0.371569
0.870	-0.529059	-8.657293	722.007101	-3.029317	10.856327	0.806759	-1.503632	-0.419569
0.880	-0.447678	-8.823669	722.007388	-3.359865	10.492273	0.825489	-1.453209	-0.465350
0.890	-0.275973	-9.030572	722.129827	-3.666989	10.106997	0.845692	-1.399609	-0.507802
0.900	-0.006374	-9.262513	722.380532	-3.942297	9.696060	0.865494	-1.342237	-0.545737
0.910	0.346671	-9.495118	722.724428	-4.177117	9.259221	0.884100	-1.281155	-0.577968
0.920	0.751666	-9.699887	723.091212	-4.363480	8.800455	0.901245	-1.217060	-0.603448
0.930	1.168632	-9.848711	723.385561	-4.495710	8.326881	0.916409	-1.151099	-0.621482
0.940	1.558366	-9.917688	723.501370	-4.572255	7.847268	0.928295	-1.084624	-0.631962
0.950	1.890245	-9.890414	723.341202	-4.597133	7.370677	0.935013	-1.018977	-0.635541
0.960	2.147603	-9.761027	722.840332	-4.580263	6.905397	0.935028	-0.955314	-0.633648
0.970	2.330199	-9.536745	721.990207	-4.536286	6.458117	0.928474	-0.894488	-0.628303
0.980	2.453192	-9.239000	720.852175	-4.482011	6.033336	0.918070	-0.836973	-0.621766
0.990	2.542252	-8.902133	719.553045	-4.433312	5.633064	0.908923	-0.782856	-0.616120
1.000	2.625435	-8.569179	718.260819	-4.402526	5.256884	0.907090	-0.731891	-0.612942
1.010	2.724022	-8.285247	717.148098	-4.397079	4.902323	0.917437	-0.683586	-0.613134
1.020	2.845525	-8.089891	716.355766	-4.419362	4.565354	0.941795	-0.637303	-0.616923
1.030	2.981913	-8.010113	715.967994	-4.467384	4.240914	0.978198	-0.592333	-0.623964
1.040	3.114316	-8.055347	716.004005	-4.535749	3.923367	1.021481	-0.547953	-0.633481
1.050	3.222655	-8.215328	716.426403	-4.616788	3.606884	1.064893	-0.503455	-0.644419
1.060	3.295996	-8.461465	717.161321	-4.701921	3.285724	1.102122	-0.458157	-0.655629
1.070	3.339005	-8.752064	718.121953	-4.783198	2.954471	1.129053	-0.411416	-0.666070
1.080	3.371746	-9.040677	719.226248	-4.854605	2.608404	1.144694	-0.362668	-0.674976
1.090	3.423245	-9.285373	720.403783	-4.912679	2.244031	1.150946	-0.311496	-0.681934
1.100	3.521665	-9.455826	721.593278	-4.956258	1.859629	1.151288	-0.257712	-0.686849
1.110	3.684940	-9.536127	722.736047	-4.985588	1.455534	1.149002	-0.201392	-0.689821
1.120	3.915103	-9.523422	723.770374	-5.001214	1.034016	1.145826	-0.142865	-0.690995
1.130	4.197951	-9.424354	724.629807	-5.003109	0.598786	1.141698	-0.082633	-0.690437
1.140	4.507692	-9.251601	725.246110	-4.990430	0.154307	1.135584	-0.021277	-0.688102
1.150	4.814629	-9.021675	725.555788	-4.962157	-0.294775	1.126801	0.040627	-0.683911
1.160	5.092944	-8.753835	725.507995	-4.918551	-0.743797	1.116118	0.102521	-0.677946
1.170	5.325920	-8.469364	725.071859	-4.862925	-1.187834	1.106178	0.163823	-0.670682
1.180	5.507482	-8.190734	724.242849	-4.802871	-1.621401	1.101050	0.223875	-0.663157
1.190	5.641021	-7.940648	723.049423	-4.750030	-2.038599	1.104991	0.281945	-0.656944
1.200	5.737519	-7.741134	721.560312	-4.718008	-2.433899	1.120815	0.337311	-0.653862
1.210	5.814303	-7.612674	719.888585	-4.718846	-2.803238	1.148597	0.389399	-0.655497
1.220	5.893957	-7.572911	718.184747	-4.759305	-3.144757	1.185396	0.437876	-0.662685
1.230	6.001509	-7.634287	716.613090	-4.838516	-3.458570	1.226244	0.482627	-0.675192
1.240	6.158207	-7.800403	715.314732	-4.948131	-3.745487	1.265924	0.523614	-0.691742
1.250	6.372338	-8.062087	714.371546	-5.075051	-4.005256	1.300609	0.560669	-0.710422
1.260	6.630844	-8.395350	713.788860	-5.205576	-4.235369	1.328612	0.593364	-0.729288
1.270	6.897453	-8.763262	713.507166	-5.329096	-4.431248	1.350048	0.621052	-0.746888
1.280	7.121164	-9.122152	713.438365	-5.439798	-4.587932	1.365850	0.643073	-0.762476
1.290	7.253292	-9.430322	713.509913	-5.536008	-4.702499	1.376772	0.659066	-0.775884
1.300	7.265540	-9.656139	713.697289	-5.618169	-4.776038	1.382834	0.669197	-0.787192
1.310	7.160039	-9.783023	714.031476	-5.686918	-4.814159	1.383299	0.674222	-0.796452
1.320	6.966462	-9.810626	714.579669	-5.742323	-4.825805	1.377018	0.675335	-0.803595
1.330	6.728353	-9.752947	715.408658	-5.784381	-4.820932	1.362954	0.673871	-0.808542
1.340	6.485923	-9.634527	716.546648	-5.814132	-4.808129	1.340714	0.671014	-0.811410
1.350	6.263073	-9.485664	717.958806	-5.834579	-4.793164	1.311022	0.667610	-0.812662
1.360	6.063311	-9.337415	719.545800	-5.850783	-4.778998	1.275988	0.664169	-0.813122
1.370	5.875082	-9.216940	721.165814	-5.868899	-4.767157	1.239027	0.661035	-0.813807
1.380	5.683369	-9.143432	722.671621	-5.894370	-4.759768	1.204314	0.658635	-0.815636
1.390	5.481904	-9.124999	723.948844	-5.929902	-4.761284	1.175857	0.657682	-0.819105
1.400	5.280131	-9.157236	724.941417	-5.974113	-4.779023	1.156491	0.659229	-0.824082
1.410	5.101548	-9.224490	725.655391	-6.021529	-4.822086	1.147195	0.664515	-0.829806
1.420	4.974291	-9.304399	726.140720	-6.064014	-4.898920	1.146965	0.674652	-0.835102
1.430	4.918626	-9.374928	726.459622	-6.093114	-5.014404	1.153218	0.690252	-0.838741
1.440	4.937526	-9.421530	726.655316	-6.102506	-5.167772	1.162535	0.711172	-0.839808
1.450	5.014947	-9.441251	726.733553	-6.089773	-5.352412	1.171507	0.736503	-0.837965
1.460	5.122594	-9.441606	726.662499	-6.056944	-5.557806	1.177497	0.764840	-0.833529
1.470	5.231904	-9.434709	726.388362	-6.009574	-5.772823	1.179155	0.794730	-0.827322
1.480	5.325743	-9.429707	725.858983	-5.954528	-5.988917	1.176546	0.825080	-0.820342
1.490	5.404860	-9.427573	725.046588	-5.897166	-6.201885	1.170863	0.855377	-0.813350
1.500	5.486752	-9.420871	723.962635	-5.839002	-6.411634	1.163796	0.885631	-0.806534
1.510	5.597744	-9.398193	722.660709	-5.776946	-6.620352	1.156840	0.916108	-0.799399
1.520	5.761401	-9.350343	721.227007	-5.704653	-6.830018	1.150814	0.947000	-0.790965
1.530	5.987488	-9.274887	719.761515	-5.615579	-7.040216	1.145750	0.978132	-0.780200
1.540	6.265357	-9.177245	718.355747	-5.506449	-7.246904	1.141174	1.008818	-0.766535
1.550	6.564146	-9.068691	717.074725	-5.379533	-7.442432	1.136627	1.037888	-0.750205
1.560	6.839880	-8.962800	715.950165	-5.242602	-7.616726	1.132168	1.063863	-0.732258
1.570	7.047269	-8.871872	714.987043	-5.106500	-7.759255	1.128546	1.085230	-0.714209
1.580	7.152385	-8.804157	714.179056	-4.981330	-7.861091	1.126892	1.100717	-0.697490
1.590	7.141970	-8.762071	713.525125	-4.872722	-7.916374	1.128050	1.109474	-0.682908
1.600	7.026303	-8.741445	713.041071	-4.779588	-7.922910	1.131922	1.111144	-0.670310
1.610	6.835120	-8.732072	712.764494	-4.694193	-7.882154	1.137166	1.105857	-0.658590
1.620	6.608847	-8.719937	712.752720	-4.604607	-7.799045	1.141525	1.094215	-0.646031
1.630	6.388793	-8.691098	713.073310	-4.498717	-7.681885	1.142695	1.077292	-0.630891
1.640	6.209131	-8.636162	713.786719	-4.368231	-7.541969	1.139391	1.056614	-0.611980
1.650	6.091489	-8.553524	714.923284	-4.210995	-7.392509	1.132028	1.034028	-0.589014
1.660	6.041606	-8.449798	716.460819	-4.030741	-7.246679	1.122645	1.011455	-0.562591
1.670	6.047977	-8.337195	718.311767	-3.834759	-7.115199	1.114103	0.990545	-0.533857
1.680	6.083651	-8.229012	720.327467	-3.630894	-7.004328	1.108968	0.972381	-0.504062
1.690	6.112434	-8.134905	722.321318	-3.425212	-6.915102	1.108532	0.957344	-0.474195
1.700	6.099008	-8.057402	724.105161	-3.220900	-6.844081	1.112270	0.945178	-0.444811
1.710	6.020087	-7.990665	725.527581	-3.018325	-6.785175	1.117898	0.935206	-0.416018
1.720	5.872342	-7.922206	726.501422	-2.815904	-6.731844	1.122067	0.926611	-0.387598
1.730	5.673677	-7.837493	727.011680	-2.611352	-6.679091	1.121575	0.918705	-0.359190
1.740	5.457439	-7.726060	727.102836	-2.402766	-6.624919	1.114699	0.911139	-0.330457
1.750	5.262481	-7.586343	726.853022	-2.189083	-6.571031	1.102075	0.904038	-0.301173
1.760	5.123463	-7.426403	726.346539	-1.969702	-6.522469	1.086699	0.897983	-0.271179
1.770	5.064510	-7.259553	725.653803	-1.743487	-6.486106	1.073020	0.893829	-0.240264
1.780	5.096478	-7.096906	724.821958	-1.507740	-6.468333	1.065524	0.892403	-0.208015
1.790	5.216282	-6.940923	723.875168	-1.257870	-6.472749	1.067415	0.894180	-0.173769
1.800	5.407066	-6.783667	722.822492	-0.988185	-6.498717	1.079834	0.899075	-0.136712
1.810	5.639653	-6.610592	721.670724	-0.693590	-6.541215	1.101757	0.906399	-0.096109
1.820	5.876566	-6.407467	720.437585	-0.371439	-6.591841	1.130394	0.914977	-0.051557
1.830	6.079007	-6.166652	719.158985	-0.022801	-6.640467	1.161896	0.923366	-0.003170
1.840	6.215409	-5.890062	717.886306	0.347215	-6.676890	1.192239	0.930076	0.048366
1.850	6.268761	-5.588341	716.676151	0.729990	-6.691995	1.218131	0.933754	0.101858
1.860	6.240107	-5.277520	715.580610	1.114557	-6.678284	1.237707	0.933268	0.155756
1.870	6.147218	-4.975006	714.645004	1.489210	-6.630087	1.250709	0.927746	0.208385
1.880	6.019445	-4.696329	713.912775	1.843366	-6.543915	1.258123	0.916627	0.258206
1.890	5.890764	-4.453191	713.430237	2.169438	-6.419091	1.261482	0.899750	0.304085
1.900	5.792629	-4.252559	713.243231	2.464257	-6.258295	1.262188	0.877442	0.345500
1.910	5.747240	-4.096352	713.383510	2.729529	-6.067350	1.261047	0.850503	0.382617
1.920	5.761480	-3.981410	713.850210	2.970885	-5.853850	1.257983	0.820039	0.416178
1.930	5.822612	-3.899839	714.596361	3.195567	-5.624844	1.251925	0.787136	0.447185
1.940	5.897829	-3.840150	715.529318	3.409435	-5.384365	1.240982	0.752501	0.476491
1.950	5.939584	-3.789521	716.527720	3.614366	-5.131961	1.223115	0.716226	0.504428
1.960	5.896740	-3.736947	717.469779	3.807111	-4.863066	1.197252	0.677808	0.530630
1.970	5.729049	-3.676235	718.263228	3.980108	-4.571244	1.164438	0.636430	0.554129
1.980	5.420551	-3.607628	718.867423	4.123823	-4.251390	1.128373	0.591401	0.573656
1.990	4.987131	-3.537456	719.300876	4.229486	-3.902554	1.094913	0.542548	0.588000
2.000	4.475015	-3.476204	719.631628	4.291158	-3.529294	1.070555	0.490431	0.596299
2.010	3.950024	-3.436115	719.952924	4.306679	-3.141125	1.060383	0.436296	0.598189
2.020	3.480495	-3.429414	720.351520	4.277568	-2.750305	1.066234	0.381800	0.593817
2.030	3.118651	-3.467536	720.878266	4.208125	-2.368729	1.085828	0.328589	0.583750
2.040	2.885640	-3.560598	721.530140	4.104180	-2.004995	1.113274	0.277881	0.568816
2.050	2.765059	-3.715822	722.250129	3.972011	-1.662680	1.140753	0.230208	0.549949
2.060	2.708208	-3.934250	722.946027	3.817853	-1.340404	1.160739	0.185409	0.528097
2.070	2.650728	-4.206823	723.521680	3.648071	-1.033595	1.167990	0.142856	0.504210
2.080	2.535284	-4.512247	723.908084	3.469604	-0.737145	1.160755	0.101829	0.479288
2.090	2.331482	-4.818845	724.082026	3.290148	-0.447888	1.140966	0.061856	0.454389
2.100	2.045158	-5.090822	724.067249	3.117680	-0.166025	1.113433	0.022930	0.430579
2.110	1.714277	-5.297280	723.921914	2.959374	0.104779	1.084321	-0.014474	0.408797
2.120	1.394886	-5.420811	723.719978	2.820371	0.358370	1.059371	-0.049518	0.389705
2.130	1.143840	-5.462187	723.532180	2.702992	0.587684	1.042463	-0.081224	0.373583
2.140	1.004018	-5.439021	723.409189	2.606861	0.786524	1.034907	-0.108725	0.360358
2.150	0.994542	-5.378838	723.368680	2.529969	0.951244	1.035577	-0.131502	0.349748
2.160	1.106312	-5.309533	723.388751	2.470243	1.082114	1.041618	-0.149590	0.341482
2.170	1.303059	-5.251046	723.410434	2.426805	1.184078	1.049413	-0.163680	0.335467
2.180	1.528679	-5.211144	723.351385	2.400172	1.266523	1.055527	-0.175091	0.331813
2.190	1.720808	-5.186212	723.129919	2.391112	1.341817	1.057497	-0.185557	0.330661
2.200	1.828108	-5.166076	722.693136	2.398693	1.422805	1.054390	-0.196875	0.331910
2.210	1.825912	-5.140660	722.038441	2.418658	1.519905	1.047024	-0.210502	0.334976
2.220	1.724090	-5.105866	721.219022	2.443142	1.638673	1.037737	-0.227209	0.338752
2.230	1.563536	-5.066417	720.330757	2.461957	1.778634	1.029667	-0.246919	0.341781
2.240	1.402216	-5.034573	719.486133	2.464858	1.933822	1.025677	-0.268778	0.342586
2.250	1.295840	-5.025357	718.785571	2.443894	2.094911	1.027309	-0.291452	0.340003
2.260	1.280077	-5.050285	718.296417	2.395125	2.252229	1.034177	-0.313551	0.333445
2.270	1.360210	-5.112113	718.045095	2.319212	2.398656	1.044095	-0.334054	0.322990
2.280	1.511064	-5.202673	718.021645	2.220699	2.531573	1.053905	-0.352576	0.309280
2.290	1.686172	-5.304980	718.191732	2.106217	2.653404	1.060666	-0.369456	0.293267
2.300	1.832268	-5.399326	718.510451	1.982239	2.770695	1.062678	-0.385616	0.275882
2.310	1.904085	-5.471355	718.933543	1.853227	2.891930	1.059915	-0.402253	0.257774
2.320	1.875252	-5.518803	719.423726	1.720751	3.024648	1.053706	-0.420427	0.239185
2.330	1.742949	-5.553749	719.951983	1.583736	3.172805	1.045895	-0.440697	0.219978
2.340	1.526116	-5.598873	720.494852	1.439675	3.335398	1.037921	-0.462932	0.199817
2.350	1.258714	-5.678781	721.029256	1.286360	3.506895	1.030281	-0.486374	0.178406
2.360	0.980582	-5.809571	721.527464	1.123478	3.679164	1.022576	-0.509913	0.155708
2.370	0.728504	-5.990708	721.956190	0.953388	3.843926	1.014015	-0.532432	0.132056
2.380	0.529494	-6.202612	722.283092	0.780743	3.994672	1.003999	-0.553062	0.108094
2.390	0.397260	-6.411371	722.489580	0.611114	4.127436	0.992507	-0.571280	0.084585
