Time[s]	Fx[N]	Fy[N]	Fz[N]	Mx[Nm]	My[Nm]	Mz[Nm]	COPx[cm]	COPy[cm]
0.010	6.769725	-0.947042	533.970330	6.766939	14.819619	0.634566	-2.775364	1.267288
0.020	6.821526	-0.896084	533.539927	6.718708	14.697808	0.621219	-2.754772	1.259270
0.030	6.886350	-0.845259	533.020281	6.675414	14.577410	0.606854	-2.734870	1.252375
0.040	6.970447	-0.795564	532.352006	6.640993	14.459977	0.591056	-2.716244	1.247482
0.050	7.070692	-0.749043	531.519920	6.617347	14.347101	0.574353	-2.699259	1.244986
0.060	7.176761	-0.708287	530.555870	6.604359	14.240242	0.558099	-2.684023	1.244800
0.070	7.276404	-0.675375	529.527855	6.600527	14.140765	0.544023	-2.670448	1.246493
0.080	7.360437	-0.650969	528.520860	6.603765	14.050297	0.533698	-2.658419	1.249480
0.090	7.424863	-0.634360	527.616463	6.612091	13.971210	0.528120	-2.647986	1.253200
0.100	7.469616	-0.624680	526.876594	6.624135	13.906912	0.527484	-2.639501	1.257246
0.110	7.495428	-0.622344	526.334247	6.639491	13.861683	0.531172	-2.633627	1.261459
0.120	7.500978	-0.629304	525.992716	6.658852	13.840023	0.537939	-2.631220	1.265959
0.130	7.481891	-0.647383	525.833771	6.683931	13.845692	0.546226	-2.633093	1.271111
0.140	7.431890	-0.675556	525.832288	6.717287	13.880736	0.554492	-2.639765	1.277458
0.150	7.345314	-0.707906	525.971350	6.762141	13.944762	0.561502	-2.651240	1.285648
0.160	7.219707	-0.733564	526.251124	6.822087	14.034603	0.566537	-2.666902	1.296356
0.170	7.057448	-0.738727	526.687868	6.900487	14.144490	0.569534	-2.685555	1.310166
0.180	6.865955	-0.709969	527.303759	6.999435	14.266774	0.571097	-2.705608	1.327401
0.190	6.656546	-0.637907	528.111413	7.118465	14.393167	0.572301	-2.725404	1.347910
0.200	6.442164	-0.520408	529.098388	7.253536	14.516265	0.574319	-2.743585	1.370924
0.210	6.234231	-0.364389	530.217330	7.397025	14.630883	0.578000	-2.759412	1.395093
0.220	6.039307	-0.185249	531.386505	7.539124	14.734676	0.583580	-2.772874	1.418765
0.230	5.856966	-0.003673	532.502500	7.670231	14.827710	0.590623	-2.784533	1.440412
0.240	5.680583	0.159410	533.462447	7.783360	14.911193	0.598179	-2.795172	1.459027
0.250	5.501792	0.288033	534.188876	7.875537	14.986007	0.605069	-2.805376	1.474298
0.260	5.317317	0.374587	534.648413	7.947746	15.051746	0.610222	-2.815261	1.486537
0.270	5.134774	0.420159	534.857253	8.003697	15.106511	0.612987	-2.824401	1.496417
0.280	4.973741	0.432005	534.871111	8.048111	15.147224	0.613326	-2.831939	1.504682
0.290	4.860475	0.419842	534.763257	8.085213	15.170119	0.611822	-2.836791	1.511924
0.300	4.818259	0.392949	534.598895	8.117806	15.171319	0.609472	-2.837888	1.518485
0.310	4.857904	0.358989	534.415500	8.146944	15.147561	0.607339	-2.834416	1.524459
0.320	4.972943	0.324114	534.215605	8.172071	15.097100	0.606206	-2.826031	1.529733
0.330	5.141557	0.293465	533.972723	8.191558	15.020594	0.606371	-2.812989	1.534078
0.340	5.334017	0.271563	533.646567	8.203709	14.921555	0.607655	-2.796149	1.537293
0.350	5.522223	0.262493	533.202522	8.208177	14.805882	0.609529	-2.776784	1.539411
0.360	5.687652	0.269818	532.630217	8.207298	14.680343	0.611269	-2.756198	1.540900
0.370	5.825303	0.296216	531.955056	8.206554	14.550457	0.612052	-2.735279	1.542716
0.380	5.942859	0.343042	531.236899	8.213605	14.418823	0.611004	-2.714198	1.546129
0.390	6.055794	0.410144	530.554551	8.236114	14.284852	0.607238	-2.692438	1.552359
0.400	6.180147	0.495972	529.981447	8.279268	14.146154	0.599901	-2.669179	1.562181
0.410	6.325302	0.597863	529.562117	8.344036	14.000876	0.588312	-2.643859	1.575648
0.420	6.489278	0.712425	529.298385	8.426766	13.849883	0.572257	-2.616649	1.592063
0.430	6.658443	0.835939	529.150156	8.520128	13.697880	0.552384	-2.588657	1.610153
0.440	6.812046	0.964507	529.050326	8.614968	13.553045	0.530464	-2.561769	1.628383
0.450	6.929680	1.093643	528.928495	8.702486	13.425185	0.509201	-2.538185	1.645305
0.460	6.998366	1.217615	528.735727	8.776243	13.322977	0.491570	-2.519780	1.659854
0.470	7.016401	1.329531	528.463181	8.833670	13.251284	0.479916	-2.507513	1.671577
0.480	6.993028	1.422866	528.149674	8.876848	13.209684	0.475264	-2.501125	1.680745
0.490	6.944938	1.493876	527.875243	8.912312	13.192806	0.477081	-2.499228	1.688337
0.500	6.891338	1.543369	527.740296	8.949573	13.192201	0.483553	-2.499752	1.695829
0.510	6.848981	1.576694	527.834707	8.998399	13.198847	0.492218	-2.500564	1.704776
0.520	6.828059	1.602075	528.206555	9.065447	13.205385	0.500742	-2.500042	1.716269
0.530	6.829722	1.628203	528.841757	9.151455	13.207591	0.507598	-2.497456	1.730471
0.540	6.845982	1.661865	529.662081	9.250185	13.204824	0.512406	-2.493066	1.746431
0.550	6.862400	1.706014	530.542890	9.349739	13.199382	0.515866	-2.487901	1.762297
0.560	6.863073	1.758704	531.345990	9.435956	13.194901	0.519327	-2.483297	1.775859
0.570	6.836479	1.813492	531.957704	9.496708	13.194326	0.524222	-2.480334	1.785237
0.580	6.780335	1.861576	532.319429	9.525440	13.198180	0.531551	-2.479372	1.789422
0.590	6.703890	1.894997	532.439938	9.522567	13.203755	0.541565	-2.479858	1.788477
0.600	6.626736	1.909321	532.385380	9.494288	13.205557	0.553696	-2.480451	1.783349
0.610	6.574151	1.904406	532.250903	9.449542	13.196968	0.566704	-2.479464	1.775392
0.620	6.570066	1.882943	532.123980	9.396490	13.172553	0.578980	-2.475467	1.765846
0.630	6.629807	1.847774	532.052551	9.339866	13.130112	0.588940	-2.467822	1.755441
0.640	6.755174	1.799655	532.029950	9.279968	13.071568	0.595434	-2.456923	1.744257
0.650	6.933717	1.736785	532.002260	9.213417	13.002378	0.598070	-2.444046	1.731838
0.660	7.142469	1.656301	531.894003	9.135185	12.929823	0.597295	-2.430902	1.717482
0.670	7.354553	1.556818	531.640253	9.041031	12.860983	0.594189	-2.419114	1.700592
0.680	7.546077	1.440584	531.212133	8.929480	12.801169	0.590017	-2.409804	1.680963
0.690	7.701037	1.314179	530.627603	8.802819	12.753284	0.585777	-2.403434	1.658945
0.700	7.813228	1.187314	529.946153	8.666856	12.718135	0.581928	-2.399892	1.635422
0.710	7.885454	1.070117	529.251193	8.529510	12.695367	0.578360	-2.398741	1.611618
0.720	7.926886	0.970055	528.626808	8.398543	12.684490	0.574529	-2.399517	1.588747
0.730	7.949444	0.889931	528.136618	8.279113	12.685529	0.569672	-2.401941	1.567608
0.740	7.964072	0.827725	527.811705	8.172063	12.699149	0.563101	-2.406000	1.548291
0.750	7.977953	0.777808	527.651544	8.073694	12.726312	0.554543	-2.411878	1.530118
0.760	7.993581	0.732516	527.636367	7.977131	12.767745	0.544391	-2.419800	1.511862
0.770	8.009638	0.683550	527.743604	7.874674	12.823532	0.533740	-2.429879	1.492140
0.780	8.022540	0.623472	527.958654	7.760124	12.893133	0.524151	-2.442072	1.469835
0.790	8.027184	0.547628	528.273646	7.630236	12.975891	0.517292	-2.456282	1.444372
0.800	8.016223	0.455997	528.675572	7.484812	13.071828	0.514691	-2.472561	1.415767
0.810	7.978657	0.353800	529.132506	7.325538	13.182315	0.517722	-2.491307	1.384443
0.820	7.899613	0.249840	529.588406	7.154180	13.310233	0.527734	-2.513317	1.350894
0.830	7.763218	0.152488	529.971920	6.971056	13.459341	0.546029	-2.539633	1.315363
0.840	7.558818	0.064603	530.216311	6.774663	13.632908	0.573477	-2.571197	1.277717
0.850	7.288543	-0.020358	530.282003	6.562758	13.832031	0.609790	-2.608429	1.237598
0.860	6.972551	-0.118703	530.172528	6.334495	14.054306	0.652811	-2.650893	1.194799
0.870	6.648378	-0.252200	529.937445	6.092565	14.293525	0.698294	-2.697210	1.149676
0.880	6.362756	-0.440100	529.660258	5.844224	14.540750	0.740500	-2.745298	1.103391
0.890	6.157602	-0.690553	529.434958	5.600478	14.786529	0.773615	-2.792889	1.057822
0.900	6.055066	-0.995115	529.339768	5.373524	15.023453	0.793542	-2.838149	1.015137
0.910	6.047716	-1.328993	529.417705	5.173363	15.248023	0.799317	-2.880150	0.977180
0.920	6.098403	-1.657450	529.669759	5.004938	15.461079	0.793492	-2.919003	0.944917
0.930	6.150810	-1.946271	530.060792	4.866948	15.666703	0.781228	-2.955643	0.918187
0.940	6.147615	-2.172349	530.534526	4.752781	15.870156	0.768417	-2.991352	0.895848
0.950	6.049942	-2.330057	531.032415	4.653115	16.075689	0.759581	-3.027252	0.876239
0.960	5.850722	-2.430596	531.510163	4.559182	16.284947	0.756386	-3.063901	0.857779
0.970	5.576638	-2.494619	531.945799	4.465591	16.496342	0.757363	-3.101132	0.839482
0.980	5.277881	-2.541534	532.336554	4.371846	16.705436	0.758856	-3.138134	0.821256
0.990	5.009986	-2.580464	532.687033	4.282144	16.906070	0.756653	-3.173734	0.803876
1.000	4.814952	-2.606813	532.995106	4.203513	17.091887	0.747549	-3.206763	0.788659
1.010	4.708569	-2.605418	533.242435	4.143004	17.257809	0.730303	-3.236391	0.776946
1.020	4.677784	-2.558079	533.394387	4.105118	17.401095	0.705829	-3.262332	0.769621
1.030	4.688001	-2.451791	533.409800	4.090563	17.521674	0.676779	-3.284843	0.766871
1.040	4.696856	-2.284693	533.256227	4.096776	17.621738	0.646784	-3.304554	0.768257
1.050	4.669387	-2.068317	532.924145	4.119716	17.704821	0.619567	-3.322203	0.773040
1.060	4.589722	-1.825925	532.435454	4.155942	17.774664	0.598092	-3.338370	0.780553
1.070	4.466044	-1.587442	531.844660	4.204108	17.834167	0.583935	-3.353266	0.790477
1.080	4.327940	-1.382176	531.232381	4.265488	17.884623	0.577033	-3.366629	0.802942
1.090	4.217439	-1.231209	530.691339	4.343642	17.925450	0.575937	-3.377754	0.818487
1.100	4.176735	-1.141542	530.306485	4.443449	17.954542	0.578424	-3.385692	0.837902
1.110	4.236139	-1.103776	530.133389	4.569740	17.969215	0.582201	-3.389565	0.861998
1.120	4.405432	-1.094324	530.180781	4.725709	17.967419	0.585379	-3.388923	0.891339
1.130	4.670651	-1.081916	530.403362	4.911377	17.948805	0.586657	-3.383992	0.925970
1.140	4.996996	-1.036658	530.709475	5.122500	17.915309	0.585344	-3.375728	0.965217
1.150	5.337086	-0.938778	530.984416	5.350339	17.871153	0.581435	-3.365664	1.007626
1.160	5.642336	-0.784139	531.123849	5.582512	17.822292	0.575720	-3.355581	1.051075
1.170	5.874222	-0.584751	531.065792	5.804732	17.775361	0.569796	-3.347111	1.093034
1.180	6.012329	-0.364515	530.808942	6.003004	17.736322	0.565834	-3.341376	1.130916
1.190	6.057501	-0.152277	530.410937	6.165796	17.709200	0.566104	-3.338770	1.162456
1.200	6.030143	0.024963	529.968398	6.285734	17.695395	0.572421	-3.338953	1.186058
1.210	5.964735	0.146507	529.586645	6.360437	17.693892	0.585664	-3.341076	1.201019
1.220	5.901748	0.199394	529.349365	6.392201	17.702238	0.605484	-3.344150	1.207558
1.230	5.878090	0.177680	529.297498	6.386654	17.717765	0.630298	-3.347411	1.206628
1.240	5.917876	0.081341	529.422939	6.350931	17.738537	0.657602	-3.350542	1.199595
1.250	6.025988	-0.083623	529.677563	6.292173	17.763779	0.684561	-3.353697	1.187925
1.260	6.186702	-0.303805	529.992980	6.216903	17.793905	0.708709	-3.357385	1.173016
1.270	6.368145	-0.557438	530.303136	6.131220	17.830269	0.728507	-3.362279	1.156173
1.280	6.531379	-0.815950	530.561949	6.041273	17.874602	0.743600	-3.368994	1.138656
1.290	6.641364	-1.048565	530.751655	5.953427	17.928158	0.754696	-3.377881	1.121697
1.300	6.676625	-1.228368	530.881916	5.873973	17.990809	0.763094	-3.388853	1.106456
1.310	6.634865	-1.337461	530.981689	5.808620	18.060494	0.770001	-3.401340	1.093940
1.320	6.533070	-1.369558	531.086021	5.762009	18.133357	0.775895	-3.414392	1.084948
1.330	6.402133	-1.329719	531.220723	5.737224	18.204581	0.780279	-3.426934	1.080008
1.340	6.277448	-1.231793	531.389613	5.735249	18.269598	0.781941	-3.438080	1.079293
1.350	6.188215	-1.094403	531.569311	5.754499	18.325203	0.779582	-3.447378	1.082549
1.360	6.149056	-0.936482	531.714224	5.790756	18.370196	0.772486	-3.454900	1.089073
1.370	6.157139	-0.773737	531.770034	5.837750	18.405453	0.760969	-3.461168	1.097796
1.380	6.195824	-0.617222	531.690245	5.888441	18.433613	0.746455	-3.466983	1.107495
1.390	6.242910	-0.474295	531.449790	5.936692	18.458528	0.731207	-3.473240	1.117075
1.400	6.279623	-0.350899	531.052097	5.978725	18.484608	0.717766	-3.480752	1.125826
1.410	6.296592	-0.253413	530.528334	6.013738	18.516152	0.708308	-3.490134	1.133538
1.420	6.294671	-0.188636	529.928494	6.043422	18.556894	0.704193	-3.501773	1.140422
1.430	6.280780	-0.161721	529.306013	6.070655	18.609987	0.705909	-3.515922	1.146908
1.440	6.261120	-0.173323	528.701493	6.097964	18.678428	0.713425	-3.532887	1.153385
1.450	6.235360	-0.217890	528.133293	6.126344	18.765687	0.726677	-3.553210	1.160000
1.460	6.194898	-0.284522	527.599997	6.154957	18.876120	0.745889	-3.577733	1.166595
1.470	6.126152	-0.360527	527.093697	6.181796	19.014809	0.771499	-3.607482	1.172808
1.480	6.017203	-0.436297	526.617579	6.204987	19.186703	0.803707	-3.643384	1.178272
1.490	5.864580	-0.509121	526.199021	6.224055	19.395174	0.841834	-3.685901	1.182833
1.500	5.677085	-0.583728	525.891397	6.240508	19.640447	0.883834	-3.734696	1.186653
1.510	5.474742	-0.669087	525.763066	6.257529	19.918545	0.926312	-3.788502	1.190180
1.520	5.282803	-0.773169	525.877957	6.279096	20.221387	0.965172	-3.845262	1.194022
1.530	5.122764	-0.898388	526.275551	6.309076	20.538267	0.996708	-3.902569	1.198816
1.540	5.004018	-1.039758	526.957920	6.350614	20.858254	1.018624	-3.958239	1.205146
1.550	4.919965	-1.186115	527.888093	6.405818	21.172564	1.030530	-4.010805	1.213480
1.560	4.850455	-1.323383	528.999118	6.475593	21.475891	1.033666	-4.059722	1.224122
1.570	4.769422	-1.438305	530.209033	6.559633	21.766167	1.030003	-4.105205	1.237179
1.580	4.654229	-1.521307	531.435597	6.656584	22.042968	1.021156	-4.147816	1.252566
1.590	4.492980	-1.567718	532.605978	6.764410	22.305473	1.007683	-4.187988	1.270059
1.600	4.287606	-1.577206	533.659563	6.880822	22.551120	0.989115	-4.225750	1.289366
1.610	4.052553	-1.551780	534.545476	7.003580	22.775664	0.964623	-4.260753	1.310193
1.620	3.810398	-1.493273	535.219336	7.130520	22.974423	0.933847	-4.292525	1.332261
1.630	3.586270	-1.401484	535.644395	7.259424	23.143786	0.897374	-4.320737	1.355269
1.640	3.402857	-1.273998	535.799042	7.387994	23.282049	0.856657	-4.345295	1.378874
1.650	3.277170	-1.107865	535.687198	7.514178	23.389259	0.813539	-4.366216	1.402717
1.660	3.219254	-0.902517	535.344242	7.636811	23.466429	0.769776	-4.383428	1.426523
1.670	3.232201	-0.662755	534.832430	7.756293	23.514790	0.726821	-4.396665	1.450229
1.680	3.312740	-0.400491	534.225481	7.874846	23.535584	0.685910	-4.405553	1.474068
1.690	3.452334	-0.134128	533.588421	7.995969	23.530385	0.648274	-4.409838	1.498527
1.700	3.638831	0.114549	532.961825	8.123067	23.501648	0.615311	-4.409631	1.524137
1.710	3.858182	0.324927	532.357256	8.257848	23.453189	0.588588	-4.405536	1.551185
1.720	4.095483	0.481807	531.764125	8.399364	23.390419	0.569646	-4.398646	1.579528
1.730	4.335247	0.578139	531.162542	8.544275	23.320167	0.559610	-4.390401	1.608599
1.740	4.561701	0.615973	530.536266	8.688178	23.249995	0.558728	-4.382357	1.637622
1.750	4.759999	0.605845	529.883144	8.827355	23.187067	0.566066	-4.375883	1.665906
1.760	4.918503	0.564655	529.222628	8.960205	23.136935	0.579579	-4.371872	1.693088
1.770	5.031482	0.512243	528.599245	9.087912	23.102614	0.596538	-4.370535	1.719244
1.780	5.101234	0.467435	528.079777	9.214183	23.084236	0.614133	-4.371354	1.744847
1.790	5.138559	0.444789	527.742853	9.344052	23.079308	0.629989	-4.373211	1.770569
1.800	5.160860	0.452903	527.661995	9.482026	23.083556	0.642458	-4.374686	1.796989
1.810	5.187726	0.494284	527.885363	9.630109	23.092166	0.650706	-4.374466	1.824280
1.820	5.234844	0.566251	528.417367	9.786498	23.101139	0.654697	-4.371760	1.852039
1.830	5.308200	0.662270	529.208792	9.945664	23.108216	0.655129	-4.366559	1.879346
1.840	5.401103	0.773270	530.161290	10.100046	23.112950	0.653327	-4.359607	1.905089
1.850	5.495829	0.888741	531.147055	10.242746	23.115989	0.650985	-4.352088	1.928420
1.860	5.569499	0.997696	532.037783	10.369995	23.118081	0.649728	-4.345195	1.949109
1.870	5.601683	1.089870	532.732943	10.482203	23.119455	0.650635	-4.339783	1.967628
1.880	5.580615	1.157489	533.177871	10.583222	23.119759	0.653944	-4.336219	1.984933
1.890	5.506077	1.197474	533.366399	10.678336	23.118344	0.659049	-4.334421	2.002064
1.900	5.388731	1.213207	533.329114	10.771924	23.114537	0.664787	-4.334010	2.019752
1.910	5.247004	1.214596	533.114246	10.865661	23.107755	0.669879	-4.334485	2.038149
1.920	5.103055	1.215830	532.770057	10.957860	23.097586	0.673395	-4.335376	2.056771
1.930	4.979022	1.231278	532.334539	11.044196	23.083894	0.675098	-4.336351	2.074672
1.940	4.893832	1.270927	531.832744	11.119468	23.066940	0.675542	-4.337255	2.090783
1.950	4.860253	1.336923	531.278439	11.179545	23.047415	0.675891	-4.338105	2.104272
1.960	4.882086	1.422520	530.677214	11.222545	23.026396	0.677560	-4.339059	2.114759
1.970	4.952299	1.514022	530.031092	11.248972	23.005385	0.681881	-4.340384	2.122323
1.980	5.053629	1.595135	529.346489	11.261191	22.986510	0.689880	-4.342432	2.127376
1.990	5.162673	1.652007	528.645691	11.262855	22.972758	0.702151	-4.345587	2.130511
2.000	5.256819	1.677000	527.977670	11.258525	22.967947	0.718693	-4.350174	2.132387
2.010	5.321512	1.670018	527.420567	11.253296	22.976176	0.738742	-4.356329	2.133647
2.020	5.354767	1.637431	527.069450	11.252219	23.000714	0.760709	-4.363887	2.134865
2.030	5.366980	1.589383	527.010070	11.259547	23.042660	0.782373	-4.372338	2.136496
2.040	5.376064	1.536519	527.288190	11.278034	23.100020	0.801403	-4.380910	2.138875
2.050	5.399602	1.487079	527.888260	11.308489	23.167806	0.816056	-4.388771	2.142213
2.060	5.446835	1.445214	528.731506	11.349546	23.239331	0.825751	-4.395299	2.146561
2.070	5.513739	1.411191	529.694536	11.397678	23.308189	0.831167	-4.400308	2.151745
2.080	5.583711	1.383475	530.640767	11.447526	23.370040	0.833789	-4.404117	2.157302
2.090	5.634082	1.361436	531.452696	11.492626	23.423451	0.835155	-4.407439	2.162493
2.100	5.645827	1.346806	532.054434	11.526532	23.469541	0.836253	-4.411116	2.166420
2.110	5.612091	1.342819	532.419087	11.544143	23.510747	0.837359	-4.415835	2.168244
2.120	5.541691	1.351604	532.561683	11.542843	23.549318	0.838292	-4.421895	2.167419
2.130	5.456228	1.371576	532.522926	11.522940	23.586153	0.838830	-4.429134	2.163839
2.140	5.382373	1.396375	532.350664	11.487111	23.620458	0.839015	-4.437011	2.157809
2.150	5.342700	1.415730	532.084858	11.439100	23.650338	0.839229	-4.444843	2.149864
2.160	5.348532	1.417377	531.749643	11.382239	23.674062	0.840103	-4.452107	2.140526
2.170	5.397137	1.389049	531.353852	11.318399	23.691418	0.842359	-4.458689	2.130106
2.180	5.473887	1.320334	530.898627	11.247564	23.704450	0.846655	-4.464967	2.118590
2.190	5.558220	1.204809	530.388254	11.168036	23.717153	0.853457	-4.471659	2.105634
2.200	5.630883	1.042526	529.839669	11.077098	23.734331	0.862904	-4.479531	2.090651
2.210	5.679621	0.841840	529.287091	10.971984	23.760325	0.874692	-4.489119	2.072974
2.220	5.701389	0.619000	528.779508	10.850848	23.798325	0.888031	-4.500614	2.052055
2.230	5.700805	0.394600	528.370534	10.713501	23.850480	0.901721	-4.513969	2.027649
2.240	5.686098	0.187715	528.103290	10.561727	23.918382	0.914348	-4.529110	1.999936
2.250	5.664553	0.010207	527.996441	10.399133	24.003374	0.924533	-4.546124	1.969546
2.260	5.639178	-0.135980	528.038292	10.230685	24.106470	0.931168	-4.565288	1.937489
2.270	5.607602	-0.257214	528.192882	10.062168	24.227970	0.933566	-4.586955	1.905018
2.280	5.563343	-0.363455	528.416315	9.899764	24.367082	0.931485	-4.611342	1.873478
2.290	5.498821	-0.463269	528.676032	9.749666	24.521740	0.925059	-4.638330	1.844166
2.300	5.408809	-0.561151	528.963577	9.617497	24.688645	0.914707	-4.667362	1.818178
2.310	5.292770	-0.657772	529.294636	9.507410	24.863404	0.901090	-4.697460	1.796241
2.320	5.155001	-0.751925	529.696827	9.421025	25.040644	0.885139	-4.727354	1.778569
2.330	5.002529	-0.842337	530.191918	9.356615	25.214200	0.868087	-4.755674	1.764760
2.340	4.841751	-0.928299	530.781100	9.308987	25.377599	0.851456	-4.781180	1.753828
2.350	4.675260	-1.009267	531.439232	9.270348	25.524935	0.836951	-4.802983	1.744385
2.360	4.500285	-1.084302	532.118905	9.232016	25.651911	0.826273	-4.820710	1.734954
2.370	4.309547	-1.152063	532.761256	9.186510	25.756518	0.820877	-4.834533	1.724320
2.380	4.094604	-1.211207	533.309345	9.129438	25.838876	0.821679	-4.845007	1.711847
2.390	3.851060	-1.260598	533.721013	9.060663	25.900150	0.828724	-4.852751	1.697640
2.400	3.584465	-1.299110	533.979001	8.984405	25.941031	0.840867	-4.858062	1.682539
2.410	3.314920	-1.325491	534.095546	8.908154	25.960561	0.855685	-4.860659	1.667895
