Time[s]	Fx[N]	Fy[N]	Fz[N]	Mx[Nm]	My[Nm]	Mz[Nm]	COPx[cm]	COPy[cm]
0.010	4.881235	1.364530	710.611537	-11.729942	18.632457	-0.590639	-2.622031	-1.650683
0.020	4.346566	1.052746	713.371491	-12.185445	19.008680	-0.607320	-2.664626	-1.708149
0.030	3.872452	0.799608	716.156270	-12.599305	19.385495	-0.625802	-2.706881	-1.759295
0.040	3.500050	0.646056	718.985453	-12.941479	19.761584	-0.647253	-2.748537	-1.799964
0.050	3.238357	0.606237	721.865621	-13.200595	20.132791	-0.671564	-2.788994	-1.828678
0.060	3.068750	0.665791	724.785681	-13.385659	20.491413	-0.696689	-2.827238	-1.846844
0.070	2.961924	0.788369	727.713888	-13.522339	20.826080	-0.718323	-2.861850	-1.858194
0.080	2.898208	0.927661	730.595684	-13.645331	21.122464	-0.730331	-2.891129	-1.867699
0.090	2.880666	1.040295	733.350646	-13.789493	21.365031	-0.726167	-2.913345	-1.880341
0.100	2.933832	1.094770	735.869619	-13.982695	21.539738	-0.700958	-2.927113	-1.900159
0.110	3.088187	1.073372	738.017586	-14.242518	21.637154	-0.653484	-2.931794	-1.929835
0.120	3.358148	0.967266	739.648855	-14.577339	21.655025	-0.587138	-2.927744	-1.970846
0.130	3.725559	0.768193	740.635222	-14.990525	21.599148	-0.509316	-2.916300	-2.024009
0.140	4.138768	0.461695	740.898362	-15.485225	21.481799	-0.429320	-2.899426	-2.090061
0.150	4.529592	0.025795	740.432012	-16.067025	21.318022	-0.355532	-2.879133	-2.169953
0.160	4.840556	-0.563556	739.302066	-16.742827	21.121235	-0.292943	-2.856915	-2.264680
0.170	5.048310	-1.321830	737.622157	-17.516269	20.900068	-0.241993	-2.833438	-2.374694
0.180	5.170266	-2.243692	735.513924	-18.381761	20.657851	-0.199188	-2.808628	-2.499172
0.190	5.250387	-3.293846	733.069338	-19.319928	20.394914	-0.159289	-2.782126	-2.635484
0.200	5.332153	-4.405239	730.332481	-20.296635	20.112549	-0.118239	-2.753889	-2.779095
0.210	5.434635	-5.486913	727.309706	-21.266297	19.816641	-0.075507	-2.724650	-2.923967
0.220	5.545830	-6.440446	724.004281	-22.178718	19.519153	-0.034623	-2.696000	-3.063341
0.230	5.636243	-7.180400	720.460596	-22.987445	19.236648	-0.001627	-2.670049	-3.190660
0.240	5.682622	-7.652412	716.798344	-23.657172	18.986517	0.017621	-2.648795	-3.300394
0.250	5.685969	-7.843127	713.220625	-24.168051	18.782689	0.019698	-2.633503	-3.388580
0.260	5.673049	-7.779198	709.990658	-24.516166	18.632852	0.004332	-2.624380	-3.453027
0.270	5.682003	-7.516705	707.385001	-24.710864	18.538351	-0.026484	-2.620688	-3.493269
0.280	5.742125	-7.125619	705.640106	-24.770579	18.496524	-0.070053	-2.621240	-3.510370
0.290	5.859603	-6.674618	704.908921	-24.718722	18.504031	-0.123994	-2.625024	-3.506655
0.300	6.015556	-6.219825	705.237040	-24.580467	18.559357	-0.186057	-2.631648	-3.485419
0.310	6.174638	-5.798815	706.559699	-24.380391	18.663396	-0.253067	-2.641446	-3.450578
0.320	6.297407	-5.429632	708.716389	-24.140470	18.818215	-0.320164	-2.655253	-3.406224
0.330	6.349945	-5.113742	711.478650	-23.878108	19.025010	-0.381323	-2.674010	-3.356124
0.340	6.308325	-4.841260	714.586050	-23.604498	19.282430	-0.431213	-2.698406	-3.303241
0.350	6.159594	-4.596769	717.784555	-23.323968	19.585846	-0.467296	-2.728652	-3.249439
0.360	5.902341	-4.364439	720.861513	-23.034784	19.927463	-0.490801	-2.764395	-3.195452
0.370	5.548393	-4.131703	723.672297	-22.731126	20.296667	-0.505889	-2.804677	-3.141080
0.380	5.124986	-3.891044	726.153837	-22.405372	20.680081	-0.517498	-2.847893	-3.085486
0.390	4.675542	-3.639577	728.319886	-22.049780	21.061269	-0.529070	-2.891761	-3.027486
0.400	4.257084	-3.376560	730.235042	-21.657252	21.420761	-0.541245	-2.933406	-2.965792
0.410	3.932817	-3.100181	731.971442	-21.221727	21.737318	-0.551906	-2.969695	-2.899256
0.420	3.759636	-2.806142	733.561278	-20.739207	21.990938	-0.557244	-2.997832	-2.827195
0.430	3.772773	-2.489946	734.963668	-20.209901	22.167026	-0.553247	-3.016071	-2.749782
0.440	3.972764	-2.152115	736.061057	-19.640705	22.260207	-0.537145	-3.024234	-2.668353
0.450	4.321156	-1.802700	736.688336	-19.046311	22.276037	-0.508592	-3.023807	-2.585396
0.460	4.748963	-1.461128	736.683772	-18.447612	22.229712	-0.470386	-3.017538	-2.504143
0.470	5.176154	-1.150100	735.942340	-17.867523	22.142238	-0.428494	-3.008692	-2.427843
0.480	5.534532	-0.886250	734.452784	-17.325958	22.035585	-0.391122	-3.000272	-2.359030
0.490	5.784050	-0.672912	732.307225	-16.836393	21.928600	-0.366931	-2.994454	-2.299089
0.500	5.915902	-0.499958	729.682401	-16.405700	21.834886	-0.362839	-2.992382	-2.248334
0.510	5.942893	-0.352088	726.801658	-16.037165	21.762855	-0.382164	-2.994332	-2.206539
0.520	5.884568	-0.221858	723.893127	-15.734667	21.717215	-0.423729	-3.000058	-2.173617
0.530	5.756895	-0.120003	721.158726	-15.505202	21.700666	-0.482192	-3.009139	-2.150040
0.540	5.572239	-0.075723	718.760203	-15.357668	21.714916	-0.549423	-3.021163	-2.136689
0.550	5.347189	-0.124013	716.817543	-15.297997	21.760834	-0.616441	-3.035756	-2.134155
0.560	5.109148	-0.284214	715.409340	-15.322969	21.838304	-0.675383	-3.052561	-2.141846
0.570	4.892746	-0.540461	714.568639	-15.416279	21.946489	-0.720998	-3.071292	-2.157425
0.580	4.724753	-0.836276	714.277389	-15.549615	22.084673	-0.751379	-3.091890	-2.176971
0.590	4.606119	-1.089822	714.468843	-15.689012	22.253071	-0.767767	-3.114631	-2.195899
0.600	4.504490	-1.225214	715.043869	-15.803839	22.452727	-0.773605	-3.140049	-2.210191
0.610	4.365872	-1.205427	715.897505	-15.874123	22.684096	-0.773220	-3.168623	-2.217374
0.620	4.142152	-1.050081	716.944148	-15.892648	22.944916	-0.770673	-3.200377	-2.216720
0.630	3.819746	-0.828595	718.129267	-15.860997	23.228553	-0.769250	-3.234592	-2.208655
0.640	3.432095	-0.631393	719.422305	-15.781954	23.523973	-0.771741	-3.269842	-2.193698
0.650	3.047358	-0.531924	720.795401	-15.652410	23.817668	-0.781116	-3.304359	-2.171547
0.660	2.737304	-0.555459	722.200012	-15.460295	24.096903	-0.800952	-3.336597	-2.140722
0.670	2.544381	-0.666514	723.554401	-15.186770	24.352857	-0.834986	-3.365726	-2.098912
0.680	2.464660	-0.778476	724.749550	-14.812296	24.582202	-0.885732	-3.391820	-2.043781
0.690	2.454729	-0.780678	725.671997	-14.323520	24.786423	-0.952747	-3.415651	-1.973828
0.700	2.456964	-0.572536	726.233712	-13.717801	24.969376	-1.031438	-3.438201	-1.888896
0.710	2.428068	-0.092714	726.395813	-13.003520	25.134505	-1.113178	-3.460167	-1.790142
0.720	2.355573	0.666039	726.176647	-12.196638	25.283219	-1.186893	-3.481690	-1.679569
0.730	2.255283	1.659435	725.642966	-11.315950	25.415188	-1.241663	-3.502437	-1.559438
0.740	2.153631	2.807227	724.890365	-10.380156	25.530133	-1.269358	-3.521930	-1.431962
0.750	2.066381	4.012957	724.022564	-9.408627	25.629831	-1.266280	-3.539922	-1.299494
0.760	1.985842	5.179957	723.137773	-8.425083	25.718992	-1.233296	-3.556583	-1.165073
0.770	1.883391	6.221112	722.324836	-7.461020	25.804323	-1.174671	-3.572399	-1.032918
0.780	1.725971	7.065623	721.665182	-6.555277	25.892096	-1.096400	-3.587827	-0.908354
0.790	1.498085	7.667336	721.233395	-5.748316	25.985382	-1.004850	-3.602909	-0.797012
0.800	1.217763	8.015032	721.091604	-5.073226	26.082404	-0.906105	-3.617072	-0.703548
0.810	0.937476	8.138980	721.278246	-4.547733	26.176966	-0.805873	-3.629247	-0.630510
0.820	0.727983	8.106111	721.795561	-4.171123	26.260961	-0.709555	-3.638282	-0.577882
0.830	0.651419	8.001011	722.600817	-3.927421	26.327894	-0.622135	-3.643491	-0.543512
0.840	0.735611	7.898311	723.605498	-3.793157	26.375856	-0.547788	-3.645060	-0.524202
0.850	0.961678	7.837898	724.685404	-3.746023	26.408548	-0.489358	-3.644140	-0.516917
0.860	1.270996	7.814100	725.701489	-3.770567	26.433862	-0.448013	-3.642526	-0.519576
0.870	1.587905	7.784140	726.526271	-3.858786	26.460715	-0.423276	-3.642086	-0.531128
0.880	1.846349	7.692575	727.066975	-4.006084	26.495688	-0.413477	-3.644188	-0.550992
0.890	2.007182	7.501005	727.277876	-4.205336	26.541032	-0.416438	-3.649366	-0.578230
0.900	2.059713	7.209347	727.160308	-4.442687	26.594690	-0.430130	-3.657335	-0.610964
0.910	2.011585	6.858558	726.755153	-4.697727	26.651937	-0.453086	-3.667251	-0.646397
0.920	1.877612	6.513386	726.134360	-4.948398	26.707468	-0.484472	-3.678034	-0.681471
0.930	1.676034	6.233449	725.394935	-5.178425	26.756857	-0.523784	-3.688592	-0.713877
0.940	1.432346	6.046594	724.654002	-5.383742	26.796919	-0.570265	-3.697892	-0.742940
0.950	1.183485	5.937008	724.040668	-5.574854	26.825204	-0.622274	-3.704931	-0.769964
0.960	0.974605	5.852774	723.681155	-5.773867	26.839236	-0.676986	-3.708710	-0.797847
0.970	0.846664	5.728079	723.677519	-6.007045	26.836082	-0.730664	-3.708293	-0.830072
0.980	0.820621	5.509328	724.085026	-6.295382	26.812466	-0.779508	-3.702944	-0.869426
0.990	0.887629	5.174469	724.896087	-6.646614	26.765146	-0.820754	-3.692273	-0.916906
1.000	1.012029	4.739150	726.038085	-7.051947	26.690995	-0.853467	-3.676253	-0.971292
1.010	1.147024	4.248833	727.387998	-7.489195	26.586448	-0.878514	-3.655057	-1.029601
1.020	1.255895	3.760630	728.799712	-7.931155	26.446650	-0.897583	-3.628795	-1.088249
1.030	1.328359	3.322049	730.134095	-8.355338	26.265124	-0.911716	-3.597301	-1.144357
1.040	1.384171	2.955257	731.281031	-8.750328	26.034616	-0.920345	-3.560138	-1.196575
1.050	1.463012	2.653697	732.166434	-9.115761	25.748970	-0.921626	-3.516819	-1.245039
1.060	1.606843	2.392474	732.743506	-9.456258	25.405174	-0.914033	-3.467131	-1.290528
1.070	1.843780	2.147402	732.974068	-9.772711	25.004652	-0.898239	-3.411397	-1.333296
1.080	2.179773	1.913520	732.810438	-10.055372	24.553441	-0.878034	-3.350586	-1.372166
1.090	2.598793	1.714368	732.188680	-10.282153	24.061633	-0.859590	-3.286261	-1.404304
1.100	3.068033	1.597488	731.039423	-10.423083	23.542654	-0.849353	-3.220436	-1.425789
1.110	3.544395	1.617356	729.314721	-10.449416	23.012546	-0.851603	-3.155366	-1.432772
1.120	3.981154	1.811858	727.021734	-10.344126	22.488865	-0.866801	-3.093286	-1.422808
1.130	4.335850	2.181031	724.249637	-10.109902	21.988783	-0.891330	-3.036078	-1.395914
1.140	4.579631	2.676496	721.177146	-9.771393	21.526635	-0.918565	-2.984930	-1.354923
1.150	4.705232	3.207240	718.054267	-9.370331	21.111776	-0.940718	-2.940137	-1.304961
1.160	4.729020	3.662361	715.161013	-8.954826	20.747730	-0.950851	-2.901127	-1.252141
1.170	4.684228	3.945026	712.754934	-8.566632	20.433008	-0.944626	-2.866765	-1.201904
1.180	4.607192	4.006110	711.024599	-8.231127	20.163251	-0.921452	-2.835802	-1.157643
1.190	4.522898	3.863997	710.064651	-7.953798	19.933795	-0.884792	-2.807321	-1.120151
1.200	4.437206	3.601045	709.879534	-7.724423	19.741666	-0.841457	-2.780988	-1.088132
1.210	4.339718	3.336511	710.411309	-7.526913	19.586195	-0.799939	-2.757022	-1.059515
1.220	4.215482	3.185966	711.577406	-7.350343	19.467929	-0.768161	-2.735884	-1.032965
1.230	4.059216	3.223156	713.300762	-7.196210	19.386226	-0.751282	-2.717819	-1.008861
1.240	3.884629	3.458674	715.519263	-7.078846	19.336573	-0.750272	-2.702453	-0.989330
1.250	3.724171	3.841935	718.172151	-7.019222	19.308997	-0.761842	-2.688631	-0.977373
1.260	3.619290	4.283032	721.172613	-7.035485	19.288562	-0.779794	-2.674611	-0.975562
1.270	3.605571	4.684105	724.382150	-7.134837	19.257960	-0.797300	-2.658536	-0.984955
1.280	3.699095	4.967965	727.601710	-7.310326	19.201194	-0.809153	-2.638970	-1.004715
1.290	3.889925	5.094834	730.588365	-7.543563	19.106800	-0.813030	-2.615262	-1.032533
1.300	4.146095	5.064069	733.096231	-7.811658	18.969233	-0.809318	-2.587550	-1.065571
1.310	4.427326	4.903990	734.929239	-8.095031	18.787964	-0.799803	-2.556432	-1.101471
1.320	4.702848	4.656686	735.985767	-8.382753	18.564948	-0.786158	-2.522460	-1.138983
1.330	4.964886	4.364733	736.276045	-8.673417	18.302049	-0.769128	-2.485759	-1.178012
1.340	5.230840	4.063771	735.904275	-8.971745	17.999889	-0.748807	-2.445955	-1.219146
1.350	5.532751	3.780932	735.023944	-9.283189	17.658570	-0.725564	-2.402448	-1.262978
1.360	5.899265	3.536252	733.787079	-9.609598	17.279550	-0.700734	-2.354845	-1.309589
1.370	6.339021	3.343499	732.308496	-9.948090	16.867379	-0.676483	-2.303316	-1.358456
1.380	6.833408	3.208250	730.655523	-10.293211	16.430389	-0.654855	-2.248719	-1.408764
1.390	7.341574	3.123624	728.859967	-10.640476	15.980115	-0.636690	-2.192481	-1.459879
1.400	7.814422	3.066726	726.939812	-10.988744	15.529855	-0.621080	-2.136333	-1.511644
1.410	8.210600	2.999982	724.917203	-11.339755	15.092962	-0.605675	-2.082026	-1.564283
1.420	8.507676	2.880054	722.826097	-11.695133	14.681395	-0.587582	-2.031110	-1.617973
1.430	8.705096	2.672685	720.711855	-12.052958	14.304852	-0.564359	-1.984823	-1.672369
1.440	8.819814	2.367137	718.628743	-12.406408	13.970528	-0.534678	-1.944054	-1.726400
1.450	8.878159	1.982295	716.638311	-12.745652	13.683377	-0.498568	-1.909384	-1.778533
1.460	8.907221	1.560138	714.807199	-13.062087	13.446748	-0.457381	-1.881171	-1.827358
1.470	8.927113	1.148959	713.202283	-13.352720	13.263339	-0.413664	-1.859688	-1.872221
1.480	8.944463	0.784339	711.883548	-13.622501	13.136319	-0.370943	-1.845290	-1.913586
1.490	8.948344	0.477090	710.896695	-13.883417	13.070236	-0.333354	-1.838556	-1.952944
1.500	8.910859	0.213871	710.267079	-14.150476	13.071108	-0.305082	-1.840309	-1.992275
1.510	8.793547	-0.030171	709.996718	-14.435831	13.145325	-0.289671	-1.851463	-2.033225
1.520	8.558189	-0.273288	710.067624	-14.743147	13.297510	-0.289352	-1.872710	-2.076302
1.530	8.178443	-0.512630	710.453971	-15.064369	13.527985	-0.304629	-1.904132	-2.120386
1.540	7.648665	-0.720424	711.140538	-15.380371	13.830767	-0.334277	-1.944871	-2.162775
1.550	6.987787	-0.852730	712.138749	-15.665551	14.192822	-0.375761	-1.992985	-2.199789
1.560	6.238044	-0.866987	713.490189	-15.894958	14.594888	-0.425832	-2.045563	-2.227775
1.570	5.459454	-0.740950	715.252366	-16.051660	15.013695	-0.480969	-2.099077	-2.244195
1.580	4.721144	-0.485257	717.469870	-16.132070	15.424990	-0.537482	-2.149915	-2.248467
1.590	4.090431	-0.144584	720.141295	-16.147665	15.806659	-0.591395	-2.194939	-2.242291
1.600	3.620928	0.213265	723.195124	-16.122703	16.141219	-0.638420	-2.231931	-2.229371
1.610	3.342191	0.516564	726.484713	-16.088629	16.417183	-0.674288	-2.259811	-2.214586
1.620	3.254452	0.710482	729.804561	-16.076706	16.629155	-0.695497	-2.278576	-2.202878
1.630	3.331144	0.772286	732.921184	-16.110765	16.776927	-0.700257	-2.289049	-2.198158
1.640	3.528521	0.715695	735.607712	-16.202046	16.864051	-0.689204	-2.292533	-2.202539
1.650	3.798203	0.583088	737.673106	-16.347714	16.896352	-0.665538	-2.290493	-2.216119
1.660	4.097478	0.428661	738.981336	-16.533601	16.880696	-0.634419	-2.284320	-2.237350
1.670	4.394205	0.298786	739.459307	-16.740118	16.824192	-0.601775	-2.275202	-2.263832
1.680	4.666401	0.216535	739.094535	-16.948891	16.733924	-0.572883	-2.264111	-2.293197
1.690	4.898919	0.175555	737.926218	-17.147503	16.617079	-0.551192	-2.251862	-2.323742
1.700	5.079937	0.145309	736.035574	-17.330864	16.481172	-0.537823	-2.239181	-2.354623
1.710	5.198751	0.085843	733.540843	-17.499575	16.334075	-0.531901	-2.226744	-2.385631
1.720	5.245084	-0.033438	730.598566	-17.657032	16.183675	-0.531444	-2.215125	-2.416790
1.730	5.210077	-0.218834	727.407903	-17.807231	16.037048	-0.534294	-2.204684	-2.448039
1.740	5.089730	-0.448218	724.210661	-17.954193	15.899184	-0.538592	-2.195381	-2.479139
1.750	4.891149	-0.680166	721.277624	-18.102518	15.771586	-0.542640	-2.186618	-2.509785
1.760	4.639391	-0.872382	718.874702	-18.257826	15.651547	-0.544426	-2.177229	-2.539779
1.770	4.379717	-1.000474	717.212721	-18.426042	15.532865	-0.541307	-2.165726	-2.569118
1.780	4.170093	-1.067857	716.398009	-18.611505	15.408192	-0.530280	-2.150787	-2.597928
1.790	4.063374	-1.102479	716.406587	-18.814857	15.272190	-0.508884	-2.131777	-2.626282
1.800	4.085597	-1.143369	717.096037	-19.032078	15.124103	-0.476335	-2.109076	-2.654049
1.810	4.221448	-1.224888	718.250759	-19.255441	14.968561	-0.434304	-2.084030	-2.680880
1.820	4.416064	-1.366374	719.640882	-19.476145	14.814196	-0.386885	-2.058554	-2.706370
1.830	4.594363	-1.570426	721.071958	-19.687452	14.670563	-0.339672	-2.034549	-2.730303
1.840	4.689618	-1.827670	722.410990	-19.886770	14.544423	-0.298254	-2.013317	-2.752833
1.850	4.668266	-2.122878	723.586895	-20.075502	14.436772	-0.266732	-1.995168	-2.774442
1.860	4.540387	-2.438198	724.573564	-20.256597	14.341787	-0.246810	-1.979342	-2.795658
1.870	4.352788	-2.752687	725.368272	-20.430949	14.248120	-0.237738	-1.964260	-2.816631
1.880	4.169584	-3.040634	725.976649	-20.594342	14.141962	-0.236956	-1.947991	-2.836777
1.890	4.050017	-3.271974	726.408658	-20.736287	14.010592	-0.240968	-1.928748	-2.854631
1.900	4.033040	-3.416519	726.681903	-20.841368	13.845096	-0.246067	-1.905248	-2.868018
1.910	4.133309	-3.451129	726.824089	-20.892888	13.641489	-0.248822	-1.876863	-2.874545
1.920	4.346547	-3.367168	726.868355	-20.877798	13.400314	-0.246458	-1.843568	-2.872294
1.930	4.657976	-3.175163	726.841929	-20.791117	13.125449	-0.237220	-1.805819	-2.860473
1.940	5.048060	-2.904382	726.754769	-20.637887	12.822931	-0.220709	-1.764410	-2.839732
1.950	5.493919	-2.596473	726.595710	-20.431387	12.500172	-0.198071	-1.720375	-2.811933
1.960	5.969148	-2.294031	726.338757	-20.187870	12.165377	-0.171964	-1.674890	-2.779401
1.970	6.445984	-2.026848	725.955923	-19.919740	11.826870	-0.146239	-1.629144	-2.743932
1.980	6.901124	-1.800432	725.430084	-19.630030	11.492253	-0.125316	-1.584199	-2.705985
1.990	7.322514	-1.591895	724.762614	-19.310790	11.167797	-0.113257	-1.540890	-2.664430
2.000	7.712318	-1.356422	723.974014	-18.946400	10.858539	-0.112743	-1.499852	-2.617000
2.010	8.082800	-1.043321	723.098862	-18.520698	10.569150	-0.124291	-1.461647	-2.561295
2.020	8.446041	-0.616254	722.177897	-18.025129	10.304945	-0.146108	-1.426926	-2.495940
2.030	8.802701	-0.070164	721.249855	-17.464695	10.072274	-0.174655	-1.396503	-2.421449
2.040	9.136352	0.561401	720.344996	-16.859440	9.878002	-0.205653	-1.371288	-2.340467
2.050	9.416963	1.211399	719.481781	-16.240899	9.728502	-0.235079	-1.352154	-2.257305
2.060	9.611638	1.795597	718.667405	-15.644717	9.628808	-0.259845	-1.339814	-2.176906
2.070	9.696486	2.235270	717.901797	-15.102008	9.582358	-0.278203	-1.334773	-2.103631
2.080	9.663230	2.479067	717.184645	-14.632734	9.591291	-0.290076	-1.337353	-2.040302
2.090	9.517781	2.516268	716.525661	-14.243774	9.656906	-0.297293	-1.347740	-1.987894
2.100	9.273195	2.376432	715.956935	-13.932376	9.779737	-0.303462	-1.365967	-1.945980
2.110	8.943012	2.115914	715.542168	-13.692975	9.958865	-0.313143	-1.391793	-1.913650
2.120	8.540459	1.797566	715.375229	-13.523595	10.190617	-0.330439	-1.424514	-1.890420
2.130	8.084271	1.472657	715.563741	-13.428302	10.467393	-0.357541	-1.462818	-1.876605
2.140	7.605841	1.172309	716.200612	-13.414353	10.777629	-0.393985	-1.504834	-1.872988
2.150	7.149852	0.910328	717.332585	-13.485532	11.107364	-0.437046	-1.548426	-1.879955
2.160	6.764097	0.693449	718.936861	-13.635175	11.442936	-0.483118	-1.591647	-1.896575
2.170	6.481868	0.531537	720.913946	-13.842648	11.773665	-0.529335	-1.633158	-1.920153
2.180	6.306406	0.441096	723.099029	-14.075487	12.093398	-0.574534	-1.672440	-1.946550
2.190	6.206690	0.439704	725.288440	-14.296722	12.400481	-0.619069	-1.709731	-1.971177
2.200	6.127761	0.534652	727.274506	-14.474327	12.696344	-0.663722	-1.745743	-1.990215
2.210	6.011086	0.713067	728.880816	-14.588568	12.983312	-0.708466	-1.781267	-2.001503
2.220	5.816054	0.940818	729.989667	-14.634094	13.262424	-0.751850	-1.816796	-2.004699
2.230	5.534154	1.172991	730.555206	-14.616153	13.532038	-0.791292	-1.852295	-2.000691
2.240	5.191328	1.371932	730.599994	-14.543189	13.787800	-0.823995	-1.887189	-1.990582
2.250	4.838550	1.523784	730.197593	-14.419809	14.023999	-0.847938	-1.920576	-1.974782
2.260	4.534098	1.644392	729.447225	-14.243845	14.235856	-0.862481	-1.951595	-1.952690
2.270	4.322998	1.770532	728.447868	-14.008914	14.421829	-0.868408	-1.979802	-1.923118
2.280	4.220340	1.939992	727.278683	-13.710741	14.585012	-0.867475	-2.005423	-1.885211
2.290	4.205041	2.170038	725.990748	-13.353350	14.732964	-0.861705	-2.029360	-1.839328
2.300	4.227795	2.445250	724.611928	-12.951329	14.875927	-0.852740	-2.052951	-1.787347
2.310	4.230915	2.721966	723.161960	-12.526525	15.024065	-0.841557	-2.077552	-1.732188
