Time[s]	Fx[N]	Fy[N]	Fz[N]	Mx[Nm]	My[Nm]	Mz[Nm]	COPx[cm]	COPy[cm]
0.010	9.624408	1.253817	711.348316	1.760777	-3.441955	-0.210847	0.483864	0.247527
0.020	9.657062	1.102717	711.397389	1.648638	-3.327748	-0.198320	0.467776	0.231746
0.030	9.688055	0.960608	711.438694	1.530684	-3.219596	-0.188547	0.452547	0.215153
0.040	9.714964	0.833832	711.471451	1.403029	-3.121313	-0.183394	0.438712	0.197201
0.050	9.733824	0.724654	711.503292	1.264681	-3.033405	-0.183266	0.426337	0.177748
0.060	9.740010	0.631576	711.547861	1.117948	-2.953489	-0.187111	0.415079	0.157115
0.070	9.729712	0.551012	711.617978	0.968003	-2.877822	-0.192887	0.404405	0.136028
0.080	9.701214	0.479343	711.717687	0.821802	-2.803032	-0.198267	0.393840	0.115467
0.090	9.655569	0.414390	711.836866	0.686639	-2.727323	-0.201334	0.383139	0.096460
0.100	9.596517	0.355906	711.950651	0.568649	-2.650805	-0.201097	0.372330	0.079872
0.110	9.529803	0.305375	712.024764	0.471474	-2.575103	-0.197692	0.361659	0.066216
0.120	9.462193	0.265525	712.026159	0.395488	-2.502632	-0.192248	0.351480	0.055544
0.130	9.400533	0.239657	711.935367	0.337937	-2.435881	-0.186401	0.342149	0.047467
0.140	9.350893	0.230694	711.754865	0.294116	-2.376818	-0.181576	0.333938	0.041323
0.150	9.317685	0.240065	711.509795	0.259109	-2.326371	-0.178316	0.326963	0.036417
0.160	9.302646	0.266761	711.241727	0.229370	-2.283990	-0.175990	0.321127	0.032249
0.170	9.303819	0.307041	710.998628	0.203539	-2.247478	-0.173084	0.316102	0.028627
0.180	9.314963	0.354953	710.823606	0.182268	-2.213380	-0.167948	0.311382	0.025642
0.190	9.326173	0.403609	710.744037	0.167289	-2.177918	-0.159620	0.306428	0.023537
0.200	9.326268	0.446801	710.763566	0.160213	-2.138094	-0.148325	0.300817	0.022541
0.210	9.306674	0.480386	710.860923	0.161506	-2.092438	-0.135463	0.294353	0.022720
0.220	9.265291	0.502763	710.998341	0.169963	-2.041152	-0.123122	0.287083	0.023905
0.230	9.208362	0.514259	711.137481	0.182772	-1.985814	-0.113338	0.279245	0.025701
0.240	9.148932	0.515978	711.255266	0.196095	-1.928961	-0.107414	0.271205	0.027570
0.250	9.102193	0.509022	711.350589	0.205901	-1.873778	-0.105554	0.263411	0.028945
0.260	9.079661	0.494443	711.437344	0.208825	-1.823900	-0.106991	0.256368	0.029353
0.270	9.084893	0.473525	711.527629	0.202939	-1.783233	-0.110539	0.250620	0.028522
0.280	9.112675	0.447830	711.615700	0.188302	-1.755777	-0.115254	0.246731	0.026461
0.290	9.151903	0.419032	711.673441	0.166997	-1.745344	-0.120826	0.245245	0.023465
0.300	9.190647	0.388924	711.661396	0.142462	-1.755085	-0.127489	0.246618	0.020018
0.310	9.221137	0.359754	711.550106	0.118320	-1.786738	-0.135551	0.251105	0.016628
0.320	9.242625	0.334596	711.340152	0.097329	-1.839845	-0.144863	0.258645	0.013683
0.330	9.261126	0.317274	711.069393	0.080964	-1.911365	-0.154581	0.268802	0.011386
0.340	9.286287	0.311623	710.802839	0.069726	-1.996133	-0.163363	0.280828	0.009810
0.350	9.326888	0.320209	710.610456	0.063823	-2.088153	-0.169871	0.293853	0.008981
0.360	9.386958	0.343089	710.544179	0.063691	-2.182224	-0.173317	0.307120	0.008964
0.370	9.464293	0.377334	710.623918	0.069987	-2.275195	-0.173809	0.320169	0.009849
0.380	9.551966	0.417666	710.835853	0.083059	-2.366380	-0.172351	0.332901	0.011685
0.390	9.641786	0.457841	711.140268	0.102340	-2.457135	-0.170524	0.345520	0.014391
0.400	9.727478	0.492000	711.483737	0.126131	-2.549933	-0.169945	0.358397	0.017728
0.410	9.805726	0.515511	711.811555	0.152049	-2.647381	-0.171689	0.371922	0.021361
0.420	9.875113	0.525366	712.078714	0.177973	-2.751455	-0.175877	0.386398	0.024993
0.430	9.934660	0.520549	712.258598	0.203025	-2.863105	-0.181562	0.401976	0.028504
0.440	9.983784	0.502620	712.347274	0.228025	-2.982213	-0.186921	0.418646	0.032010
0.450	10.023930	0.476321	712.360459	0.255177	-3.107900	-0.189722	0.436282	0.035821
0.460	10.060410	0.449528	712.323185	0.287217	-3.239028	-0.188008	0.454713	0.040321
0.470	10.102605	0.431906	712.257304	0.326438	-3.374685	-0.180845	0.473801	0.045831
0.480	10.161754	0.432377	712.173802	0.373929	-3.514356	-0.168820	0.493469	0.052505
0.490	10.247175	0.456355	712.072944	0.429193	-3.657608	-0.153998	0.513656	0.060274
0.500	10.362590	0.504024	711.949649	0.490195	-3.803308	-0.139296	0.534210	0.068852
0.510	10.504108	0.570359	711.799369	0.553848	-3.948702	-0.127595	0.554749	0.077810
0.520	10.660548	0.646701	711.621914	0.616752	-4.088897	-0.120998	0.574588	0.086668
0.530	10.815938	0.723177	711.423558	0.675985	-4.217340	-0.120438	0.592803	0.095019
0.540	10.953415	0.791124	711.218393	0.729745	-4.327406	-0.125606	0.608450	0.102605
0.550	11.059522	0.844909	711.028837	0.777773	-4.414561	-0.135088	0.620870	0.109387
0.560	11.127857	0.882814	710.884316	0.821492	-4.478081	-0.146683	0.629931	0.115559
0.570	11.161139	0.906938	710.817408	0.863727	-4.521435	-0.157904	0.636090	0.121512
0.580	11.170993	0.922265	710.857605	0.907902	-4.551092	-0.166568	0.640226	0.127719
0.590	11.175090	0.935205	711.023877	0.956881	-4.574257	-0.171318	0.643334	0.134578
0.600	11.191936	0.952089	711.317746	1.011911	-4.596462	-0.171944	0.646190	0.142259
0.610	11.234657	0.978011	711.718446	1.072302	-4.619923	-0.169399	0.649122	0.150664
0.620	11.306091	1.016014	712.181614	1.136040	-4.643228	-0.165465	0.651972	0.159516
0.630	11.397529	1.066436	712.643179	1.200947	-4.662420	-0.162124	0.654243	0.168520
0.640	11.492007	1.126597	713.029375	1.265593	-4.672970	-0.160853	0.655368	0.177495
0.650	11.570956	1.191281	713.271521	1.329410	-4.671832	-0.162127	0.654987	0.186382
0.660	11.621505	1.254151	713.321609	1.392108	-4.658836	-0.165354	0.653119	0.195159
0.670	11.641554	1.309579	713.163200	1.452923	-4.636963	-0.169267	0.650197	0.203729
0.680	11.640629	1.354181	712.813330	1.510196	-4.611453	-0.172552	0.646937	0.211864
0.690	11.636069	1.387698	712.315424	1.561493	-4.587959	-0.174404	0.644091	0.219214
0.700	11.645816	1.413056	711.728171	1.604168	-4.570293	-0.174718	0.642140	0.225391
0.710	11.680370	1.435479	711.116633	1.636219	-4.558518	-0.173868	0.641037	0.230092
0.720	11.736840	1.460726	710.547902	1.657164	-4.548172	-0.172281	0.640094	0.233223
0.730	11.797424	1.492851	710.088445	1.668619	-4.531023	-0.170131	0.638093	0.234988
0.740	11.833550	1.532203	709.798734	1.674256	-4.497179	-0.167333	0.633585	0.235878
0.750	11.815002	1.574583	709.723655	1.679016	-4.437866	-0.163770	0.625295	0.236573
0.760	11.721091	1.612363	709.881320	1.687737	-4.347949	-0.159531	0.612490	0.237749
0.770	11.549445	1.637596	710.255037	1.703595	-4.227418	-0.154993	0.595197	0.239857
0.780	11.318764	1.645832	710.792523	1.726909	-4.081379	-0.150714	0.574201	0.242955
0.790	11.064453	1.638490	711.413428	1.754850	-3.918681	-0.147222	0.550830	0.246671
0.800	10.828956	1.622335	712.022966	1.782269	-3.749732	-0.144827	0.526631	0.250311
0.810	10.650210	1.606315	712.527993	1.803356	-3.584193	-0.143554	0.503025	0.253093
0.820	10.551603	1.597568	712.852531	1.813413	-3.429085	-0.143189	0.481037	0.254388
0.830	10.535794	1.598688	712.950936	1.810132	-3.287505	-0.143352	0.461112	0.253893
0.840	10.583699	1.607234	712.817177	1.794053	-3.158016	-0.143592	0.443033	0.251685
0.850	10.659168	1.617235	712.487754	1.768113	-3.034792	-0.143505	0.425943	0.248161
0.860	10.718686	1.621713	712.035143	1.736424	-2.908694	-0.142807	0.408504	0.243868
0.870	10.723554	1.615240	711.550626	1.702652	-2.769226	-0.141270	0.389182	0.239288
0.880	10.650311	1.595544	711.120443	1.668611	-2.606901	-0.138558	0.366591	0.234645
0.890	10.495539	1.563518	710.804112	1.633620	-2.415246	-0.134108	0.339791	0.229827
0.900	10.273763	1.521736	710.623736	1.594847	-2.191914	-0.127209	0.308449	0.224429
0.910	10.010373	1.472550	710.567169	1.548508	-1.938856	-0.117298	0.272860	0.217926
0.920	9.733253	1.417060	710.600626	1.491420	-1.661837	-0.104378	0.233864	0.209882
0.930	9.466428	1.355418	710.683100	1.422378	-1.369620	-0.089313	0.192719	0.200142
0.940	9.227237	1.287912	710.777148	1.342891	-1.072978	-0.073796	0.150958	0.188933
0.950	9.026521	1.215796	710.854872	1.256976	-0.783540	-0.059865	0.110225	0.176826
0.960	8.870025	1.141332	710.900575	1.170012	-0.512408	-0.049231	0.072079	0.164582
0.970	8.759325	1.067256	710.911307	1.087076	-0.268594	-0.042778	0.037782	0.152913
0.980	8.691617	0.996209	710.895304	1.011541	-0.057555	-0.040482	0.008096	0.142291
0.990	8.658857	0.930406	710.868038	0.944578	0.119771	-0.041641	-0.016849	0.132877
1.000	8.647366	0.871551	710.846482	0.885572	0.266924	-0.045185	-0.037550	0.124580
1.010	8.639048	0.820945	710.843246	0.833026	0.390667	-0.049924	-0.054958	0.117188
1.020	8.614882	0.779725	710.862853	0.785440	0.498728	-0.054722	-0.070158	0.110491
1.030	8.560287	0.748900	710.902066	0.741899	0.597328	-0.058664	-0.084024	0.104360
1.040	8.470697	0.728869	710.954461	0.702298	0.689408	-0.061204	-0.096969	0.098782
1.050	8.355004	0.718500	711.016608	0.667215	0.774139	-0.062316	-0.108878	0.093840
1.060	8.235030	0.714510	711.091595	0.637527	0.847738	-0.062572	-0.119216	0.089655
1.070	8.140417	0.711966	711.186812	0.613943	0.905231	-0.063062	-0.127285	0.086327
1.080	8.099771	0.706031	711.306903	0.596648	0.942547	-0.065069	-0.132509	0.083881
1.090	8.130309	0.693944	711.446679	0.585215	0.958259	-0.069529	-0.134692	0.082257
1.100	8.229560	0.675949	711.589562	0.578827	0.954376	-0.076509	-0.134119	0.081343
1.110	8.373094	0.654746	711.713420	0.576680	0.935903	-0.084993	-0.131500	0.081027
1.120	8.520545	0.634163	711.800077	0.578336	0.909246	-0.093165	-0.127739	0.081250
1.130	8.628691	0.618037	711.841995	0.583743	0.879975	-0.099124	-0.123619	0.082005
1.140	8.666777	0.609597	711.841779	0.592910	0.850690	-0.101712	-0.119505	0.083292
1.150	8.627968	0.611005	711.805244	0.605411	0.819803	-0.101070	-0.115172	0.085053
1.160	8.532359	0.622655	711.733295	0.620064	0.781878	-0.098596	-0.109855	0.087120
1.170	8.420427	0.642489	711.619040	0.635030	0.729636	-0.096305	-0.102532	0.089237
1.180	8.339437	0.666015	711.453317	0.648385	0.657044	-0.095941	-0.092352	0.091135
1.190	8.327895	0.687506	711.235971	0.658979	0.562196	-0.098282	-0.079045	0.092653
1.200	8.403772	0.702022	710.985813	0.667262	0.448609	-0.102963	-0.063097	0.093850
1.210	8.560647	0.707258	710.742360	0.675641	0.324197	-0.108820	-0.045614	0.095061
1.220	8.772774	0.704280	710.556972	0.688001	0.198384	-0.114515	-0.027919	0.096826
1.230	9.006415	0.696794	710.476734	0.708355	0.078729	-0.119072	-0.011081	0.099701
1.240	9.232250	0.689374	710.528111	0.739098	-0.031484	-0.122067	0.004431	0.104021
1.250	9.433550	0.685387	710.707632	0.779768	-0.133908	-0.123494	0.018841	0.109717
1.260	9.607341	0.685465	710.983606	0.827034	-0.233995	-0.123550	0.032911	0.116322
1.270	9.759436	0.687227	711.307699	0.876003	-0.338573	-0.122551	0.047599	0.123154
1.280	9.896883	0.686559	711.630869	0.922220	-0.452925	-0.121039	0.063646	0.129592
1.290	10.021928	0.679937	711.916696	0.963388	-0.578395	-0.119883	0.081245	0.135323
1.300	10.130235	0.666712	712.147024	0.999995	-0.711521	-0.120159	0.099912	0.140420
1.310	10.213647	0.650157	712.318720	1.034658	-0.845204	-0.122765	0.118655	0.145252
1.320	10.265288	0.636654	712.434299	1.070737	-0.971551	-0.127961	0.136371	0.150293
1.330	10.283888	0.633287	712.491744	1.111123	-1.085213	-0.135101	0.152312	0.155949
1.340	10.275302	0.644969	712.479572	1.157795	-1.185708	-0.142772	0.166420	0.162502
1.350	10.251421	0.672517	712.380814	1.212080	-1.277669	-0.149330	0.179352	0.170145
1.360	10.227960	0.712601	712.184506	1.274985	-1.368934	-0.153592	0.192216	0.179025
1.370	10.222231	0.759463	711.898756	1.347086	-1.467364	-0.155335	0.206120	0.189224
1.380	10.250683	0.807578	711.558161	1.428071	-1.577861	-0.155311	0.221747	0.200696
1.390	10.325601	0.854139	711.220705	1.516468	-1.700749	-0.154750	0.239131	0.213220
1.400	10.451327	0.900364	710.954203	1.609955	-1.831914	-0.154647	0.257670	0.226450
1.410	10.621706	0.950946	710.817719	1.706099	-1.964350	-0.155253	0.276351	0.240019
1.420	10.820431	1.011668	710.845857	1.803069	-2.090370	-0.156109	0.294068	0.253651
1.430	11.024640	1.086147	711.041392	1.900004	-2.203716	-0.156540	0.309928	0.267214
1.440	11.210568	1.173285	711.376518	1.997046	-2.300985	-0.156260	0.323455	0.280730
1.450	11.359372	1.266759	711.799373	2.095131	-2.382125	-0.155676	0.334662	0.294343
1.460	11.461241	1.357081	712.243007	2.195635	-2.450058	-0.155739	0.343992	0.308270
1.470	11.516716	1.435557	712.636231	2.299858	-2.509681	-0.157467	0.352169	0.322725
1.480	11.535150	1.498356	712.916262	2.408398	-2.566568	-0.161434	0.360010	0.337823
1.490	11.531197	1.548422	713.041231	2.520565	-2.625665	-0.167462	0.368235	0.353495
1.500	11.520502	1.593993	712.998890	2.634064	-2.690286	-0.174628	0.377320	0.369435
1.510	11.515593	1.644435	712.808305	2.745139	-2.761650	-0.181534	0.387432	0.385116
1.520	11.522750	1.705643	712.513599	2.849176	-2.838960	-0.186697	0.398443	0.399877
1.530	11.540702	1.777283	712.171733	2.941669	-2.919723	-0.188963	0.409975	0.413056
1.540	11.561874	1.852937	711.838635	3.019265	-3.000057	-0.187833	0.421452	0.424150
1.550	11.575944	1.922701	711.558178	3.080531	-3.075039	-0.183628	0.432156	0.432927
1.560	11.574176	1.976810	711.356709	3.126092	-3.139341	-0.177412	0.441317	0.439455
1.570	11.552489	2.008801	711.243229	3.158039	-3.188197	-0.170649	0.448257	0.444017
1.580	11.511979	2.017236	711.213384	3.178814	-3.218324	-0.164695	0.452512	0.446956
1.590	11.457157	2.005757	711.254770	3.190111	-3.228341	-0.160303	0.453894	0.448519
1.600	11.393271	1.981695	711.351663	3.192323	-3.218528	-0.157380	0.452452	0.448769
1.610	11.324172	1.953678	711.488280	3.184718	-3.190182	-0.155134	0.448382	0.447613
1.620	11.251605	1.928804	711.650164	3.166120	-3.144995	-0.152493	0.441930	0.444898
1.630	11.176080	1.910251	711.823557	3.135706	-3.084828	-0.148570	0.433370	0.440517
1.640	11.098837	1.896419	711.993529	3.093549	-3.011966	-0.142989	0.423033	0.434491
1.650	11.023814	1.882205	712.142845	3.040825	-2.929533	-0.135980	0.411369	0.426996
1.660	10.958210	1.861807	712.253023	2.979727	-2.841561	-0.128219	0.398954	0.418352
1.670	10.910702	1.831460	712.306747	2.913146	-2.752388	-0.120492	0.386405	0.408974
1.680	10.887627	1.790569	712.289360	2.844090	-2.665563	-0.113319	0.374225	0.399289
1.690	10.888825	1.740769	712.188649	2.774871	-2.582736	-0.106788	0.362648	0.389626
1.700	10.905324	1.683880	711.995078	2.706382	-2.503046	-0.100668	0.351554	0.380112
1.710	10.920219	1.620549	711.705527	2.637912	-2.423190	-0.094707	0.340477	0.370647
1.720	10.912544	1.550781	711.330478	2.567777	-2.338187	-0.088883	0.328706	0.360982
1.730	10.862607	1.475895	710.900156	2.494511	-2.242673	-0.083415	0.315470	0.350895
1.740	10.756937	1.400029	710.464355	2.418014	-2.132510	-0.078573	0.300157	0.340343
1.750	10.591555	1.329618	710.084692	2.340020	-2.006304	-0.074455	0.282544	0.329541
1.760	10.373272	1.270933	709.822288	2.263630	-1.866440	-0.070892	0.262945	0.318901
1.770	10.119330	1.227382	709.724739	2.192140	-1.719227	-0.067553	0.242238	0.308872
1.780	9.855601	1.198391	709.814997	2.127832	-1.573962	-0.064182	0.221743	0.299773
1.790	9.613146	1.180293	710.084419	2.071392	-1.441078	-0.060850	0.202945	0.291711
1.800	9.422926	1.168241	710.492456	2.022218	-1.329931	-0.058027	0.187184	0.284622
1.810	9.309454	1.157923	710.974000	1.979296	-1.246969	-0.056413	0.175389	0.278392
1.820	9.285301	1.146675	711.452476	1.941994	-1.194795	-0.056621	0.167937	0.272962
1.830	9.348557	1.134136	711.855083	1.910286	-1.172172	-0.058895	0.164664	0.268353
1.840	9.484006	1.122356	712.127224	1.884378	-1.174688	-0.063016	0.164955	0.264613
1.850	9.667177	1.114890	712.244063	1.864144	-1.195704	-0.068424	0.167878	0.261728
1.860	9.869592	1.114759	712.216290	1.848809	-1.227386	-0.074466	0.172333	0.259585
1.870	10.063687	1.122151	712.086511	1.837079	-1.261735	-0.080596	0.177188	0.257985
1.880	10.226492	1.133319	711.915233	1.827617	-1.291523	-0.086408	0.181415	0.256718
1.890	10.341836	1.141622	711.760948	1.819591	-1.310952	-0.091504	0.184184	0.255646
1.900	10.401269	1.140238	711.662741	1.812948	-1.315973	-0.095370	0.184915	0.254748
1.910	10.404209	1.125035	711.632390	1.808284	-1.304399	-0.097426	0.183297	0.254104
1.920	10.357694	1.096203	711.656980	1.806409	-1.276123	-0.097276	0.179317	0.253831
1.930	10.275724	1.058163	711.707567	1.807919	-1.233477	-0.095015	0.173312	0.254026
1.940	10.177700	1.018196	711.748454	1.813000	-1.181416	-0.091359	0.165988	0.254725
1.950	10.085555	0.984543	711.745067	1.821562	-1.127018	-0.087453	0.158346	0.255929
1.960	10.019802	0.964603	711.671695	1.833592	-1.078018	-0.084440	0.151477	0.257646
1.970	9.995461	0.963512	711.519696	1.849382	-1.040634	-0.083030	0.146255	0.259920
1.980	10.018865	0.983184	711.303527	1.869384	-1.017430	-0.083301	0.143037	0.262811
1.990	10.085892	1.021856	711.060188	1.893761	-1.006105	-0.084806	0.141494	0.266329
2.000	10.181775	1.074211	710.839889	1.921981	-0.999826	-0.086879	0.140654	0.270382
2.010	10.282852	1.132179	710.690226	1.952758	-0.989181	-0.088994	0.139186	0.274769
2.020	10.360888	1.186444	710.640245	1.984345	-0.965178	-0.090991	0.135818	0.279233
2.030	10.390137	1.228465	710.691492	2.014990	-0.922251	-0.093025	0.129768	0.283525
2.040	10.355694	1.252480	710.819799	2.043300	-0.860081	-0.095285	0.120998	0.287457
2.050	10.260039	1.256844	710.986153	2.068434	-0.783534	-0.097732	0.110204	0.290925
2.060	10.124201	1.244195	711.151046	2.090078	-0.700758	-0.100076	0.098539	0.293901
2.070	9.981689	1.220249	711.285815	2.108234	-0.620232	-0.101989	0.087199	0.296398
2.080	9.866741	1.191591	711.376757	2.122868	-0.547971	-0.103344	0.077030	0.298417
2.090	9.801749	1.163326	711.422228	2.133535	-0.485992	-0.104322	0.068313	0.299897
2.100	9.789703	1.137594	711.426988	2.139121	-0.432576	-0.105340	0.060804	0.300680
2.110	9.815163	1.113537	711.398670	2.137890	-0.384028	-0.106840	0.053982	0.300519
2.120	9.852930	1.088603	711.347955	2.127912	-0.336983	-0.109010	0.047373	0.299138
2.130	9.879790	1.060513	711.289914	2.107836	-0.290154	-0.111521	0.040793	0.296340
2.140	9.883481	1.028944	711.242621	2.077776	-0.244743	-0.113477	0.034411	0.292133
2.150	9.864961	0.996135	711.221839	2.039834	-0.203406	-0.113688	0.028600	0.286807
2.160	9.833836	0.966077	711.234910	1.997811	-0.168381	-0.111224	0.023674	0.280893
2.170	9.800425	0.942622	711.278630	1.955979	-0.139872	-0.105975	0.019665	0.274995
2.180	9.769207	0.927306	711.342771	1.917339	-0.115631	-0.098913	0.016255	0.269538
2.190	9.736929	0.917821	711.416153	1.882190	-0.091921	-0.091867	0.012921	0.264569
2.200	9.695674	0.907922	711.490327	1.847834	-0.065231	-0.086882	0.009168	0.259713
2.210	9.638568	0.889083	711.558696	1.809664	-0.033831	-0.085440	0.004755	0.254324
2.220	9.564920	0.853471	711.613062	1.763206	0.001453	-0.087913	-0.000204	0.247776
2.230	9.482396	0.797021	711.641190	1.706152	0.037368	-0.093523	-0.005251	0.239749
2.240	9.405361	0.721263	711.627453	1.639462	0.069058	-0.100801	-0.009704	0.230382
2.250	9.350147	0.633081	711.556336	1.567101	0.091272	-0.108259	-0.012827	0.220236
2.260	9.329298	0.542456	711.417772	1.494748	0.099708	-0.114925	-0.014015	0.210108
2.270	9.347306	0.459126	711.213292	1.428295	0.092247	-0.120461	-0.012970	0.200825
2.280	9.399444	0.389643	710.961531	1.372876	0.069780	-0.124879	-0.009815	0.193101
2.290	9.473585	0.336120	710.700171	1.332559	0.036301	-0.128092	-0.005108	0.187499
2.300	9.553541	0.297037	710.480930	1.310281	-0.002022	-0.129714	0.000285	0.184422
2.310	9.622417	0.269412	710.356423	1.307629	-0.038629	-0.129296	0.005438	0.184081
2.320	9.665366	0.251106	710.362164	1.324377	-0.068563	-0.126876	0.009652	0.186437
2.330	9.672014	0.242171	710.501031	1.358091	-0.089840	-0.123432	0.012645	0.191146
2.340	9.638897	0.244662	710.738321	1.404200	-0.103750	-0.120878	0.014598	0.197569
2.350	9.571586	0.261033	711.011247	1.456767	-0.114198	-0.121507	0.016061	0.204887
2.360	9.485371	0.291953	711.249439	1.509839	-0.126541	-0.127114	0.017791	0.212280
2.370	9.403277	0.334794	711.397705	1.558934	-0.146388	-0.138208	0.020578	0.219137
2.380	9.350940	0.383687	711.432065	1.602089	-0.178550	-0.153652	0.025097	0.225192
2.390	9.349350	0.431292	711.363987	1.640168	-0.226195	-0.170889	0.031797	0.230567
2.400	9.407917	0.471638	711.233089	1.676340	-0.290226	-0.186671	0.040806	0.235695
2.410	9.520730	0.502791	711.092793	1.714975	-0.369115	-0.198039	0.051908	0.241175
