Time[s]	Fx[N]	Fy[N]	Fz[N]	Mx[Nm]	My[Nm]	Mz[Nm]	COPx[cm]	COPy[cm]
0.010	0.488177	-1.507267	515.783302	0.194799	13.172559	0.256754	-2.553894	0.037768
0.020	0.585303	-1.588595	516.823325	0.207213	13.103999	0.265537	-2.535489	0.040093
0.030	0.678740	-1.657023	517.710109	0.221972	13.022035	0.274421	-2.515314	0.042876
0.040	0.768662	-1.702589	518.325199	0.242445	12.915598	0.283262	-2.491794	0.046775
0.050	0.861179	-1.720230	518.610667	0.273110	12.777536	0.291601	-2.463801	0.052662
0.060	0.967507	-1.709852	518.579040	0.318147	12.605507	0.298814	-2.430778	0.061350
0.070	1.100474	-1.675128	518.305132	0.379197	12.401775	0.304346	-2.392756	0.073161
0.080	1.269922	-1.621975	517.902829	0.453709	12.172140	0.307919	-2.350275	0.087605
0.090	1.479021	-1.557365	517.494192	0.535045	11.924411	0.309602	-2.304260	0.103392
0.100	1.722752	-1.488689	517.180073	0.614411	11.666816	0.309779	-2.255852	0.118800
0.110	1.988612	-1.423517	517.019954	0.683547	11.406595	0.309035	-2.206220	0.132209
0.120	2.258932	-1.369384	517.024744	0.736801	11.148979	0.307989	-2.156372	0.142508
0.130	2.514195	-1.333081	517.161854	0.771806	10.896759	0.307046	-2.107031	0.149239
0.140	2.736952	-1.319224	517.369248	0.788866	10.650572	0.306124	-2.058602	0.152476
0.150	2.915623	-1.328640	517.574422	0.789823	10.409750	0.304550	-2.011257	0.152601
0.160	3.047156	-1.357779	517.714088	0.777200	10.173399	0.301293	-1.965061	0.150121
0.170	3.137569	-1.399966	517.749627	0.753953	9.941386	0.295486	-1.920115	0.145621
0.180	3.200058	-1.447998	517.673906	0.723612	9.715019	0.286975	-1.876668	0.139781
0.190	3.251159	-1.496566	517.508059	0.690334	9.497339	0.276582	-1.835206	0.133396
0.200	3.306088	-1.543109	517.290957	0.658435	9.292899	0.265941	-1.796455	0.127285
0.210	3.374587	-1.586995	517.066290	0.631370	9.107047	0.256986	-1.761292	0.122106
0.220	3.458452	-1.628051	516.871384	0.610572	8.944855	0.251273	-1.730576	0.118128
0.230	3.551314	-1.665639	516.729823	0.594868	8.810083	0.249400	-1.704969	0.115122
0.240	3.640708	-1.698797	516.648276	0.580978	8.704533	0.250775	-1.684808	0.112451
0.250	3.711807	-1.727029	516.617057	0.565026	8.627915	0.253852	-1.670079	0.109370
0.260	3.751739	-1.751006	516.613807	0.544332	8.578063	0.256740	-1.660440	0.105365
0.270	3.753149	-1.772687	516.610322	0.518598	8.551335	0.257973	-1.655278	0.100385
0.280	3.715954	-1.794959	516.582739	0.489920	8.543159	0.257128	-1.653783	0.094839
0.290	3.646966	-1.821158	516.523162	0.461653	8.548736	0.255023	-1.655054	0.089377
0.300	3.557662	-1.854579	516.447653	0.436724	8.563672	0.253371	-1.658188	0.084563
0.310	3.460877	-1.897878	516.394854	0.416265	8.584322	0.253977	-1.662356	0.080610
0.320	3.367476	-1.952323	516.413211	0.399274	8.607788	0.257896	-1.666841	0.077317
0.330	3.284143	-2.017141	516.540853	0.383400	8.631815	0.264968	-1.671081	0.074225
0.340	3.212837	-2.089267	516.786917	0.366266	8.654783	0.273960	-1.674730	0.070874
0.350	3.151583	-2.163559	517.123111	0.346563	8.675840	0.283163	-1.677713	0.067017
0.360	3.095694	-2.233451	517.489435	0.324439	8.695034	0.291096	-1.680234	0.062695
0.370	3.038882	-2.292137	517.811418	0.301191	8.713268	0.297010	-1.682711	0.058166
0.380	2.974489	-2.334184	518.021841	0.278537	8.732035	0.301013	-1.685650	0.053769
0.390	2.897353	-2.357026	518.079183	0.257827	8.753020	0.303849	-1.689514	0.049766
0.400	2.806115	-2.361575	517.977334	0.239471	8.777697	0.306488	-1.694610	0.046232
0.410	2.704870	-2.351692	517.744665	0.222807	8.807004	0.309736	-1.701032	0.043034
0.420	2.602856	-2.332829	517.434092	0.206519	8.841085	0.313947	-1.708640	0.039912
0.430	2.511777	-2.310429	517.108220	0.189434	8.879227	0.318856	-1.717093	0.036633
0.440	2.441644	-2.288603	516.824229	0.171274	8.920119	0.323560	-1.725948	0.033140
0.450	2.396897	-2.269455	516.621908	0.152878	8.962526	0.326728	-1.734833	0.029592
0.460	2.374470	-2.253290	516.516730	0.135717	9.006141	0.327045	-1.743630	0.026275
0.470	2.364510	-2.239522	516.499170	0.120902	9.052196	0.323733	-1.752606	0.023408
0.480	2.353318	-2.227822	516.540505	0.108181	9.103456	0.316916	-1.762389	0.020943
0.490	2.327317	-2.218928	516.603234	0.095462	9.163490	0.307620	-1.773796	0.018479
0.500	2.276638	-2.214781	516.652475	0.079250	9.235428	0.297418	-1.787551	0.015339
0.510	2.197313	-2.217788	516.664905	0.055918	9.320588	0.287870	-1.803991	0.010823
0.520	2.091771	-2.229472	516.633589	0.023189	9.417484	0.280003	-1.822855	0.004489
0.530	1.967848	-2.249265	516.568770	-0.019012	9.521675	0.274044	-1.843254	-0.003680
0.540	1.836742	-2.274449	516.494802	-0.068775	9.626644	0.269521	-1.863842	-0.013316
0.550	1.710417	-2.301610	516.442671	-0.123221	9.725494	0.265674	-1.883170	-0.023860
0.560	1.598989	-2.328826	516.438457	-0.179667	9.812879	0.261921	-1.900106	-0.034790
0.570	1.508657	-2.357116	516.491564	-0.236392	9.886428	0.258122	-1.914151	-0.045769
0.580	1.440669	-2.390012	516.589277	-0.292850	9.947019	0.254478	-1.925518	-0.056689
0.590	1.391734	-2.431318	516.702401	-0.349339	9.997768	0.251220	-1.934918	-0.067609
0.600	1.355913	-2.482266	516.800447	-0.406230	10.042273	0.248316	-1.943163	-0.078605
0.610	1.327411	-2.539659	516.868549	-0.463001	10.083031	0.245401	-1.950792	-0.089578
0.620	1.303197	-2.596099	516.916687	-0.517549	10.120770	0.241922	-1.957911	-0.100122
0.630	1.284415	-2.642268	516.976275	-0.566210	10.154768	0.237394	-1.964262	-0.109523
0.640	1.275954	-2.670152	517.086050	-0.604599	10.183614	0.231666	-1.969423	-0.116924
0.650	1.284205	-2.675763	517.273667	-0.628903	10.205713	0.225142	-1.972981	-0.121580
0.660	1.314051	-2.660462	517.539835	-0.637104	10.219181	0.218880	-1.974569	-0.123102
0.670	1.366764	-2.630696	517.850444	-0.629715	10.221313	0.214496	-1.973796	-0.121602
0.680	1.440022	-2.596394	518.140715	-0.609726	10.208238	0.213766	-1.970167	-0.117676
0.690	1.529825	-2.568337	518.332489	-0.581691	10.175336	0.218018	-1.963090	-0.112223
0.700	1.632895	-2.554953	518.359876	-0.550169	10.118558	0.227533	-1.952033	-0.106136
0.710	1.748054	-2.559338	518.192382	-0.518106	10.036188	0.241229	-1.936769	-0.099983
0.720	1.875842	-2.577632	517.844952	-0.485795	9.930259	0.256764	-1.917612	-0.093811
0.730	2.016431	-2.599650	517.372040	-0.450813	9.806971	0.271088	-1.895536	-0.087135
0.740	2.166700	-2.611873	516.851393	-0.408965	9.675920	0.281316	-1.872089	-0.079126
0.750	2.317946	-2.601880	516.365887	-0.355867	9.548427	0.285688	-1.849159	-0.068918
0.760	2.455808	-2.562574	515.988529	-0.288594	9.435527	0.284281	-1.828631	-0.055930
0.770	2.563103	-2.494541	515.771744	-0.206803	9.346091	0.279110	-1.812060	-0.040096
0.780	2.624697	-2.405612	515.741000	-0.112988	9.285350	0.273468	-1.800390	-0.021908
0.790	2.632245	-2.307932	515.893659	-0.011893	9.254017	0.270705	-1.793784	-0.002305
0.800	2.586632	-2.213952	516.203528	0.090627	9.248256	0.272994	-1.791591	0.017556
0.810	2.497171	-2.133009	516.629221	0.188941	9.260682	0.280590	-1.792520	0.036572
0.820	2.378374	-2.069563	517.122303	0.278880	9.282230	0.291865	-1.794978	0.053929
0.830	2.246199	-2.023217	517.632063	0.358672	9.304284	0.304061	-1.797471	0.069291
0.840	2.115474	-1.989925	518.107199	0.429449	9.320273	0.314410	-1.798908	0.082888
0.850	1.998986	-1.963666	518.497430	0.495194	9.326261	0.321149	-1.798709	0.095506
0.860	1.907549	-1.937967	518.757533	0.561941	9.320595	0.324030	-1.796715	0.108324
0.870	1.849987	-1.906835	518.853795	0.636158	9.303173	0.324145	-1.793024	0.122608
0.880	1.832430	-1.865119	518.771059	0.722677	9.274989	0.323243	-1.787877	0.139306
0.890	1.857031	-1.808683	518.518078	0.822952	9.238239	0.322860	-1.781662	0.158712
0.900	1.920772	-1.734818	518.128948	0.934507	9.196695	0.323687	-1.774982	0.180362
0.910	2.015225	-1.642967	517.658868	1.051872	9.155656	0.325418	-1.768666	0.203198
0.920	2.127640	-1.535499	517.174279	1.168502	9.121036	0.327098	-1.763629	0.225940
0.930	2.243032	-1.418144	516.740030	1.278805	9.097749	0.327734	-1.760605	0.247476
0.940	2.346527	-1.299740	516.407810	1.379450	9.088132	0.326811	-1.759875	0.267124
0.950	2.425412	-1.190892	516.209317	1.469602	9.091183	0.324456	-1.761143	0.284691
0.960	2.470700	-1.101514	516.155333	1.550239	9.102935	0.321257	-1.763604	0.300343
0.970	2.478221	-1.037879	516.239661	1.623035	9.117684	0.317935	-1.766173	0.314396
0.980	2.449107	-1.000546	516.445270	1.689418	9.129526	0.315079	-1.767762	0.327124
0.990	2.389485	-0.984350	516.749402	1.750078	9.133639	0.313041	-1.767518	0.338671
1.000	2.309461	-0.980572	517.125105	1.804906	9.126965	0.311908	-1.764943	0.349027
1.010	2.221742	-0.980173	517.538956	1.853098	9.108166	0.311500	-1.759900	0.358060
1.020	2.140092	-0.976606	517.947625	1.893314	9.077018	0.311412	-1.752497	0.365542
1.030	2.077539	-0.967230	518.297861	1.923930	9.033620	0.311107	-1.742940	0.371202
1.040	2.044490	-0.953101	518.533707	1.943535	8.977812	0.310083	-1.731384	0.374814
1.050	2.047403	-0.937508	518.610860	1.951613	8.909042	0.308066	-1.717867	0.376315
1.060	2.088733	-0.923963	518.513114	1.949123	8.826664	0.305165	-1.702303	0.375906
1.070	2.167985	-0.914536	518.262971	1.938511	8.730456	0.301900	-1.684561	0.374040
1.080	2.282825	-0.909210	517.919618	1.922954	8.621158	0.299023	-1.664575	0.371284
1.090	2.429157	-0.906544	517.562490	1.905128	8.500875	0.297180	-1.642483	0.368096
1.100	2.600067	-0.905455	517.265726	1.886153	8.373231	0.296601	-1.618748	0.364639
1.110	2.784595	-0.907344	517.074438	1.865234	8.243244	0.297015	-1.594208	0.360728
1.120	2.967615	-0.917253	516.993695	1.840153	8.116950	0.297802	-1.570029	0.355933
1.130	3.131553	-0.942906	516.994376	1.808283	8.000826	0.298283	-1.547565	0.349768
1.140	3.259794	-0.991679	517.031075	1.767570	7.901085	0.297969	-1.528164	0.341869
1.150	3.340673	-1.067067	517.062455	1.716983	7.822845	0.296698	-1.512940	0.332065
1.160	3.370560	-1.166759	517.065487	1.656348	7.769306	0.294598	-1.502577	0.320336
1.170	3.354792	-1.283501	517.039395	1.585844	7.741126	0.291897	-1.497202	0.306716
1.180	3.306106	-1.408106	517.000038	1.505557	7.736277	0.288677	-1.496378	0.291210
1.190	3.241081	-1.532770	516.969269	1.415350	7.750628	0.284776	-1.499243	0.273778
1.200	3.175701	-1.653039	516.964912	1.315107	7.779259	0.279947	-1.504794	0.254390
1.210	3.121410	-1.767946	516.994962	1.205270	7.818122	0.274142	-1.512224	0.233130
1.220	3.082814	-1.878805	517.056354	1.087447	7.865242	0.267724	-1.521158	0.210315
1.230	3.057563	-1.987509	517.136957	0.964787	7.920757	0.261414	-1.531656	0.186563
1.240	3.038078	-2.095033	517.219780	0.841912	7.985718	0.256008	-1.543970	0.162776
1.250	3.014449	-2.200599	517.288957	0.724391	8.060375	0.252066	-1.558196	0.140036
1.260	2.977855	-2.301498	517.335994	0.617921	8.142976	0.249777	-1.574021	0.119443
1.270	2.923743	-2.393386	517.363159	0.527411	8.229666	0.249055	-1.590694	0.101942
1.280	2.853700	-2.470908	517.381484	0.456199	8.315358	0.249784	-1.607200	0.088175
1.290	2.775025	-2.528543	517.403639	0.405652	8.395005	0.251993	-1.622525	0.078402
1.300	2.698028	-2.561376	517.434927	0.375468	8.464750	0.255840	-1.635906	0.072563
1.310	2.632259	-2.565559	517.467074	0.364701	8.522786	0.261396	-1.647020	0.070478
1.320	2.583252	-2.538613	517.479099	0.373112	8.569870	0.268407	-1.656080	0.072102
1.330	2.550741	-2.479985	517.446652	0.401978	8.609301	0.276220	-1.663805	0.077685
1.340	2.528554	-2.391879	517.356281	0.453598	8.646168	0.283985	-1.671221	0.087676
1.350	2.506122	-2.279717	517.217115	0.529458	8.686016	0.291023	-1.679375	0.102367
1.360	2.471499	-2.151476	517.062627	0.627958	8.733477	0.297173	-1.689056	0.121447
1.370	2.415312	-2.015789	516.940075	0.743159	8.791416	0.302887	-1.700665	0.143761
1.380	2.334257	-1.879667	516.892068	0.865513	8.860734	0.309000	-1.714233	0.167446
1.390	2.232462	-1.747029	516.939092	0.984402	8.940575	0.316272	-1.729522	0.190429
1.400	2.119938	-1.618705	517.071219	1.091237	9.028707	0.324961	-1.746124	0.211042
1.410	2.008748	-1.493856	517.252397	1.181666	9.122058	0.334655	-1.763560	0.228451
1.420	1.908600	-1.372144	517.434521	1.256042	9.217512	0.344405	-1.781387	0.242744
1.430	1.823701	-1.255679	517.574239	1.318212	9.312811	0.353060	-1.799319	0.254690
1.440	1.752099	-1.149644	517.645142	1.373339	9.407176	0.359617	-1.817302	0.265305
1.450	1.687705	-1.061111	517.641473	1.425705	9.501348	0.363485	-1.835507	0.275423
1.460	1.623984	-0.996540	517.574248	1.477229	9.597036	0.364594	-1.854234	0.285414
1.470	1.557539	-0.959166	517.463981	1.527009	9.696048	0.363344	-1.873763	0.295095
1.480	1.489940	-0.947407	517.334251	1.571831	9.799519	0.360384	-1.894234	0.303833
1.490	1.426975	-0.954831	517.207628	1.607347	9.907569	0.356340	-1.915588	0.310774
1.500	1.375724	-0.971707	517.102936	1.629574	10.019528	0.351605	-1.937627	0.315135
1.510	1.340752	-0.987703	517.032756	1.636287	10.134538	0.346259	-1.960135	0.316476
1.520	1.321031	-0.994921	517.001701	1.627908	10.252141	0.340153	-1.983000	0.314875
1.530	1.309138	-0.990197	517.006908	1.607497	10.372475	0.333115	-2.006255	0.310924
1.540	1.293460	-0.975753	517.041190	1.579823	10.495947	0.325131	-2.030002	0.305551
1.550	1.262756	-0.957999	517.097297	1.549788	10.622546	0.316386	-2.054265	0.299709
1.560	1.210916	-0.945085	517.170316	1.520794	10.751169	0.307130	-2.078845	0.294060
1.570	1.139542	-0.944375	517.256143	1.493612	10.879300	0.297483	-2.103271	0.288757
1.580	1.057133	-0.960903	517.347158	1.466193	11.003214	0.287318	-2.126853	0.283406
1.590	0.975502	-0.997183	517.429206	1.434427	11.118583	0.276284	-2.148812	0.277222
1.600	0.905270	-1.053920	517.483583	1.393463	11.221281	0.263943	-2.168432	0.269277
1.610	0.852334	-1.130802	517.494093	1.338981	11.308166	0.249984	-2.185178	0.258743
1.620	0.816540	-1.226918	517.455514	1.268011	11.377688	0.234461	-2.198776	0.245047
1.630	0.792836	-1.340819	517.378943	1.179321	11.430217	0.217997	-2.209254	0.227941
1.640	0.774229	-1.470450	517.291156	1.073744	11.467996	0.201832	-2.216933	0.207571
1.650	0.755117	-1.613002	517.228035	0.954752	11.494716	0.187594	-2.222369	0.184590
1.660	0.733491	-1.764422	517.224387	0.829104	11.514741	0.176844	-2.226256	0.160299
1.670	0.711219	-1.918354	517.303129	0.706849	11.532155	0.170618	-2.229284	0.136641
1.680	0.692698	-2.064910	517.466100	0.599941	11.549884	0.169204	-2.232008	0.115938
1.690	0.682762	-2.190419	517.688888	0.519390	11.569184	0.172192	-2.234775	0.100329
1.700	0.684704	-2.279207	517.923164	0.471947	11.589695	0.178718	-2.237725	0.091123
1.710	0.698866	-2.317363	518.109216	0.457875	11.610008	0.187778	-2.240842	0.088374
1.720	0.721985	-2.297206	518.196859	0.470986	11.628520	0.198493	-2.244035	0.090889
1.730	0.747475	-2.220610	518.166868	0.500946	11.644214	0.210240	-2.247194	0.096677
1.740	0.766702	-2.099689	518.042154	0.536730	11.657068	0.222587	-2.250216	0.103607
1.750	0.770956	-1.954421	517.881011	0.569627	11.667969	0.235128	-2.253021	0.109992
1.760	0.753589	-1.808048	517.753191	0.594736	11.678156	0.247329	-2.255545	0.114869
1.770	0.711888	-1.681925	517.709025	0.610791	11.688394	0.258528	-2.257715	0.117980
1.780	0.648480	-1.591468	517.756635	0.618861	11.698114	0.268078	-2.259385	0.119527
1.790	0.571982	-1.544113	517.858500	0.620721	11.704827	0.275537	-2.260237	0.119863
1.800	0.496300	-1.539300	517.947928	0.617549	11.704153	0.280773	-2.259716	0.119230
1.810	0.438185	-1.569914	517.955801	0.609343	11.690578	0.283852	-2.257061	0.117644
1.820	0.413445	-1.624517	517.834983	0.595147	11.658747	0.284799	-2.251441	0.114930
1.830	0.432954	-1.689745	517.574165	0.573895	11.604786	0.283417	-2.242149	0.110882
1.840	0.499908	-1.752512	517.199458	0.545384	11.527135	0.279368	-2.228760	0.105449
1.850	0.609302	-1.801847	516.766418	0.510803	11.426603	0.272465	-2.211174	0.098846
1.860	0.749743	-1.830326	516.346605	0.472517	11.305702	0.262972	-2.189557	0.091512
1.870	0.906768	-1.834975	516.012216	0.433270	11.167625	0.251685	-2.164217	0.083965
1.880	1.066177	-1.817428	515.821388	0.395288	11.015392	0.239786	-2.135505	0.076633
1.890	1.216229	-1.783258	515.806509	0.359730	10.851515	0.228589	-2.103796	0.069741
1.900	1.348528	-1.740664	515.968158	0.326640	10.678227	0.219321	-2.069552	0.063306
1.910	1.458321	-1.698716	516.276616	0.295284	10.497927	0.212957	-2.033392	0.057195
1.920	1.544792	-1.665404	516.680675	0.264702	10.313366	0.210069	-1.996081	0.051231
1.930	1.611347	-1.645980	517.120818	0.234254	10.127274	0.210734	-1.958396	0.045300
1.940	1.665508	-1.642304	517.542473	0.203999	9.941559	0.214576	-1.920916	0.039417
1.950	1.718024	-1.653446	517.905084	0.174815	9.756646	0.220970	-1.883868	0.033754
1.960	1.780943	-1.676864	518.184173	0.148155	9.571514	0.229328	-1.847126	0.028591
1.970	1.864750	-1.709209	518.367056	0.125516	9.384493	0.239283	-1.810395	0.024214
1.980	1.975343	-1.746587	518.446896	0.107811	9.194467	0.250649	-1.773464	0.020795
1.990	2.112079	-1.784946	518.420245	0.094887	9.001936	0.263185	-1.736417	0.018303
2.000	2.267881	-1.821135	518.289394	0.085269	8.809633	0.276324	-1.699752	0.016452
2.010	2.431385	-1.854129	518.066740	0.076075	8.622528	0.289054	-1.664366	0.014684
2.020	2.590199	-1.885368	517.777559	0.063192	8.447184	0.300072	-1.631431	0.012204
2.030	2.734019	-1.917669	517.459067	0.041933	8.290510	0.308153	-1.602158	0.008104
2.040	2.856615	-1.953359	517.155151	0.008342	8.158173	0.312566	-1.577510	0.001613
2.050	2.956276	-1.992913	516.907357	-0.039126	8.053188	0.313319	-1.557956	-0.007569
2.060	3.034849	-2.034897	516.744524	-0.098245	7.975148	0.311113	-1.543344	-0.019012
2.070	3.095971	-2.077049	516.675346	-0.162847	7.920258	0.307084	-1.532927	-0.031518
2.080	3.143205	-2.117566	516.688112	-0.224274	7.882057	0.302489	-1.525496	-0.043406
2.090	3.178676	-2.155652	516.758393	-0.274162	7.852702	0.298520	-1.519608	-0.053054
2.100	3.202567	-2.191037	516.860749	-0.307444	7.824665	0.296283	-1.513883	-0.059483
2.110	3.213707	-2.222972	516.978576	-0.324179	7.792436	0.296813	-1.507303	-0.062706
2.120	3.211228	-2.249586	517.108160	-0.329277	7.753640	0.300945	-1.499423	-0.063677
2.130	3.196720	-2.268041	517.256023	-0.330293	7.709125	0.309022	-1.490389	-0.063855
2.140	3.175638	-2.275367	517.430589	-0.334467	7.662115	0.320577	-1.480801	-0.064640
2.150	3.156689	-2.269613	517.631048	-0.346477	7.616940	0.334210	-1.471500	-0.066935
2.160	3.148909	-2.251094	517.838789	-0.367715	7.577859	0.347767	-1.463363	-0.071010
2.170	3.157669	-2.223240	518.017424	-0.397011	7.548228	0.358812	-1.457138	-0.076641
2.180	3.181606	-2.192308	518.123790	-0.432060	7.530059	0.365218	-1.453332	-0.083389
2.190	3.212185	-2.165571	518.125952	-0.470701	7.523905	0.365681	-1.452138	-0.090847
2.200	3.236321	-2.148737	518.019286	-0.511533	7.529039	0.359969	-1.453428	-0.098748
2.210	3.241012	-2.144043	517.831744	-0.553795	7.543902	0.348899	-1.456825	-0.106945
2.220	3.217966	-2.150082	517.614863	-0.596885	7.566763	0.334128	-1.461852	-0.115314
2.230	3.166355	-2.163287	517.424960	-0.640024	7.596387	0.317843	-1.468114	-0.123694
2.240	3.092826	-2.180020	517.303855	-0.682375	7.632463	0.302385	-1.475431	-0.131910
2.250	3.009181	-2.198199	517.267157	-0.723516	7.675604	0.289843	-1.483876	-0.139873
2.260	2.928968	-2.217860	517.302775	-0.763885	7.726822	0.281683	-1.493675	-0.147667
2.270	2.864173	-2.240599	517.377869	-0.804867	7.786625	0.278518	-1.505017	-0.155567
2.280	2.822586	-2.268192	517.451199	-0.848444	7.854096	0.280086	-1.517843	-0.163966
2.290	2.806051	-2.301041	517.487652	-0.896556	7.926520	0.285399	-1.531731	-0.173252
2.300	2.809876	-2.337288	517.470767	-0.950398	7.999953	0.292973	-1.545972	-0.183662
2.310	2.823710	-2.373117	517.408573	-1.009848	8.070617	0.301017	-1.559815	-0.195174
2.320	2.833882	-2.404149	517.330265	-1.073282	8.136525	0.307599	-1.572791	-0.207466
2.330	2.826679	-2.427117	517.275283	-1.137932	8.198605	0.310916	-1.584960	-0.219986
2.340	2.791769	-2.440946	517.279527	-1.200660	8.260783	0.309731	-1.596967	-0.232110
2.350	2.724782	-2.446806	517.363777	-1.258812	8.328945	0.303831	-1.609882	-0.243313
2.360	2.627978	-2.447360	517.527570	-1.310757	8.409078	0.294194	-1.624856	-0.253273
2.370	2.508465	-2.445798	517.749835	-1.355959	8.505268	0.282659	-1.642737	-0.261895
2.380	2.374674	-2.445131	517.996037	-1.394635	8.618319	0.271238	-1.663781	-0.269237
2.390	2.233068	-2.447771	518.229377	-1.427244	8.745477	0.261483	-1.687569	-0.275408
2.400	2.086987	-2.455133	518.420852	-1.454032	8.881192	0.254214	-1.713124	-0.280473
