Time[s]	Fx[N]	Fy[N]	Fz[N]	Mx[Nm]	My[Nm]	Mz[Nm]	COPx[cm]	COPy[cm]
0.010	3.528618	-0.296757	722.905589	0.473810	-2.904552	-0.465202	0.401789	0.065542
0.020	3.532965	-0.122850	722.071685	0.518969	-2.912816	-0.458857	0.403397	0.071872
0.030	3.535117	0.029308	721.260495	0.565334	-2.923687	-0.453231	0.405358	0.078381
0.040	3.531344	0.146322	720.496252	0.612784	-2.939144	-0.449221	0.407933	0.085050
0.050	3.516371	0.226827	719.807629	0.659936	-2.960414	-0.447507	0.411279	0.091682
0.060	3.485135	0.280107	719.232317	0.704248	-2.988350	-0.448200	0.415492	0.097917
0.070	3.435919	0.320822	718.816837	0.742939	-3.023962	-0.450663	0.420686	0.103356
0.080	3.373142	0.362764	718.607149	0.774394	-3.068679	-0.453719	0.427032	0.107763
0.090	3.307853	0.414324	718.632085	0.799334	-3.124156	-0.456200	0.434737	0.111230
0.100	3.255067	0.477020	718.887513	0.820986	-3.191721	-0.457545	0.443981	0.114202
0.110	3.228736	0.546801	719.329526	0.844111	-3.271770	-0.458121	0.454836	0.117347
0.120	3.236560	0.616780	719.880651	0.873230	-3.363452	-0.459090	0.467224	0.121302
0.130	3.277049	0.679872	720.447805	0.910702	-3.464846	-0.461895	0.480929	0.126408
0.140	3.340202	0.730489	720.946398	0.955258	-3.573555	-0.467641	0.495676	0.132501
0.150	3.411422	0.765232	721.321827	1.001513	-3.687475	-0.476698	0.511211	0.138844
0.160	3.476809	0.783114	721.559124	1.040785	-3.805436	-0.488690	0.527391	0.144241
0.170	3.527633	0.785682	721.675970	1.063191	-3.927463	-0.502763	0.544214	0.147322
0.180	3.562405	0.776953	721.702652	1.060500	-4.054546	-0.517858	0.561803	0.146944
0.190	3.586225	0.762846	721.659946	1.028828	-4.188035	-0.532841	0.580334	0.142564
0.200	3.608333	0.750157	721.547283	0.970109	-4.328988	-0.546525	0.599959	0.134448
0.210	3.639414	0.745403	721.347382	0.891759	-4.477785	-0.557732	0.620753	0.123624
0.220	3.689794	0.753766	721.043257	0.804617	-4.634136	-0.565433	0.642699	0.111591
0.230	3.768514	0.778156	720.635997	0.719863	-4.797358	-0.568933	0.665712	0.099893
0.240	3.882664	0.818521	720.152165	0.645871	-4.966583	-0.568029	0.689657	0.089685
0.250	4.036435	0.871713	719.637025	0.585938	-5.140621	-0.563071	0.714335	0.081421
0.260	4.229878	0.932025	719.138869	0.537599	-5.317433	-0.554860	0.739417	0.074756
0.270	4.457768	0.992114	718.694555	0.493674	-5.493564	-0.544364	0.764381	0.068690
0.280	4.709163	1.043889	718.323959	0.444605	-5.664065	-0.532379	0.788511	0.061895
0.290	4.968209	1.079317	718.033634	0.381185	-5.823238	-0.519331	0.810998	0.053087
0.300	5.216205	1.091315	717.824223	0.296884	-5.966083	-0.505353	0.831134	0.041359
0.310	5.434437	1.074755	717.696485	0.189274	-6.089813	-0.490585	0.848522	0.026372
0.320	5.607145	1.027377	717.654762	0.060377	-6.194693	-0.475507	0.863186	0.008413
0.330	5.724122	0.950485	717.708882	-0.084082	-6.283752	-0.461079	0.875529	-0.011715
0.340	5.782690	0.849248	717.874057	-0.236341	-6.361576	-0.448612	0.886169	-0.032922
0.350	5.788817	0.732273	718.166696	-0.388801	-6.432829	-0.439449	0.895729	-0.054138
0.360	5.756760	0.610265	718.595854	-0.536163	-6.501179	-0.434617	0.904706	-0.074613
0.370	5.706386	0.494053	719.154064	-0.676915	-6.568957	-0.434558	0.913428	-0.094127
0.380	5.658170	0.392639	719.812994	-0.813747	-6.637418	-0.438955	0.922103	-0.113050
0.390	5.627513	0.311733	720.526379	-0.952797	-6.707226	-0.446644	0.930879	-0.132236
0.400	5.621005	0.252846	721.237881	-1.101956	-6.778844	-0.455692	0.939890	-0.152787
0.410	5.636389	0.212819	721.889179	-1.268681	-6.852659	-0.463732	0.949267	-0.175745
0.420	5.665780	0.183844	722.425391	-1.457895	-6.928838	-0.468555	0.959108	-0.201806
0.430	5.700013	0.154087	722.798595	-1.670601	-7.007079	-0.468722	0.969437	-0.231130
0.440	5.732008	0.109076	722.972160	-1.903665	-7.086537	-0.463922	0.980195	-0.263311
0.450	5.758290	0.034028	722.927315	-2.150847	-7.166081	-0.454902	0.991259	-0.297519
0.460	5.778947	-0.082821	722.669928	-2.404542	-7.244767	-0.443120	1.002500	-0.332730
0.470	5.796682	-0.246434	722.232984	-2.657369	-7.322209	-0.430368	1.013829	-0.367938
0.480	5.815451	-0.452012	721.671475	-2.903018	-7.398598	-0.418518	1.025203	-0.402263
0.490	5.839108	-0.684333	721.050854	-3.136314	-7.474418	-0.409283	1.036601	-0.434964
0.500	5.870593	-0.920242	720.433794	-3.353000	-7.550161	-0.403866	1.048002	-0.465414
0.510	5.912040	-1.133981	719.870119	-3.549740	-7.626305	-0.402588	1.059400	-0.493108
0.520	5.965307	-1.303732	719.392313	-3.724645	-7.703455	-0.404748	1.070828	-0.517749
0.530	6.031723	-1.417136	719.016693	-3.878123	-7.782282	-0.408882	1.082351	-0.539365
0.540	6.110361	-1.473994	718.748815	-4.013504	-7.863077	-0.413412	1.093995	-0.558401
0.550	6.195652	-1.485699	718.590388	-4.136959	-7.945186	-0.417444	1.105663	-0.575705
0.560	6.276360	-1.472149	718.544525	-4.256584	-8.026855	-0.421318	1.117099	-0.592390
0.570	6.337761	-1.457396	718.617160	-4.380962	-8.105720	-0.426537	1.127961	-0.609638
0.580	6.367231	-1.465096	718.814197	-4.517666	-8.179705	-0.434994	1.137944	-0.628489
0.590	6.361238	-1.514338	719.135527	-4.672060	-8.247851	-0.447808	1.146912	-0.649677
0.600	6.330218	-1.616295	719.568376	-4.846549	-8.310674	-0.464432	1.154953	-0.673536
0.610	6.298047	-1.772234	720.082961	-5.040304	-8.369943	-0.482583	1.162358	-0.699962
0.620	6.295206	-1.973400	720.632183	-5.249442	-8.427924	-0.499109	1.169518	-0.728450
0.630	6.347996	-2.202807	721.155180	-5.467684	-8.486267	-0.511354	1.176760	-0.758184
0.640	6.468190	-2.438508	721.584003	-5.687378	-8.544825	-0.518272	1.184176	-0.788180
0.650	6.647291	-2.657613	721.853581	-5.900649	-8.600901	-0.520762	1.191502	-0.817430
0.660	6.857598	-2.840202	721.914594	-6.100365	-8.649376	-0.521141	1.198116	-0.845026
0.670	7.059719	-2.972131	721.746002	-6.280777	-8.683911	-0.522142	1.203181	-0.870220
0.680	7.213907	-3.046044	721.361760	-6.437851	-8.698854	-0.525886	1.205893	-0.892458
0.690	7.291134	-3.060822	720.807807	-6.569431	-8.691043	-0.533136	1.205736	-0.911398
0.700	7.279809	-3.020730	720.150275	-6.675225	-8.660709	-0.542939	1.202625	-0.926921
0.710	7.185878	-2.935386	719.460242	-6.756644	-8.611170	-0.552751	1.196893	-0.939127
0.720	7.027101	-2.820359	718.801623	-6.816505	-8.547562	-0.559108	1.189141	-0.948315
0.730	6.824978	-2.696839	718.226461	-6.858749	-8.475240	-0.558809	1.180023	-0.954956
0.740	6.598413	-2.588806	717.777652	-6.888166	-8.398530	-0.550220	1.170074	-0.959652
0.750	6.361460	-2.517646	717.495025	-6.910052	-8.320308	-0.534166	1.159633	-0.963080
0.760	6.124630	-2.496096	717.418977	-6.929651	-8.242423	-0.513929	1.148899	-0.965914
0.770	5.897350	-2.524351	717.587552	-6.951441	-8.166565	-0.494278	1.138058	-0.968724
0.780	5.689325	-2.590252	718.026553	-6.978459	-8.095016	-0.479883	1.127398	-0.971894
0.790	5.510098	-2.673301	718.735659	-7.011929	-8.030836	-0.473722	1.117356	-0.975592
0.800	5.367639	-2.750511	719.675785	-7.051268	-7.977338	-0.476126	1.108463	-0.979784
0.810	5.267097	-2.801763	720.764058	-7.094411	-7.937111	-0.484829	1.101208	-0.984290
0.820	5.210235	-2.813321	721.881517	-7.138325	-7.911122	-0.495975	1.095903	-0.988850
0.830	5.195346	-2.779389	722.893489	-7.179681	-7.898393	-0.505628	1.092608	-0.993187
0.840	5.217429	-2.702295	723.676018	-7.215615	-7.896303	-0.511153	1.091138	-0.997078
0.850	5.268821	-2.591872	724.138761	-7.244407	-7.901229	-0.511938	1.091121	-1.000417
0.860	5.340465	-2.464048	724.237788	-7.265814	-7.909124	-0.509248	1.092062	-1.003236
0.870	5.423378	-2.338283	723.977300	-7.280956	-7.915880	-0.505372	1.093388	-1.005689
0.880	5.509479	-2.233745	723.403274	-7.291805	-7.917523	-0.502511	1.094483	-1.007986
0.890	5.591323	-2.164920	722.592767	-7.300381	-7.910412	-0.501896	1.094726	-1.010304
0.900	5.661241	-2.138050	721.641322	-7.307916	-7.891565	-0.503421	1.093558	-1.012680
0.910	5.711058	-2.149658	720.649560	-7.314333	-7.859233	-0.505831	1.090576	-1.014964
0.920	5.733427	-2.187666	719.710264	-7.318408	-7.813551	-0.507303	1.085652	-1.016855
0.930	5.724765	-2.234724	718.898406	-7.318595	-7.756916	-0.506160	1.079000	-1.018029
0.940	5.688365	-2.272803	718.266250	-7.314119	-7.693683	-0.501467	1.071146	-1.018302
0.950	5.635319	-2.287961	717.843518	-7.305654	-7.629043	-0.493295	1.062772	-1.017722
0.960	5.581550	-2.274278	717.640520	-7.295194	-7.567440	-0.482623	1.054489	-1.016553
0.970	5.541382	-2.235959	717.651749	-7.285270	-7.511177	-0.470946	1.046633	-1.015154
0.980	5.520566	-2.186611	717.858275	-7.278155	-7.459843	-0.459778	1.039181	-1.013871
0.990	5.512578	-2.145326	718.228927	-7.275645	-7.410803	-0.450228	1.031816	-1.012998
1.000	5.500720	-2.130531	718.722092	-7.279469	-7.360481	-0.442805	1.024107	-1.012835
1.010	5.465464	-2.153841	719.290284	-7.291847	-7.305793	-0.437535	1.015695	-1.013756
1.020	5.393487	-2.216448	719.887417	-7.315583	-7.245134	-0.434304	1.006426	-1.016212
1.030	5.283818	-2.309518	720.475588	-7.353471	-7.178766	-0.433187	0.996393	-1.020641
1.040	5.148249	-2.418246	721.027611	-7.407313	-7.108721	-0.434530	0.985915	-1.027327
1.050	5.006598	-2.527501	721.524724	-7.477127	-7.038392	-0.438705	0.975489	-1.036295
1.060	4.880013	-2.626464	721.952726	-7.560974	-6.971801	-0.445743	0.965687	-1.047295
1.070	4.785521	-2.710399	722.300056	-7.655359	-6.912648	-0.455120	0.957033	-1.059859
1.080	4.732990	-2.779394	722.557877	-7.755837	-6.863311	-0.465806	0.949863	-1.073386
1.090	4.723733	-2.835537	722.719632	-7.857459	-6.824105	-0.476492	0.944226	-1.087207
1.100	4.749821	-2.880594	722.778935	-7.955011	-6.793037	-0.485859	0.939850	-1.100615
1.110	4.794439	-2.915599	722.727850	-8.043275	-6.766280	-0.492836	0.936214	-1.112905
1.120	4.834660	-2.942055	722.558509	-8.117524	-6.739359	-0.496811	0.932708	-1.123442
1.130	4.847431	-2.963237	722.268702	-8.174237	-6.708772	-0.497723	0.928847	-1.131745
1.140	4.817387	-2.984107	721.868882	-8.211870	-6.673428	-0.496011	0.924465	-1.137585
1.150	4.743099	-3.009667	721.386634	-8.231403	-6.635241	-0.492434	0.919790	-1.141053
1.160	4.638397	-3.042863	720.865969	-8.236313	-6.598563	-0.487884	0.915366	-1.142558
1.170	4.527811	-3.083397	720.361319	-8.231763	-6.568654	-0.483269	0.911855	-1.142727
1.180	4.438249	-3.127986	719.927919	-8.223141	-6.549872	-0.479470	0.909796	-1.142217
1.190	4.390446	-3.171772	719.610889	-8.214562	-6.544320	-0.477333	0.909425	-1.141528
1.200	4.393135	-3.210196	719.435879	-8.207969	-6.551460	-0.477595	0.910639	-1.140890
1.210	4.441238	-3.240612	719.404598	-8.203056	-6.568751	-0.480705	0.913082	-1.140256
1.220	4.517968	-3.262857	719.497527	-8.197789	-6.592852	-0.486559	0.916313	-1.139377
1.230	4.599943	-3.278362	719.683014	-8.189187	-6.620789	-0.494321	0.919959	-1.137888
1.240	4.664025	-3.288395	719.928642	-8.174170	-6.650701	-0.502497	0.923800	-1.135414
1.250	4.694265	-3.292918	720.209657	-8.150431	-6.682153	-0.509322	0.927807	-1.131675
1.260	4.686992	-3.291106	720.511214	-8.117147	-6.716117	-0.513339	0.932132	-1.126582
1.270	4.652158	-3.283186	720.824587	-8.075235	-6.754590	-0.513896	0.937064	-1.120277
1.280	4.610188	-3.271998	721.140404	-8.026952	-6.799922	-0.511395	0.942940	-1.113091
1.290	4.585374	-3.262830	721.442980	-7.974998	-6.854051	-0.507187	0.950048	-1.105423
1.300	4.598200	-3.261257	721.708733	-7.921521	-6.917893	-0.503198	0.958544	-1.097606
1.310	4.659249	-3.270100	721.909210	-7.867465	-6.991044	-0.501383	0.968410	-1.089814
1.320	4.766589	-3.287290	722.016985	-7.812475	-7.071817	-0.503180	0.979453	-1.082035
1.330	4.907348	-3.305997	722.011290	-7.755321	-7.157547	-0.509049	0.991335	-1.074127
1.340	5.062825	-3.317223	721.880368	-7.694659	-7.245050	-0.518214	1.003636	-1.065919
1.350	5.215192	-3.313490	721.619937	-7.629754	-7.331143	-0.528654	1.015928	-1.057309
1.360	5.353227	-3.291673	721.230599	-7.560836	-7.413169	-0.537404	1.027850	-1.048324
1.370	5.474946	-3.253815	720.718369	-7.488851	-7.489424	-0.541177	1.039161	-1.039081
1.380	5.586431	-3.206070	720.099776	-7.414669	-7.559255	-0.537208	1.049751	-1.029672
1.390	5.697705	-3.156615	719.408554	-7.338115	-7.622691	-0.524073	1.059578	-1.020020
1.400	5.817578	-3.113135	718.698857	-7.257315	-7.679778	-0.502183	1.068567	-1.009785
1.410	5.949621	-3.080321	718.041723	-7.168795	-7.730056	-0.473743	1.076547	-0.998381
1.420	6.090844	-3.057983	717.514921	-7.068333	-7.772567	-0.442199	1.083262	-0.985113
1.430	6.233358	-3.040408	717.188741	-6.952196	-7.806398	-0.411431	1.088472	-0.969368
1.440	6.367823	-3.017297	717.111139	-6.818218	-7.831348	-0.384942	1.092069	-0.950790
1.450	6.486841	-2.976142	717.295568	-6.666378	-7.848260	-0.365267	1.094146	-0.929377
1.460	6.586738	-2.905636	717.714715	-6.498716	-7.858722	-0.353578	1.094965	-0.905473
1.470	6.667200	-2.799405	718.303156	-6.318752	-7.864295	-0.349488	1.094843	-0.879678
1.480	6.729397	-2.659023	718.970292	-6.130703	-7.865725	-0.351123	1.094026	-0.852706
1.490	6.774163	-2.495160	719.620940	-5.938828	-7.862639	-0.355615	1.092608	-0.825272
1.500	6.801778	-2.326127	720.176721	-5.747025	-7.853875	-0.359999	1.090548	-0.798002
1.510	6.813685	-2.173995	720.590377	-5.558711	-7.838176	-0.362195	1.087744	-0.771411
1.520	6.814724	-2.059263	720.848403	-5.376846	-7.814753	-0.361640	1.084105	-0.745905
1.530	6.813697	-1.995547	720.962684	-5.203925	-7.783394	-0.359255	1.079583	-0.721802
1.540	6.821118	-1.985775	720.956185	-5.041683	-7.744115	-0.356763	1.074145	-0.699305
1.550	6.844947	-2.021100	720.849409	-4.890465	-7.696618	-0.355714	1.067715	-0.678431
1.560	6.886593	-2.082969	720.653127	-4.748522	-7.639866	-0.356729	1.060131	-0.658919
1.570	6.939425	-2.147862	720.369196	-4.611762	-7.571947	-0.359336	1.051120	-0.640194
1.580	6.990612	-2.193225	719.997178	-4.474306	-7.490234	-0.362405	1.040314	-0.621434
1.590	7.025262	-2.202584	719.542726	-4.329758	-7.391753	-0.364862	1.027285	-0.601737
1.600	7.030669	-2.168176	719.024617	-4.172695	-7.273679	-0.366293	1.011604	-0.580327
1.610	6.998879	-2.090712	718.478581	-3.999819	-7.133905	-0.367142	0.992918	-0.556707
1.620	6.927222	-1.977153	717.956214	-3.810487	-6.971620	-0.368491	0.971037	-0.530741
1.630	6.817580	-1.837879	717.518118	-3.606687	-6.787785	-0.371536	0.946009	-0.502661
1.640	6.675260	-1.684257	717.223174	-3.392597	-6.585412	-0.377071	0.918182	-0.473018
1.650	6.507917	-1.527064	717.118391	-3.173839	-6.369470	-0.385229	0.888203	-0.442582
1.660	6.324571	-1.375871	717.232975	-2.956463	-6.146275	-0.395581	0.856943	-0.412204
1.670	6.134532	-1.239259	717.577124	-2.745803	-5.922361	-0.407483	0.825327	-0.382649
1.680	5.945965	-1.125315	718.143698	-2.545603	-5.703130	-0.420411	0.794149	-0.354470
1.690	5.763983	-1.041525	718.910506	-2.357757	-5.491827	-0.434153	0.763910	-0.327963
1.700	5.588752	-0.993469	719.841425	-2.182671	-5.289273	-0.448835	0.734783	-0.303216
1.710	5.414760	-0.982662	720.885560	-2.019966	-5.094471	-0.464809	0.706696	-0.280206
1.720	5.232493	-1.004853	721.975467	-1.869147	-4.905898	-0.482438	0.679510	-0.258893
1.730	5.032936	-1.050173	723.027404	-1.729943	-4.723041	-0.501800	0.653231	-0.239264
1.740	4.813914	-1.105493	723.946923	-1.602211	-4.547560	-0.522341	0.628162	-0.221316
1.750	4.585978	-1.158105	724.641244	-1.485536	-4.383603	-0.542620	0.604934	-0.205003
1.760	4.374835	-1.199221	725.036430	-1.378871	-4.237152	-0.560290	0.584405	-0.190180
1.770	4.218077	-1.225936	725.093659	-1.280499	-4.114649	-0.572471	0.567464	-0.176598
1.780	4.156103	-1.240921	724.817302	-1.188322	-4.021280	-0.576482	0.554799	-0.163948
1.790	4.219725	-1.249874	724.250354	-1.100219	-3.959314	-0.570649	0.546678	-0.151911
1.800	4.418583	-1.257629	723.459208	-1.014175	-3.926874	-0.554874	0.542791	-0.140184
1.810	4.734431	-1.264616	722.515408	-0.928014	-3.917587	-0.530748	0.542215	-0.128442
1.820	5.121797	-1.265472	721.483174	-0.838845	-3.921399	-0.501225	0.543519	-0.116267
1.830	5.516200	-1.250615	720.417745	-0.742547	-3.926488	-0.469974	0.545029	-0.103072
1.840	5.847873	-1.210059	719.372951	-0.633699	-3.921762	-0.440658	0.545164	-0.088090
1.850	6.057532	-1.137668	718.410695	-0.506256	-3.899145	-0.416359	0.542746	-0.070469
1.860	6.110089	-1.034008	717.603919	-0.354935	-3.854923	-0.399326	0.537194	-0.049461
1.870	6.002448	-0.906616	717.029071	-0.176949	-3.789818	-0.391013	0.528545	-0.024678
1.880	5.762973	-0.767575	716.750617	0.026611	-3.707914	-0.392217	0.517323	0.003713
1.890	5.442794	-0.629481	716.804207	0.250630	-3.614980	-0.403094	0.504319	0.034965
1.900	5.102033	-0.501525	717.184887	0.487568	-3.516862	-0.422966	0.490370	0.067984
1.910	4.795414	-0.386984	717.843722	0.730447	-3.418392	-0.450094	0.476203	0.101756
1.920	4.561101	-0.282336	718.693494	0.975958	-3.322838	-0.481676	0.462344	0.135796
1.930	4.415036	-0.177550	719.622840	1.226064	-3.231702	-0.514258	0.449083	0.170376
1.940	4.351603	-0.057555	720.516691	1.487060	-3.144765	-0.544423	0.436460	0.206388
1.950	4.349953	0.094347	721.278157	1.766353	-3.060513	-0.569442	0.424318	0.244892
1.960	4.383484	0.290616	721.845126	2.068473	-2.976996	-0.587630	0.412415	0.286554
1.970	4.428711	0.532455	722.196099	2.392231	-2.892857	-0.598367	0.400564	0.331244
1.980	4.470305	0.805113	722.344038	2.730292	-2.807939	-0.601913	0.388726	0.377977
1.990	4.501417	1.079350	722.322161	3.071203	-2.723084	-0.599121	0.376990	0.425185
2.000	4.520922	1.320295	722.168835	3.402938	-2.639248	-0.591086	0.365461	0.471211
2.010	4.530323	1.500649	721.917971	3.716562	-2.556637	-0.578838	0.354145	0.514818
2.020	4.532220	1.612284	721.597074	4.008701	-2.474509	-0.563225	0.342921	0.555532
2.030	4.530498	1.670748	721.230303	4.281943	-2.391813	-0.545081	0.331630	0.593700
2.040	4.530976	1.710529	720.841490	4.543068	-2.308168	-0.525613	0.320205	0.630245
2.050	4.541072	1.772891	720.453547	4.799814	-2.224450	-0.506718	0.308757	0.666221
2.060	4.567820	1.890970	720.084624	5.057456	-2.142485	-0.490928	0.297532	0.702342
2.070	4.614570	2.077731	719.744884	5.316507	-2.063924	-0.480839	0.286758	0.738665
2.080	4.677667	2.321225	719.437800	5.572352	-1.988884	-0.478275	0.276450	0.774543
2.090	4.745081	2.588614	719.166384	5.816857	-1.915173	-0.483648	0.266305	0.808833
2.100	4.798709	2.836937	718.940480	6.041189	-1.838724	-0.495894	0.255755	0.840291
2.110	4.820411	3.026334	718.779926	6.238595	-1.755194	-0.512944	0.244191	0.867942
2.120	4.799513	3.131238	718.711186	6.405955	-1.662052	-0.532406	0.231254	0.891312
2.130	4.738106	3.146307	718.759518	6.543639	-1.560105	-0.552087	0.217055	0.910407
2.140	4.651164	3.085731	718.941052	6.653979	-1.453690	-0.570229	0.202199	0.925525
2.150	4.561107	2.976648	719.257826	6.739219	-1.349420	-0.585549	0.187613	0.936968
2.160	4.489380	2.849317	719.696124	6.799902	-1.254072	-0.597314	0.174250	0.944830
2.170	4.448954	2.727615	720.227210	6.834374	-1.172623	-0.605496	0.162813	0.948919
2.180	4.440777	2.623023	720.809911	6.839539	-1.107176	-0.610891	0.153602	0.948869
2.190	4.454961	2.533801	721.395000	6.812428	-1.057000	-0.614954	0.146522	0.944341
2.200	4.475705	2.449150	721.930946	6.751829	-1.019375	-0.619267	0.141201	0.935246
2.210	4.488137	2.356408	722.369820	6.659428	-0.990843	-0.624792	0.137166	0.921886
2.220	4.484892	2.248191	722.671991	6.540293	-0.968511	-0.631327	0.134018	0.905015
2.230	4.470126	2.126483	722.809124	6.402751	-0.951021	-0.637500	0.131573	0.885815
2.240	4.459117	2.002101	722.765979	6.257610	-0.938788	-0.641341	0.129888	0.865787
2.250	4.473325	1.889957	722.541540	6.116566	-0.933269	-0.641098	0.129165	0.846535
2.260	4.532859	1.802412	722.149052	5.989872	-0.935456	-0.635899	0.129538	0.829451
2.270	4.649171	1.743677	721.614130	5.883823	-0.944331	-0.625976	0.130864	0.815370
2.280	4.820177	1.707515	720.971256	5.799027	-0.956172	-0.612456	0.132623	0.804335
2.290	5.028923	1.678772	720.260176	5.730298	-0.965174	-0.596937	0.134004	0.795587
2.300	5.246093	1.637811	719.523430	5.668447	-0.965085	-0.581125	0.134128	0.787806
2.310	5.436197	1.566408	718.805043	5.603403	-0.950991	-0.566644	0.132302	0.779544
2.320	5.566386	1.453779	718.149863	5.527428	-0.920487	-0.554938	0.128175	0.769676
2.330	5.615510	1.301210	717.603028	5.437221	-0.873901	-0.547150	0.121781	0.757692
2.340	5.580146	1.123497	717.208766	5.334250	-0.813703	-0.543897	0.113454	0.743751
2.350	5.475157	0.946054	717.007084	5.223486	-0.743406	-0.545032	0.103682	0.728512
2.360	5.328687	0.798256	717.027111	5.111393	-0.666350	-0.549529	0.092932	0.712859
2.370	5.173894	0.705282	717.277922	5.004139	-0.584744	-0.555670	0.081523	0.697657
