Time[s]	Fx[N]	Fy[N]	Fz[N]	Mx[Nm]	My[Nm]	Mz[Nm]	COPx[cm]	COPy[cm]
0.010	0.612545	-2.957525	710.385302	-23.320620	15.645533	-0.386823	-2.202401	-3.282813
0.020	0.888781	-2.973352	708.210742	-23.232456	15.571262	-0.345990	-2.198676	-3.280444
0.030	1.156074	-2.997006	705.810852	-23.141986	15.499502	-0.309244	-2.195985	-3.278780
0.040	1.399787	-3.034272	703.039397	-23.047576	15.435048	-0.279967	-2.195474	-3.278277
0.050	1.596987	-3.085806	699.893700	-22.949428	15.385370	-0.260366	-2.198244	-3.278988
0.060	1.719786	-3.146277	696.533072	-22.850194	15.358921	-0.251391	-2.205053	-3.280561
0.070	1.743768	-3.205223	693.251455	-22.755047	15.361607	-0.252915	-2.215878	-3.282366
0.080	1.657909	-3.249421	690.412364	-22.671025	15.392997	-0.263976	-2.229537	-3.283693
0.090	1.471077	-3.266199	688.364677	-22.605665	15.444203	-0.282973	-2.243608	-3.283966
0.100	1.211656	-3.246909	687.362475	-22.565319	15.498789	-0.307811	-2.254820	-3.282885
0.110	0.920197	-3.189533	687.509159	-22.553733	15.536690	-0.336045	-2.259852	-3.280499
0.120	0.638393	-3.099371	688.737377	-22.571273	15.539763	-0.365101	-2.256268	-3.277196
0.130	0.398933	-2.987556	690.826309	-22.614801	15.496867	-0.392590	-2.243236	-3.273587
0.140	0.219743	-2.868401	693.449764	-22.678017	15.406646	-0.416634	-2.221739	-3.270319
0.150	0.103644	-2.756877	696.242967	-22.752183	15.277041	-0.436070	-2.194211	-3.267851
0.160	0.042258	-2.666795	698.872421	-22.827358	15.121821	-0.450429	-2.163746	-3.266313
0.170	0.021891	-2.609259	701.092226	-22.894180	14.955485	-0.459739	-2.133169	-3.265502
0.180	0.029242	-2.590777	702.773137	-22.945878	14.788479	-0.464242	-2.104303	-3.265048
0.190	0.055598	-2.610989	703.898583	-22.979740	14.624436	-0.464146	-2.077634	-3.264638
0.200	0.099011	-2.660972	704.532660	-22.997330	14.460130	-0.459499	-2.052443	-3.264196
0.210	0.164449	-2.723627	704.774204	-23.003231	14.287705	-0.450231	-2.027274	-3.263915
0.220	0.262077	-2.777157	704.714120	-23.002904	14.098007	-0.436370	-2.000529	-3.264147
0.230	0.403889	-2.801055	704.409511	-23.000739	13.883813	-0.418327	-1.970986	-3.265251
0.240	0.599187	-2.782504	703.880264	-22.999384	13.642031	-0.397112	-1.938118	-3.267514
0.250	0.849934	-2.720739	703.125174	-23.000690	13.374272	-0.374317	-1.902118	-3.271208
0.260	1.147519	-2.627860	702.148364	-23.007670	13.085685	-0.351776	-1.863664	-3.276753
0.270	1.472573	-2.526197	700.984176	-23.026164	12.782588	-0.330986	-1.823520	-3.284834
0.280	1.798622	-2.443366	699.709784	-23.064994	12.469969	-0.312499	-1.782163	-3.296366
0.290	2.098786	-2.406421	698.438901	-23.134239	12.149944	-0.295666	-1.739586	-3.312278
0.300	2.353112	-2.436329	697.297058	-23.242299	11.821801	-0.278902	-1.695375	-3.333199
0.310	2.553590	-2.543723	696.387655	-23.393111	11.483512	-0.260417	-1.649011	-3.359208
0.320	2.704732	-2.726636	695.763614	-23.584726	11.133982	-0.239071	-1.600254	-3.389761
0.330	2.819739	-2.970843	695.417044	-23.809733	10.775024	-0.214959	-1.549433	-3.423806
0.340	2.914437	-3.253040	695.289778	-24.057263	10.412241	-0.189463	-1.497540	-3.460034
0.350	3.002048	-3.546158	695.297349	-24.315722	10.054569	-0.164753	-1.446082	-3.497169
0.360	3.090665	-3.824936	695.354322	-24.575216	9.712719	-0.143019	-1.396801	-3.534201
0.370	3.183285	-4.069676	695.391487	-24.828840	9.397166	-0.125816	-1.351349	-3.570484
0.380	3.278962	-4.267512	695.362289	-25.072616	9.116295	-0.113756	-1.311014	-3.605691
0.390	3.373848	-4.412223	695.242308	-25.304571	8.875174	-0.106523	-1.276558	-3.639676
0.400	3.461769	-4.504237	695.028192	-25.523770	8.675142	-0.103053	-1.248171	-3.672336
0.410	3.534722	-4.551428	694.740394	-25.729901	8.514152	-0.101704	-1.225516	-3.703527
0.420	3.583810	-4.569783	694.428768	-25.923466	8.387546	-0.100400	-1.207834	-3.733063
0.430	3.600947	-4.582293	694.175269	-26.106096	8.288833	-0.096803	-1.194055	-3.760736
0.440	3.581202	-4.614827	694.087146	-26.280396	8.210130	-0.088674	-1.182867	-3.786325
0.450	3.525154	-4.689262	694.277637	-26.448961	8.142301	-0.074458	-1.172773	-3.809566
0.460	3.440359	-4.815956	694.836872	-26.612860	8.075205	-0.053983	-1.162173	-3.830088
0.470	3.340935	-4.988882	695.800299	-26.770343	7.998601	-0.028922	-1.149554	-3.847418
0.480	3.244661	-5.186238	697.124196	-26.916586	7.903828	-0.002657	-1.133776	-3.861089
0.490	3.167874	-5.377072	698.677623	-27.044793	7.785797	0.020564	-1.114362	-3.870854
0.500	3.119839	-5.531592	700.257406	-27.148241	7.644400	0.036875	-1.091656	-3.876894
0.510	3.099193	-5.630932	701.626809	-27.222245	7.484640	0.043927	-1.066755	-3.879875
0.520	3.094437	-5.672344	702.570385	-27.265066	7.315279	0.041461	-1.041216	-3.880759
0.530	3.088498	-5.667863	702.949726	-27.277514	7.146398	0.031155	-1.016630	-3.880436
0.540	3.065239	-5.637405	702.741437	-27.261802	6.986689	0.015865	-0.994205	-3.879350
0.550	3.015109	-5.599674	702.042609	-27.220579	6.841335	-0.001328	-0.974490	-3.877340
0.560	2.937941	-5.565005	701.040277	-27.156712	6.711089	-0.017895	-0.957304	-3.873773
0.570	2.842446	-5.533100	699.954545	-27.073781	6.592639	-0.032238	-0.941867	-3.867934
0.580	2.743088	-5.496223	698.974764	-26.976760	6.479972	-0.043761	-0.927068	-3.859476
0.590	2.655562	-5.445844	698.211084	-26.872267	6.366229	-0.052788	-0.911791	-3.848731
0.600	2.592345	-5.379186	697.678548	-26.768126	6.245465	-0.060454	-0.895178	-3.836742
0.610	2.559722	-5.302464	697.317652	-26.672398	6.113771	-0.068519	-0.876756	-3.825000
0.620	2.557153	-5.229365	697.039049	-26.592252	5.969532	-0.079003	-0.856413	-3.815031
0.630	2.578831	-5.175717	696.769941	-26.532898	5.813065	-0.093603	-0.834288	-3.807985
0.640	2.616184	-5.153023	696.482445	-26.496708	5.646051	-0.113020	-0.810652	-3.804361
0.650	2.659657	-5.163862	696.197141	-26.482792	5.470963	-0.136480	-0.785835	-3.803921
0.660	2.698936	-5.201051	695.968891	-26.487329	5.290349	-0.161711	-0.760142	-3.805821
0.670	2.722336	-5.250682	695.868169	-26.504755	5.105689	-0.185460	-0.733715	-3.808876
0.680	2.717315	-5.297628	695.967628	-26.529416	4.915778	-0.204321	-0.706323	-3.811875
0.690	2.673813	-5.331183	696.335093	-26.556887	4.715091	-0.215570	-0.677130	-3.813809
0.700	2.590253	-5.348494	697.027558	-26.584263	4.492973	-0.217709	-0.644590	-3.813947
0.710	2.479808	-5.354350	698.080235	-26.609239	4.234538	-0.210671	-0.606598	-3.811774
0.720	2.373320	-5.357536	699.489720	-26.628412	3.923546	-0.195704	-0.560915	-3.806834
0.730	2.316011	-5.365468	701.196845	-26.635657	3.546626	-0.175040	-0.505796	-3.798599
0.740	2.357609	-5.379576	703.078292	-26.621514	3.097345	-0.151423	-0.440541	-3.786422
0.750	2.538894	-5.393443	704.954246	-26.574319	2.578501	-0.127515	-0.365769	-3.769652
0.760	2.879827	-5.394371	706.612972	-26.483023	2.001692	-0.105306	-0.283280	-3.747882
0.770	3.373972	-5.367465	707.845703	-26.340742	1.384512	-0.085662	-0.195595	-3.721255
0.780	3.990927	-5.300411	708.481186	-26.147563	0.746739	-0.068222	-0.105400	-3.690650
0.790	4.685004	-5.187120	708.410679	-25.911461	0.106985	-0.051703	-0.015102	-3.657689
0.800	5.406549	-5.029192	707.599308	-25.646978	-0.519378	-0.034535	0.073400	-3.624506
0.810	6.112536	-4.835138	706.084776	-25.372147	-1.120971	-0.015571	0.158759	-3.593357
0.820	6.774091	-4.618099	703.967077	-25.104699	-1.690230	0.005423	0.240101	-3.566175
0.830	7.379419	-4.393064	701.393026	-24.858773	-2.222657	0.027743	0.316892	-3.544200
0.840	7.931240	-4.174509	698.538075	-24.643153	-2.715754	0.050196	0.388777	-3.527818
0.850	8.439348	-3.975071	695.587053	-24.461434	-3.167882	0.071773	0.455426	-3.516660
0.860	8.911060	-3.805492	692.716336	-24.313701	-3.577329	0.092123	0.516420	-3.509907
0.870	9.343718	-3.675347	690.081252	-24.198688	-3.941936	0.111526	0.571228	-3.506643
0.880	9.722538	-3.593458	687.811277	-24.115305	-4.259392	0.130362	0.619268	-3.506093
0.890	10.024473	-3.567023	686.011246	-24.062922	-4.527852	0.148424	0.660026	-3.507657
0.900	10.225881	-3.599344	684.762408	-24.040515	-4.746242	0.164528	0.693122	-3.510782
0.910	10.310302	-3.687110	684.117265	-24.045309	-4.913886	0.176684	0.718281	-3.514793
0.920	10.273200	-3.818666	684.087962	-24.071801	-5.029636	0.182786	0.735232	-3.518817
0.930	10.122427	-3.974595	684.635018	-24.111857	-5.091120	0.181467	0.743625	-3.521856
0.940	9.875110	-4.131137	685.665607	-24.156019	-5.094736	0.172733	0.743035	-3.523003
0.950	9.552862	-4.265583	687.046520	-24.195457	-5.036679	0.158115	0.733091	-3.521662
0.960	9.177311	-4.361694	688.629423	-24.223697	-4.914742	0.140301	0.713699	-3.517668
0.970	8.767236	-4.413152	690.279986	-24.237303	-4.730117	0.122383	0.685246	-3.511228
0.980	8.337487	-4.424111	691.901093	-24.235336	-4.488279	0.107035	0.648688	-3.502717
0.990	7.899061	-4.407164	693.443566	-24.218068	-4.198504	0.095926	0.605457	-3.492435
1.000	7.459442	-4.379604	694.903383	-24.185793	-3.872320	0.089502	0.557246	-3.480454
1.010	7.022754	-4.358866	696.309370	-24.138340	-3.521775	0.087059	0.505777	-3.466611
1.020	6.589844	-4.358008	697.707430	-24.075283	-3.158366	0.086947	0.452678	-3.450627
1.030	6.158822	-4.382054	699.145411	-23.996373	-2.793007	0.086866	0.399489	-3.432243
1.040	5.726629	-4.425975	700.658969	-23.901728	-2.436677	0.084291	0.347769	-3.411321
1.050	5.291673	-4.475034	702.257263	-23.791689	-2.100983	0.077019	0.299176	-3.387888
1.060	4.856725	-4.507881	703.909821	-23.666579	-1.797906	0.063747	0.255417	-3.362161
1.070	4.430674	-4.501978	705.539897	-23.526675	-1.538544	0.044510	0.218066	-3.334563
1.080	4.028138	-4.439993	707.030256	-23.372374	-1.331335	0.020812	0.188300	-3.305711
1.090	3.667107	-4.315206	708.242642	-23.204330	-1.180535	-0.004717	0.166685	-3.276325
1.100	3.365824	-4.134052	709.045307	-23.023369	-1.085612	-0.029073	0.153109	-3.247094
1.110	3.140173	-3.914722	709.339574	-22.830257	-1.041767	-0.049752	0.146864	-3.218523
1.120	3.001857	-3.682022	709.078256	-22.625515	-1.041348	-0.065362	0.146859	-3.190835
1.130	2.957005	-3.460256	708.272725	-22.409533	-1.075624	-0.075724	0.151866	-3.163969
1.140	3.004940	-3.266825	706.988125	-22.183079	-1.136346	-0.081556	0.160731	-3.137688
1.150	3.137363	-3.108646	705.328120	-21.948014	-1.216630	-0.084000	0.172491	-3.111745
1.160	3.338171	-2.981923	703.413181	-21.707681	-1.310901	-0.084220	0.186363	-3.086050
1.170	3.583866	-2.874470	701.358909	-21.466501	-1.414001	-0.083119	0.201609	-3.060701
1.180	3.844597	-2.769597	699.260815	-21.228760	-1.519931	-0.081129	0.217362	-3.035886
1.190	4.086350	-2.650777	697.189145	-20.997334	-1.621067	-0.078099	0.232515	-3.011713
1.200	4.274917	-2.506233	695.194285	-20.773349	-1.708582	-0.073372	0.245770	-2.988136
1.210	4.381470	-2.332339	693.321151	-20.557270	-1.774276	-0.066120	0.255910	-2.965043
1.220	4.388363	-2.134888	691.628736	-20.350919	-1.813207	-0.055863	0.262165	-2.942463
1.230	4.293283	-1.928044	690.207596	-20.159126	-1.826011	-0.042952	0.264560	-2.920734
1.240	4.110516	-1.731412	689.185240	-19.989898	-1.819851	-0.028743	0.264058	-2.900512
1.250	3.869051	-1.566016	688.710495	-19.852893	-1.807481	-0.015230	0.262444	-2.882618
1.260	3.607723	-1.450109	688.915866	-19.756865	-1.804558	-0.004140	0.261942	-2.867820
1.270	3.367907	-1.395762	689.869965	-19.707132	-1.825966	0.004141	0.264683	-2.856644
1.280	3.185116	-1.406902	691.541180	-19.703912	-1.882355	0.011140	0.272197	-2.849275
1.290	3.081718	-1.478873	693.789998	-19.741984	-1.978044	0.019857	0.285107	-2.845527
1.300	3.063021	-1.599286	696.392448	-19.811646	-2.110870	0.033466	0.303115	-2.844897
1.310	3.118007	-1.749878	699.082663	-19.900593	-2.273703	0.053876	0.325241	-2.846672
1.320	3.224517	-1.909249	701.598231	-19.996096	-2.456761	0.080941	0.350166	-2.850078
1.330	3.357222	-2.056224	703.716835	-20.086900	-2.649850	0.112660	0.376551	-2.854401
1.340	3.495551	-2.173184	705.280527	-20.164641	-2.844165	0.146099	0.403267	-2.859095
1.350	3.628714	-2.248612	706.209430	-20.224840	-3.033757	0.178477	0.429583	-2.863859
1.360	3.756402	-2.278530	706.507410	-20.267517	-3.216825	0.207924	0.455314	-2.868691
1.370	3.886023	-2.266889	706.259242	-20.297115	-3.396664	0.233715	0.480937	-2.873890
1.380	4.028800	-2.224944	705.615540	-20.321344	-3.581816	0.256081	0.507616	-2.879946
1.390	4.196856	-2.169321	704.762644	-20.348899	-3.784883	0.275882	0.537044	-2.887341
1.400	4.401858	-2.118623	703.880691	-20.386700	-4.019824	0.294329	0.571094	-2.896329
1.410	4.654280	-2.089295	703.100920	-20.437759	-4.298182	0.312803	0.611318	-2.906803
1.420	4.961976	-2.092438	702.477306	-20.500518	-4.625388	0.332650	0.658440	-2.918318
1.430	5.327632	-2.133064	701.983931	-20.569792	-4.998542	0.354875	0.712059	-2.930237
1.440	5.746072	-2.211811	701.538700	-20.638664	-5.406617	0.379798	0.770680	-2.941914
1.450	6.203198	-2.327506	701.042036	-20.700436	-5.833067	0.406844	0.832057	-2.952810
1.460	6.677867	-2.478587	700.413516	-20.749944	-6.259779	0.434617	0.893726	-2.962528
1.470	7.146459	-2.662286	699.613727	-20.783890	-6.670894	0.461253	0.953511	-2.970766
1.480	7.588307	-2.872055	698.648715	-20.800328	-7.055148	0.484887	1.009828	-2.977223
1.490	7.989716	-3.094878	697.562738	-20.797760	-7.406296	0.503999	1.061739	-2.981489
1.500	8.345136	-3.310436	696.427109	-20.774518	-7.722096	0.517474	1.108816	-2.983014
1.510	8.655710	-3.493330	695.329246	-20.728864	-8.002897	0.524409	1.150951	-2.981158
1.520	8.926623	-3.618050	694.360887	-20.659677	-8.250542	0.523874	1.188221	-2.975351
1.530	9.164706	-3.665073	693.602626	-20.567217	-8.467634	0.514903	1.220819	-2.965274
1.540	9.376771	-3.626021	693.105481	-20.453528	-8.656793	0.496885	1.248986	-2.950998
1.550	9.568073	-3.506288	692.876142	-20.322426	-8.819701	0.470215	1.272912	-2.933053
1.560	9.740238	-3.324479	692.875166	-20.179305	-8.956304	0.436773	1.292629	-2.912401
1.570	9.889152	-3.108906	693.032986	-20.030734	-9.064802	0.399782	1.307990	-2.890300
1.580	10.004555	-2.891931	693.279220	-19.883673	-9.142829	0.362988	1.318780	-2.868061
1.590	10.072886	-2.703355	693.572323	-19.744298	-9.189468	0.329494	1.324947	-2.846754
1.600	10.082989	-2.564366	693.915055	-19.616776	-9.207159	0.300827	1.326842	-2.826971
1.610	10.032040	-2.483552	694.348022	-19.502441	-9.202430	0.276638	1.325334	-2.808742
1.620	9.928582	-2.455802	694.924888	-19.399646	-9.184916	0.255060	1.321713	-2.791618
1.630	9.791115	-2.464058	695.681679	-19.304356	-9.164918	0.233493	1.317401	-2.774883
1.640	9.643045	-2.483439	696.613935	-19.211317	-9.150493	0.209489	1.313567	-2.757814
1.650	9.506417	-2.486962	697.669450	-19.115448	-9.145233	0.181518	1.310826	-2.739900
1.660	9.396972	-2.451616	698.755809	-19.012980	-9.147604	0.149458	1.309127	-2.720976
1.670	9.321957	-2.363177	699.756730	-18.902041	-9.151888	0.114712	1.307867	-2.701230
1.680	9.280553	-2.218508	700.551503	-18.782613	-9.150049	0.079952	1.306121	-2.681118
1.690	9.265819	-2.025131	701.034698	-18.655983	-9.133611	0.048567	1.302876	-2.661207
1.700	9.267016	-1.798859	701.134062	-18.523965	-9.094975	0.023932	1.297181	-2.642000
1.710	9.271753	-1.560424	700.822950	-18.388269	-9.028128	0.008692	1.288218	-2.623811
1.720	9.267857	-1.331667	700.123912	-18.250242	-8.928914	0.004234	1.275333	-2.606716
1.730	9.245046	-1.131789	699.103567	-18.111090	-8.795037	0.010458	1.258045	-2.590616
1.740	9.196462	-0.974478	697.861418	-17.972558	-8.625890	0.025836	1.236046	-2.575376
1.750	9.119707	-0.866713	696.514751	-17.837890	-8.422390	0.047659	1.209219	-2.561021
1.760	9.016660	-0.809226	695.181640	-17.712622	-8.186956	0.072457	1.177671	-2.547913
1.770	8.891641	-0.797726	693.966213	-17.604637	-7.923606	0.096588	1.141785	-2.536815
1.780	8.748503	-0.823933	692.951374	-17.523102	-7.637897	0.116923	1.102227	-2.528764
1.790	8.588088	-0.876391	692.200709	-17.476524	-7.336462	0.131444	1.059875	-2.524777
1.800	8.407374	-0.941877	691.765236	-17.470566	-7.026140	0.139481	1.015683	-2.525505
1.810	8.200844	-1.007900	691.687068	-17.506325	-6.712976	0.141451	0.970522	-2.530960
1.820	7.963655	-1.065600	691.994157	-17.579565	-6.401401	0.138211	0.925066	-2.540421
1.830	7.695422	-1.111560	692.686499	-17.681196	-6.093718	0.130418	0.879722	-2.552554
1.840	7.402900	-1.147510	693.720266	-17.799089	-5.789950	0.118292	0.834623	-2.565744
1.850	7.099973	-1.178150	694.999349	-17.920849	-5.488018	0.101883	0.789644	-2.578542
1.860	6.804321	-1.208426	696.382615	-18.036792	-5.184297	0.081621	0.744461	-2.590069
1.870	6.531883	-1.241647	697.709447	-18.142138	-4.874579	0.058762	0.698655	-2.600243
1.880	6.291676	-1.279122	698.836906	-18.237719	-4.555347	0.035485	0.651847	-2.609725
1.890	6.083378	-1.320941	699.673963	-18.329068	-4.225010	0.014591	0.603854	-2.619658
1.900	5.898379	-1.367009	700.197566	-18.424325	-3.884584	-0.001033	0.554784	-2.631304
1.910	5.723238	-1.417621	700.443742	-18.531682	-3.537404	-0.008960	0.505023	-2.645706
1.920	5.544046	-1.473526	700.479524	-18.657044	-3.187855	-0.007613	0.455096	-2.663467
1.930	5.350827	-1.535968	700.370163	-18.802418	-2.839668	0.003497	0.405452	-2.684640
1.940	5.141167	-1.607084	700.155586	-18.965491	-2.494627	0.023622	0.356296	-2.708754
1.950	4.921587	-1.690388	699.842140	-19.140675	-2.152260	0.050679	0.307535	-2.734999
1.960	4.705145	-1.790560	699.407842	-19.321452	-1.810439	0.081389	0.258853	-2.762544
1.970	4.505337	-1.912151	698.817357	-19.503221	-1.466297	0.111814	0.209826	-2.790890
1.980	4.328704	-2.057805	698.044623	-19.685431	-1.116965	0.138302	0.160013	-2.820082
1.990	4.169877	-2.227231	697.099814	-19.871978	-0.760104	0.158499	0.109038	-2.850665
2.000	4.012250	-2.417824	696.051723	-20.069518	-0.394622	0.171969	0.056694	-2.883337
2.010	3.835172	-2.626713	695.032963	-20.284293	-0.021641	0.180134	0.003114	-2.918465
2.020	3.625185	-2.852901	694.219550	-20.518652	0.354754	0.185528	-0.051101	-2.955643
2.030	3.385889	-3.097805	693.787149	-20.768566	0.727727	0.190670	-0.104892	-2.993507
2.040	3.140539	-3.363239	693.857471	-21.023257	1.089313	0.196948	-0.156994	-3.029910
2.050	2.924427	-3.647483	694.454899	-21.267302	1.433180	0.203973	-0.206375	-3.062445
2.060	2.769636	-3.941563	695.492204	-21.484607	1.757471	0.209632	-0.252695	-3.089123
2.070	2.689397	-4.228031	696.793526	-21.662654	2.066288	0.210744	-0.296542	-3.108906
2.080	2.670203	-4.483236	698.146389	-21.795402	2.368735	0.204000	-0.339289	-3.121896
2.090	2.676033	-4.682375	699.361537	-21.884002	2.675617	0.186877	-0.382580	-3.129140
2.100	2.662781	-4.805416	700.317574	-21.935559	2.995125	0.158438	-0.427681	-3.132230
2.110	2.595903	-4.841726	700.976337	-21.960772	3.329461	0.119897	-0.474975	-3.132884
2.120	2.463221	-4.791937	701.368259	-21.971373	3.673870	0.074669	-0.523815	-3.132644
2.130	2.277925	-4.666967	701.558376	-21.978023	4.018361	0.027674	-0.572776	-3.132743
2.140	2.071674	-4.485374	701.609330	-21.988966	4.351177	-0.015948	-0.620171	-3.134075
2.150	1.881806	-4.270486	701.556726	-22.009428	4.662456	-0.052117	-0.664587	-3.137227
2.160	1.738446	-4.047844	701.405241	-22.041548	4.946572	-0.078539	-0.705237	-3.142484
2.170	1.656684	-3.842638	701.143480	-22.084605	5.202483	-0.094704	-0.742000	-3.149798
2.180	1.636275	-3.676798	700.766600	-22.135368	5.432454	-0.101408	-0.775216	-3.158736
2.190	1.667572	-3.565978	700.292958	-22.188521	5.640220	-0.100201	-0.805409	-3.168463
2.200	1.739318	-3.517084	699.765625	-22.237244	5.829671	-0.093033	-0.833089	-3.177813
2.210	1.843401	-3.526939	699.238553	-22.274017	6.004473	-0.082179	-0.858716	-3.185467
2.220	1.974184	-3.582535	698.755461	-22.291705	6.168459	-0.070309	-0.882778	-3.190201
2.230	2.124043	-3.663154	698.332698	-22.284960	6.326214	-0.060438	-0.905903	-3.191167
2.240	2.279475	-3.744180	697.954370	-22.251782	6.483360	-0.055540	-0.928909	-3.188143
2.250	2.421407	-3.801772	697.581594	-22.194778	6.646332	-0.057814	-0.952768	-3.181675
2.260	2.529777	-3.817120	697.171207	-22.121472	6.821843	-0.067841	-0.978503	-3.173033
2.270	2.588990	-3.779396	696.694975	-22.043246	7.016423	-0.084038	-1.007101	-3.163974
2.280	2.590193	-3.687332	696.150707	-21.973118	7.236196	-0.102778	-1.039458	-3.156374
2.290	2.529026	-3.549808	695.562396	-21.922952	7.486710	-0.119236	-1.076353	-3.151831
2.300	2.401199	-3.385435	694.973516	-21.900894	7.772452	-0.128733	-1.118381	-3.151328
2.310	2.200212	-3.220584	694.439609	-21.909714	8.095996	-0.128091	-1.165832	-3.155021
2.320	1.920134	-3.085217	694.022097	-21.946585	8.457064	-0.116542	-1.218558	-3.162231
