Time[s]	Fx[N]	Fy[N]	Fz[N]	Mx[Nm]	My[Nm]	Mz[Nm]	COPx[cm]	COPy[cm]
0.010	4.725229	2.853976	521.629913	5.029874	-3.844440	-0.585469	0.737005	0.964261
0.020	4.169700	3.166159	523.077347	5.381132	-3.356879	-0.577047	0.641756	1.028745
0.030	3.625139	3.465543	524.548559	5.734223	-2.865342	-0.571472	0.546249	1.093173
0.040	3.099651	3.743499	526.055362	6.090106	-2.368302	-0.570669	0.450200	1.157693
0.050	2.599085	3.995769	527.589330	6.447031	-1.867235	-0.574918	0.353918	1.221979
0.060	2.127645	4.222128	529.126703	6.799684	-1.366799	-0.582832	0.258312	1.285077
0.070	1.688912	4.424151	530.636407	7.139407	-0.873825	-0.591852	0.164675	1.345442
0.080	1.286855	4.601915	532.083729	7.455598	-0.395555	-0.599033	0.074341	1.401208
0.090	0.926747	4.751145	533.428723	7.737862	0.062057	-0.601848	-0.011634	1.450590
0.100	0.615600	4.862298	534.624279	7.978229	0.495296	-0.598787	-0.092644	1.492306
0.110	0.361352	4.922472	535.619489	8.172887	0.902667	-0.589661	-0.168528	1.525876
0.120	0.170213	4.920096	536.370187	8.323213	1.284122	-0.575605	-0.239410	1.551766
0.130	0.042669	4.851302	536.853639	8.436078	1.640019	-0.558848	-0.305487	1.571393
0.140	-0.030147	4.725763	537.080955	8.523440	1.970219	-0.542320	-0.366838	1.586994
0.150	-0.067562	4.569224	537.100194	8.601079	2.273601	-0.529152	-0.423310	1.601392
0.160	-0.096505	4.420679	536.986246	8.686421	2.548090	-0.522159	-0.474517	1.617624
0.170	-0.144693	4.324275	536.819597	8.795619	2.791148	-0.523374	-0.519942	1.638468
0.180	-0.231819	4.318350	536.661935	8.940487	3.000435	-0.533686	-0.559092	1.665944
0.190	-0.361995	4.425367	536.538740	9.126105	3.174198	-0.552616	-0.591606	1.700922
0.200	-0.520616	4.646202	536.436393	9.349893	3.311064	-0.578305	-0.617233	1.742964
0.210	-0.677216	4.960692	536.315266	9.602494	3.409274	-0.607784	-0.635685	1.790457
0.220	-0.793460	5.334061	536.133174	9.870134	3.465848	-0.637549	-0.646453	1.840986
0.230	-0.833452	5.726633	535.868462	10.137675	3.476307	-0.664307	-0.648724	1.891821
0.240	-0.772716	6.103026	535.531810	10.391408	3.435312	-0.685679	-0.641477	1.940390
0.250	-0.603073	6.437565	535.161646	10.620931	3.338147	-0.700674	-0.623764	1.984621
0.260	-0.332642	6.714835	534.806851	10.819854	3.182545	-0.709822	-0.595083	2.023133
0.270	0.017887	6.926823	534.506475	10.985469	2.970151	-0.714968	-0.555681	2.055255
0.280	0.420850	7.069500	534.276024	11.117655	2.706935	-0.718753	-0.506655	2.080882
0.290	0.847604	7.141225	534.104790	11.217299	2.402281	-0.723807	-0.449777	2.100206
0.300	1.274255	7.143483	533.962863	11.284616	2.066992	-0.731839	-0.387104	2.113371
0.310	1.686784	7.082606	533.812515	11.317935	1.711050	-0.742909	-0.320534	2.120208
0.320	2.084473	6.970534	533.617842	11.313536	1.342160	-0.755300	-0.251521	2.120157
0.330	2.479432	6.823609	533.348445	11.266806	0.965880	-0.766137	-0.181097	2.112466
0.340	2.890416	6.659924	532.976520	11.174444	0.587390	-0.772535	-0.110209	2.096611
0.350	3.331889	6.496814	532.470543	11.036965	0.213979	-0.772708	-0.040186	2.072784
0.360	3.802570	6.349662	531.791351	10.860451	-0.143155	-0.766548	0.026919	2.042239
0.370	4.278815	6.231707	530.896660	10.656573	-0.468947	-0.755477	0.088331	2.007278
0.380	4.716401	6.153359	529.756546	10.440428	-0.746574	-0.741734	0.140928	1.970797
0.390	5.060767	6.119947	528.375873	10.226688	-0.960838	-0.727456	0.181848	1.935495
0.400	5.262298	6.128543	526.813258	10.025473	-1.101537	-0.714000	0.209094	1.903041
0.410	5.291028	6.166057	525.184839	9.839665	-1.165594	-0.701703	0.221940	1.873562
0.420	5.145221	6.210714	523.647024	9.664720	-1.157253	-0.690092	0.220999	1.845656
0.430	4.850708	6.237204	522.363330	9.491054	-1.086340	-0.678314	0.207966	1.816945
0.440	4.451863	6.223641	521.469215	9.307921	-0.965343	-0.665586	0.185120	1.784942
0.450	3.998468	6.157346	521.048820	9.107174	-0.806443	-0.651478	0.154773	1.747854
0.460	3.533749	6.037212	521.129283	8.885384	-0.619567	-0.635934	0.118889	1.705025
0.470	3.087188	5.872409	521.688999	8.643559	-0.411946	-0.619018	0.078964	1.656841
0.480	2.673050	5.678840	522.672082	8.384665	-0.188969	-0.600482	0.036154	1.604192
0.490	2.293484	5.474932	524.002490	8.110002	0.044346	-0.579380	-0.008463	1.547703
0.500	1.944262	5.277501	525.594586	7.815792	0.282008	-0.554012	-0.053655	1.487038
0.510	1.621164	5.097653	527.359618	7.491253	0.516387	-0.522377	-0.097919	1.420521
0.520	1.325281	4.936765	529.209398	7.118883	0.738441	-0.483047	-0.139537	1.345192
0.530	1.065850	4.783072	531.059617	6.677043	0.938639	-0.436160	-0.176748	1.257306
0.540	0.859768	4.610128	532.834800	6.144299	1.108075	-0.384105	-0.207958	1.153134
0.550	0.727896	4.378611	534.474846	5.504386	1.239213	-0.331538	-0.231856	1.029868
0.560	0.689514	4.042235	535.940850	4.750456	1.326022	-0.284574	-0.247419	0.886377
0.570	0.756969	3.557036	537.217170	3.887435	1.363679	-0.249268	-0.253841	0.723624
0.580	0.932060	2.892000	538.307519	2.931856	1.348213	-0.229828	-0.250454	0.544643
0.590	1.204540	2.038455	539.224808	1.909265	1.276498	-0.227247	-0.236728	0.354076
0.600	1.552383	1.015838	539.977070	0.850051	1.146885	-0.238913	-0.212395	0.157423
0.610	1.943629	-0.127839	540.553840	-0.214892	0.960457	-0.259370	-0.177680	-0.039754
0.620	2.340037	-1.321499	540.917885	-1.257387	0.722454	-0.281931	-0.133561	-0.232454
0.630	2.702534	-2.481777	541.005936	-2.253645	0.443023	-0.300572	-0.081889	-0.416566
0.640	2.997676	-3.527114	540.739499	-3.185006	0.136528	-0.311515	-0.025248	-0.589009
0.650	3.203755	-4.392403	540.043394	-4.038776	-0.180677	-0.313949	0.033456	-0.747861
0.660	3.315393	-5.041219	538.866968	-4.809439	-0.493301	-0.309687	0.091544	-0.892509
0.670	3.345857	-5.472678	537.202171	-5.499451	-0.789831	-0.301942	0.147027	-1.023721
0.680	3.326205	-5.720376	535.094380	-6.118372	-1.063963	-0.293792	0.198837	-1.143419
0.690	3.300160	-5.842505	532.643905	-6.679810	-1.314357	-0.286974	0.246761	-1.254085
0.700	3.314235	-5.905233	529.997205	-7.196935	-1.542964	-0.281443	0.291127	-1.357919
0.710	3.404663	-5.964386	527.328341	-7.678315	-1.752493	-0.275742	0.332334	-1.456079
0.720	3.584923	-6.051428	524.814296	-8.125719	-1.943745	-0.267936	0.370368	-1.548304
0.730	3.838565	-6.168222	522.610297	-8.534497	-2.113501	-0.256643	0.404413	-1.633052
0.740	4.120701	-6.291618	520.830713	-8.895804	-2.253637	-0.241800	0.432700	-1.708003
0.750	4.368626	-6.385275	519.538707	-9.199361	-2.351853	-0.224881	0.452681	-1.770679
0.760	4.518716	-6.413685	518.745779	-9.435817	-2.393873	-0.208562	0.461473	-1.818968
0.770	4.524156	-6.353300	518.420440	-9.598545	-2.366345	-0.195924	0.456453	-1.851498
0.780	4.367335	-6.197732	518.503056	-9.684959	-2.259471	-0.189462	0.435768	-1.867869
0.790	4.062559	-5.956967	518.922727	-9.697235	-2.068647	-0.190264	0.398643	-1.868724
0.800	3.648400	-5.652745	519.612255	-9.642083	-1.794898	-0.197677	0.345430	-1.855630
0.810	3.172872	-5.312700	520.517657	-9.529364	-1.444218	-0.209631	0.277458	-1.830747
0.820	2.676852	-4.964706	521.599216	-9.369701	-1.026041	-0.223502	0.196711	-1.796341
0.830	2.181282	-4.631621	522.823877	-9.171591	-0.551178	-0.237250	0.105423	-1.754241
0.840	1.682055	-4.326486	524.154003	-8.938957	-0.029913	-0.250404	0.005707	-1.705407
0.850	1.154189	-4.049193	525.541660	-8.670254	0.528779	-0.264563	-0.100616	-1.649775
0.860	0.564563	-3.786372	526.936529	-8.359960	1.116153	-0.283138	-0.211819	-1.586521
0.870	-0.109998	-3.515724	528.308568	-8.002332	1.720949	-0.310264	-0.325747	-1.514708
0.880	-0.864875	-3.214197	529.676632	-7.596224	2.326090	-0.349064	-0.439153	-1.434125
0.890	-1.656632	-2.867425	531.126370	-7.149009	2.906460	-0.399783	-0.547226	-1.346009
0.900	-2.404025	-2.476763	532.800166	-6.677747	3.429295	-0.458576	-0.643636	-1.253330
0.910	-3.002548	-2.060886	534.852137	-6.206677	3.857869	-0.517696	-0.721296	-1.160447
0.920	-3.349550	-1.650808	537.379223	-5.761538	4.157973	-0.567366	-0.773750	-1.072155
0.930	-3.373089	-1.279669	540.355278	-5.362569	4.305362	-0.598828	-0.796765	-0.992415
0.940	-3.055417	-0.970891	543.597856	-5.018852	4.291730	-0.607372	-0.789505	-0.923266
0.950	-2.442411	-0.729347	546.784788	-4.726210	4.126969	-0.594120	-0.754770	-0.864364
0.960	-1.634098	-0.539371	549.517485	-4.469504	3.836643	-0.565857	-0.698184	-0.813351
0.970	-0.758193	-0.370632	551.410458	-4.228301	3.455288	-0.533068	-0.626627	-0.766816
0.980	0.064629	-0.189418	552.177772	-3.983691	3.017749	-0.506943	-0.546518	-0.721451
0.990	0.751697	0.029389	551.689182	-3.723877	2.551581	-0.496370	-0.462503	-0.674995
1.000	1.275295	0.294049	549.981016	-3.447121	2.073043	-0.505814	-0.376930	-0.626771
1.010	1.661084	0.593489	547.224524	-3.161728	1.587765	-0.534566	-0.290149	-0.577775
1.020	1.970145	0.900094	543.669346	-2.883546	1.095158	-0.577359	-0.201438	-0.530386
1.030	2.271913	1.175922	539.585908	-2.631879	0.594262	-0.625960	-0.110133	-0.487759
1.040	2.617785	1.380632	535.226554	-2.424851	0.088340	-0.671268	-0.016505	-0.453051
1.050	3.024478	1.480007	530.813605	-2.275276	-0.413570	-0.705480	0.077913	-0.428639
1.060	3.472344	1.454028	526.548744	-2.187975	-0.898324	-0.723865	0.170606	-0.415531
1.070	3.917829	1.302874	522.628413	-2.159182	-1.352161	-0.725672	0.258723	-0.413139
1.080	4.313459	1.048887	519.249011	-2.178130	-1.764031	-0.713876	0.339727	-0.419477
1.090	4.626249	0.733159	516.593859	-2.230196	-2.127296	-0.693829	0.411793	-0.431712
1.100	4.847392	0.407069	514.806120	-2.300423	-2.439595	-0.671332	0.473886	-0.446852
1.110	4.990998	0.121102	513.960629	-2.376283	-2.701547	-0.650835	0.525633	-0.462347
1.120	5.084495	-0.085693	514.048189	-2.449178	-2.915183	-0.634336	0.567103	-0.476449
1.130	5.155858	-0.192874	514.978866	-2.514806	-3.082674	-0.621262	0.598602	-0.488332
1.140	5.222898	-0.201184	516.601169	-2.572877	-3.205492	-0.609232	0.620497	-0.498039
1.150	5.288085	-0.130626	518.727719	-2.626458	-3.283973	-0.595315	0.633082	-0.506327
1.160	5.339913	-0.014828	521.158322	-2.680915	-3.317198	-0.577229	0.636505	-0.514415
1.170	5.359290	0.106993	523.696405	-2.742285	-3.303163	-0.554066	0.630740	-0.523640
1.180	5.327635	0.198801	526.160151	-2.815239	-3.239187	-0.526408	0.615627	-0.535054
1.190	5.232984	0.235368	528.391379	-2.901285	-3.122455	-0.495990	0.590936	-0.549079
1.200	5.071599	0.207144	530.263364	-2.998113	-2.950654	-0.465186	0.556451	-0.565401
1.210	4.844802	0.121275	531.687257	-3.100462	-2.722713	-0.436537	0.512089	-0.583136
1.220	4.553248	-0.001353	532.617626	-3.202136	-2.439715	-0.412413	0.458061	-0.601207
1.230	4.192585	-0.132307	533.058470	-3.298171	-2.105858	-0.394761	0.395052	-0.618726
1.240	3.754148	-0.243438	533.068741	-3.386145	-1.729258	-0.384853	0.324397	-0.635217
1.250	3.231650	-0.314307	532.762457	-3.466242	-1.322276	-0.382946	0.248192	-0.650617
1.260	2.631177	-0.337103	532.297798	-3.540468	-0.901180	-0.387929	0.169300	-0.665129
1.270	1.979414	-0.317564	531.853650	-3.611938	-0.485122	-0.397148	0.091213	-0.679122
1.280	1.325199	-0.271790	531.597745	-3.684782	-0.094518	-0.406587	0.017780	-0.693152
1.290	0.732096	-0.220458	531.653742	-3.764422	0.251170	-0.411504	-0.047243	-0.708059
1.300	0.263401	-0.182675	532.074894	-3.857431	0.536242	-0.407484	-0.100783	-0.724979
1.310	-0.035659	-0.171442	532.830971	-3.970464	0.751818	-0.391672	-0.141099	-0.745164
1.320	-0.152196	-0.191638	533.813220	-4.108408	0.898102	-0.363789	-0.168243	-0.769634
1.330	-0.110938	-0.240562	534.858076	-4.272454	0.984642	-0.326545	-0.184094	-0.798801
1.340	0.031893	-0.310402	535.784451	-4.458866	1.028023	-0.285193	-0.191873	-0.832213
1.350	0.204383	-0.391558	536.434564	-4.658982	1.047568	-0.246299	-0.195284	-0.868509
1.360	0.339038	-0.475488	536.707532	-4.860513	1.060343	-0.216107	-0.197564	-0.905617
1.370	0.390464	-0.556020	536.578538	-5.049820	1.076844	-0.199021	-0.200687	-0.941115
1.380	0.345389	-0.628967	536.101699	-5.214598	1.098351	-0.196628	-0.204877	-0.972688
1.390	0.223110	-0.690838	535.398505	-5.346235	1.116409	-0.207509	-0.208519	-0.998553
1.400	0.067842	-0.737770	534.634620	-5.441249	1.114541	-0.227855	-0.208468	-1.017751
1.410	-0.063608	-0.765451	533.987454	-5.501542	1.071887	-0.252706	-0.200733	-1.030275
1.420	-0.115285	-0.770213	533.607587	-5.533620	0.968095	-0.277359	-0.181424	-1.037020
1.430	-0.043955	-0.750932	533.580148	-5.547051	0.788441	-0.298440	-0.147764	-1.039591
1.440	0.172405	-0.710896	533.896206	-5.552462	0.527960	-0.314312	-0.098888	-1.039989
1.450	0.530574	-0.658626	534.445522	-5.559433	0.193508	-0.324874	-0.036207	-1.040224
1.460	1.002902	-0.606852	535.037883	-5.574703	-0.196943	-0.331073	0.036809	-1.041927
1.470	1.542715	-0.569657	535.450918	-5.601079	-0.617897	-0.334417	0.115398	-1.046049
1.480	2.093429	-0.558638	535.491875	-5.637181	-1.042129	-0.336612	0.194611	-1.052711
1.490	2.599857	-0.579299	535.054232	-5.678022	-1.447108	-0.339237	0.270460	-1.061205
1.500	3.019535	-0.628851	534.150551	-5.716232	-1.820053	-0.343485	0.340738	-1.070154
1.510	3.331554	-0.696311	532.910385	-5.743746	-2.159956	-0.349990	0.405313	-1.077807
1.520	3.540665	-0.765376	531.543715	-5.753704	-2.476105	-0.358809	0.465833	-1.082452
1.530	3.675480	-0.819734	530.282091	-5.742258	-2.783899	-0.369538	0.524985	-1.082869
1.540	3.781044	-0.849380	529.316566	-5.709934	-3.099490	-0.381522	0.585565	-1.078737
1.550	3.907455	-0.855641	528.750949	-5.662169	-3.434785	-0.394048	0.649604	-1.070857
1.560	4.097202	-0.852571	528.582522	-5.608746	-3.793971	-0.406436	0.717763	-1.061092
1.570	4.374392	-0.863536	528.713431	-5.561988	-4.172261	-0.418001	0.789135	-1.051985
1.580	4.738864	-0.913788	528.987018	-5.533961	-4.557113	-0.427977	0.861479	-1.046143
1.590	5.167105	-1.021644	529.236206	-5.533449	-4.931522	-0.435573	0.931819	-1.045554
1.600	5.619758	-1.191488	529.327777	-5.563675	-5.278282	-0.440202	0.997167	-1.051083
1.610	6.053125	-1.411169	529.189123	-5.621447	-5.583660	-0.441804	1.055135	-1.062276
1.620	6.430442	-1.654644	528.811818	-5.697854	-5.839253	-0.441037	1.104221	-1.077482
1.630	6.728968	-1.888911	528.235616	-5.780219	-6.041656	-0.439207	1.143743	-1.094250
1.640	6.941074	-2.082919	527.523045	-5.854867	-6.190587	-0.437927	1.173520	-1.109879
1.650	7.070341	-2.215577	526.736399	-5.910079	-6.286610	-0.438641	1.193502	-1.122018
1.660	7.125439	-2.280458	525.925600	-5.938488	-6.329571	-0.442184	1.203511	-1.129150
1.670	7.114650	-2.285951	525.128896	-5.938169	-6.318316	-0.448489	1.203193	-1.130802
1.680	7.042818	-2.251058	524.381889	-5.912135	-6.251557	-0.456542	1.192176	-1.127448
1.690	6.911071	-2.198303	523.727327	-5.866464	-6.129205	-0.464607	1.170305	-1.120137
1.700	6.718452	-2.146055	523.219355	-5.807666	-5.953313	-0.470666	1.137824	-1.109987
1.710	6.464010	-2.102829	522.919630	-5.740098	-5.728119	-0.472979	1.095411	-1.097702
1.720	6.148008	-2.065312	522.886374	-5.664217	-5.459231	-0.470651	1.044057	-1.083260
1.730	5.771735	-2.020461	523.160120	-5.576176	-5.152552	-0.464123	0.984890	-1.065864
1.740	5.336674	-1.950508	523.751995	-5.468810	-4.813713	-0.455394	0.919082	-1.044160
1.750	4.844780	-1.838895	524.640909	-5.333637	-4.448511	-0.447780	0.847915	-1.016626
1.760	4.301231	-1.674934	525.783142	-5.163281	-4.064297	-0.445044	0.772999	-0.982017
1.770	3.719384	-1.455700	527.131667	-4.953572	-3.671699	-0.450042	0.696543	-0.939722
1.780	3.126027	-1.184979	528.656672	-4.704605	-3.285878	-0.463348	0.621552	-0.889917
1.790	2.564094	-0.870626	530.356697	-4.420427	-2.926565	-0.482482	0.551811	-0.833482
1.800	2.090203	-0.522243	532.252681	-4.107688	-2.616455	-0.502236	0.491581	-0.771755
1.810	1.765669	-0.150382	534.364362	-3.773957	-2.378013	-0.516152	0.445017	-0.706252
1.820	1.642344	0.232791	536.677603	-3.426486	-2.229362	-0.518739	0.415401	-0.638463
1.830	1.747583	0.612496	539.117123	-3.071801	-2.180544	-0.507599	0.404466	-0.569784
1.840	2.074015	0.971440	541.537445	-2.716123	-2.231435	-0.484595	0.412056	-0.501558
1.850	2.578519	1.291907	543.736180	-2.366216	-2.372012	-0.455499	0.436243	-0.435177
1.860	3.191263	1.559525	545.484116	-2.030042	-2.584778	-0.428224	0.473850	-0.372154
1.870	3.831860	1.767103	546.561898	-1.716694	-2.848501	-0.410346	0.521167	-0.314090
1.880	4.427442	1.916455	546.794445	-1.435423	-3.142105	-0.406838	0.574641	-0.262516
1.890	4.927473	2.016911	546.077820	-1.194011	-3.447650	-0.418820	0.631348	-0.218652
1.900	5.311665	2.081076	544.395287	-0.996991	-3.751690	-0.443621	0.689148	-0.183137
1.910	5.589513	2.119915	541.819981	-0.844422	-4.044890	-0.475998	0.746538	-0.155849
1.920	5.792169	2.139566	538.503531	-0.731812	-4.320341	-0.509940	0.802287	-0.135897
1.930	5.959261	2.141109	534.654040	-0.651364	-4.571399	-0.540391	0.855020	-0.121829
1.940	6.124497	2.122819	530.510121	-0.594177	-4.789992	-0.564329	0.902903	-0.112001
1.950	6.304103	2.083131	526.317404	-0.552637	-4.966051	-0.581006	0.943547	-0.105001
1.960	6.491282	2.022407	522.310846	-0.522217	-5.088276	-0.591434	0.974185	-0.099982
1.970	6.658285	1.942735	518.703651	-0.502166	-5.145944	-0.597488	0.992078	-0.096812
1.980	6.765407	1.846558	515.682352	-0.494870	-5.131095	-0.600987	0.995011	-0.095964
1.990	6.773926	1.735720	513.405319	-0.504105	-5.040197	-0.603068	0.981719	-0.098188
2.000	6.658452	1.611856	511.998937	-0.532794	-4.874548	-0.603962	0.952062	-0.104062
2.010	6.414297	1.477727	511.545633	-0.581197	-4.639110	-0.603196	0.906881	-0.113616
2.020	6.057210	1.338417	512.063130	-0.646261	-4.340123	-0.600063	0.847576	-0.126207
2.030	5.615472	1.201489	513.481780	-0.722301	-3.982317	-0.594174	0.775552	-0.140667
2.040	5.117158	1.075771	515.631738	-0.802618	-3.566715	-0.585814	0.691718	-0.155657
2.050	4.577716	0.968990	518.251282	-0.881405	-3.089828	-0.575945	0.596203	-0.170073
2.060	3.993665	0.885028	521.021283	-0.955277	-2.544668	-0.565827	0.488400	-0.183347
2.070	3.345937	0.822084	523.621233	-1.023912	-1.923465	-0.556471	0.367339	-0.195544
2.080	2.611876	0.772999	525.793656	-1.089566	-1.221458	-0.548228	0.232308	-0.207223
2.090	1.780805	0.727994	527.399746	-1.155730	-0.440781	-0.540701	0.083576	-0.219137
2.100	0.866682	0.678467	528.450211	-1.225582	0.406727	-0.532974	-0.076966	-0.231920
2.110	-0.087421	0.619633	529.100840	-1.300924	1.298805	-0.523963	-0.245474	-0.245874
2.120	-1.015438	0.550642	529.611251	-1.381933	2.204700	-0.512794	-0.416286	-0.260934
2.130	-1.843887	0.472667	530.275928	-1.467582	3.089559	-0.499124	-0.582632	-0.276758
2.140	-2.512004	0.386753	531.345233	-1.556203	3.920318	-0.483390	-0.737810	-0.292880
2.150	-2.989064	0.292953	532.956865	-1.645854	4.671558	-0.466890	-0.876536	-0.308816
2.160	-3.282191	0.190968	535.094850	-1.734506	5.329671	-0.451651	-0.996024	-0.324149
2.170	-3.431883	0.081333	537.586215	-1.820311	5.894155	-0.440056	-1.096411	-0.338608
2.180	-3.497702	-0.034013	540.137122	-1.902072	6.375679	-0.434318	-1.180381	-0.352146
2.190	-3.540114	-0.152303	542.400591	-1.979690	6.791571	-0.435975	-1.252132	-0.364987
2.200	-3.604829	-0.271120	544.058066	-2.054298	7.160192	-0.445535	-1.316071	-0.377588
2.210	-3.713793	-0.388984	544.891322	-2.127853	7.495955	-0.462336	-1.375679	-0.390510
2.220	-3.864111	-0.504474	544.823932	-2.202196	7.806395	-0.484614	-1.432829	-0.404203
2.230	-4.033838	-0.614341	543.922497	-2.277851	8.091836	-0.509779	-1.487682	-0.418782
2.240	-4.192061	-0.712254	542.361829	-2.353065	8.347327	-0.534862	-1.539070	-0.433855
2.250	-4.309900	-0.789647	540.369319	-2.423622	8.565932	-0.557038	-1.585200	-0.448512
2.260	-4.369449	-0.838594	538.168306	-2.483696	8.742286	-0.574116	-1.624452	-0.461509
2.270	-4.368808	-0.855087	535.937584	-2.527499	8.875416	-0.584915	-1.656054	-0.471603
2.280	-4.322665	-0.840621	533.796074	-2.551041	8.970120	-0.589485	-1.680439	-0.477905
2.290	-4.258584	-0.801093	531.811536	-2.553245	9.036554	-0.589115	-1.699202	-0.480103
2.300	-4.209738	-0.743822	530.023546	-2.535995	9.088213	-0.586027	-1.714681	-0.478468
2.310	-4.205714	-0.674653	528.466820	-2.503172	9.138996	-0.582739	-1.729342	-0.473667
2.320	-4.264171	-0.596772	527.183152	-2.459193	9.200290	-0.581233	-1.745179	-0.466478
2.330	-4.386525	-0.511349	526.217852	-2.407720	9.278938	-0.582248	-1.763326	-0.457552
2.340	-4.559472	-0.418995	525.605802	-2.351031	9.376563	-0.585048	-1.783953	-0.447299
2.350	-4.761526	-0.321064	525.358577	-2.290191	9.490207	-0.587830	-1.806425	-0.435929
2.360	-4.971334	-0.220502	525.463143	-2.225699	9.613721	-0.588610	-1.829571	-0.423569
