Time[s]	Fx[N]	Fy[N]	Fz[N]	Mx[Nm]	My[Nm]	Mz[Nm]	COPx[cm]	COPy[cm]
0.010	3.826712	-1.991289	662.597900	2.641613	-11.826348	-0.261522	1.784845	0.398675
0.020	3.798130	-1.950660	662.352923	2.650424	-11.896844	-0.268578	1.796149	0.400153
0.030	3.782683	-1.923705	662.133285	2.655061	-11.963531	-0.275921	1.806816	0.400986
0.040	3.787696	-1.919232	661.963546	2.652524	-12.023215	-0.283573	1.816296	0.400705
0.050	3.811709	-1.937677	661.864420	2.641683	-12.073842	-0.291182	1.824217	0.399128
0.060	3.845652	-1.971153	661.852185	2.623632	-12.114294	-0.298139	1.830363	0.396408
0.070	3.877073	-2.006547	661.936552	2.601674	-12.143887	-0.303886	1.834600	0.393040
0.080	3.895144	-2.030205	662.116205	2.580984	-12.162040	-0.308262	1.836844	0.389808
0.090	3.894127	-2.032155	662.373924	2.567883	-12.168393	-0.311604	1.837088	0.387679
0.100	3.874016	-2.008401	662.674835	2.568630	-12.163306	-0.314537	1.835486	0.387615
0.110	3.838669	-1.960870	662.970566	2.587918	-12.148446	-0.317566	1.832426	0.390352
0.120	3.792916	-1.895453	663.209269	2.627566	-12.127095	-0.320765	1.828547	0.396190
0.130	3.740213	-1.819072	663.348788	2.685937	-12.103846	-0.323706	1.824658	0.404906
0.140	3.681677	-1.736997	663.368952	2.758372	-12.083612	-0.325619	1.821552	0.415813
0.150	3.616602	-1.651579	663.278850	2.838496	-12.070225	-0.325655	1.819781	0.427949
0.160	3.544128	-1.563017	663.115418	2.919906	-12.065210	-0.323136	1.819474	0.440332
0.170	3.465367	-1.471668	662.931890	2.997533	-12.067399	-0.317754	1.820307	0.452163
0.180	3.384897	-1.380445	662.778872	3.068226	-12.073670	-0.309713	1.821674	0.462934
0.190	3.310550	-1.295618	662.685259	3.130476	-12.080514	-0.299859	1.822964	0.472393
0.200	3.251152	-1.225337	662.647738	3.183650	-12.085698	-0.289753	1.823850	0.480444
0.210	3.213158	-1.176659	662.634728	3.227260	-12.089228	-0.281553	1.824418	0.487034
0.220	3.198011	-1.152762	662.604039	3.260725	-12.093250	-0.277534	1.825110	0.492108
0.230	3.202025	-1.151889	662.526198	3.283744	-12.101076	-0.279250	1.826505	0.495640
0.240	3.219132	-1.168443	662.401799	3.296945	-12.115882	-0.286674	1.829084	0.497726
0.250	3.244927	-1.195368	662.263992	3.302264	-12.139702	-0.297846	1.833061	0.498633
0.260	3.279379	-1.226350	662.165104	3.302662	-12.173085	-0.309387	1.838376	0.498767
0.270	3.326444	-1.256871	662.154234	3.301256	-12.215477	-0.317766	1.844808	0.498563
0.280	3.391013	-1.284218	662.256362	3.300267	-12.265971	-0.320706	1.852149	0.498337
0.290	3.475428	-1.307133	662.461747	3.300404	-12.323936	-0.318037	1.860324	0.498203
0.300	3.577669	-1.325580	662.729087	3.301124	-12.389140	-0.311612	1.869412	0.498111
0.310	3.691793	-1.340563	662.999930	3.301652	-12.461365	-0.304434	1.879542	0.497987
0.320	3.809690	-1.353663	663.217300	3.302052	-12.539828	-0.299456	1.890757	0.497884
0.330	3.922860	-1.366187	663.340225	3.303600	-12.622846	-0.298539	1.902922	0.498025
0.340	4.023583	-1.378156	663.349125	3.308292	-12.707949	-0.301910	1.915726	0.498726
0.350	4.105716	-1.387690	663.243317	3.318023	-12.792330	-0.308268	1.928754	0.500272
0.360	4.165615	-1.391242	663.036539	3.334126	-12.873264	-0.315491	1.941562	0.502857
0.370	4.203164	-1.384652	662.755357	3.357611	-12.948277	-0.321587	1.953704	0.506614
0.380	4.222274	-1.364571	662.439963	3.389777	-13.015068	-0.325438	1.964717	0.511711
0.390	4.230051	-1.329691	662.142461	3.432592	-13.071424	-0.326992	1.974111	0.518407
0.400	4.234481	-1.281336	661.918137	3.488327	-13.115266	-0.326937	1.981403	0.527003
0.410	4.241341	-1.223193	661.810403	3.558511	-13.144911	-0.326103	1.986205	0.537693
0.420	4.251716	-1.160234	661.835876	3.642772	-13.159499	-0.324938	1.988333	0.550404
0.430	4.261346	-1.097195	661.977885	3.738274	-13.159473	-0.323298	1.987902	0.564713
0.440	4.262213	-1.037274	662.192480	3.840055	-13.146938	-0.320635	1.985365	0.579900
0.450	4.245776	-0.981711	662.423910	3.942126	-13.125665	-0.316488	1.981460	0.595106
0.460	4.206661	-0.930565	662.621742	4.038847	-13.100629	-0.310969	1.977090	0.609525
0.470	4.145464	-0.884285	662.752408	4.126031	-13.077097	-0.304970	1.973150	0.622560
0.480	4.069710	-0.845023	662.802232	4.201353	-13.059520	-0.299948	1.970349	0.633877
0.490	3.992607	-0.816641	662.773509	4.263950	-13.050608	-0.297357	1.969090	0.643349
0.500	3.929871	-0.803154	662.677910	4.313558	-13.050884	-0.298030	1.969416	0.650928
0.510	3.895455	-0.806520	662.531867	4.349841	-13.058825	-0.301816	1.971049	0.656548
0.520	3.897526	-0.825228	662.356451	4.372431	-13.071416	-0.307681	1.973472	0.660133
0.530	3.936014	-0.854559	662.180420	4.381662	-13.084848	-0.314233	1.976025	0.661702
0.540	4.002536	-0.888176	662.041775	4.379405	-13.095157	-0.320365	1.977996	0.661500
0.550	4.082678	-0.919850	661.982958	4.369319	-13.098743	-0.325658	1.978713	0.660035
0.560	4.159811	-0.944368	662.038498	4.356327	-13.092815	-0.330355	1.977652	0.658017
0.570	4.219076	-0.957554	662.219215	4.345701	-13.075835	-0.335016	1.974548	0.656233
0.580	4.250266	-0.955908	662.500669	4.342240	-13.047899	-0.340089	1.969492	0.655432
0.590	4.249038	-0.936514	662.823140	4.349705	-13.010828	-0.345574	1.962941	0.656239
0.600	4.216615	-0.897641	663.105957	4.370464	-12.967698	-0.350915	1.955600	0.659090
0.610	4.158427	-0.840014	663.272260	4.405228	-12.921842	-0.355129	1.948196	0.664166
0.620	4.082168	-0.768070	663.274691	4.452907	-12.875740	-0.357132	1.941238	0.671352
0.630	3.995771	-0.690127	663.111636	4.510663	-12.830396	-0.356132	1.934877	0.680227
0.640	3.905648	-0.616823	662.827680	4.574298	-12.785456	-0.351978	1.928926	0.690119
0.650	3.815413	-0.558136	662.498399	4.639051	-12.739849	-0.345294	1.923001	0.700236
0.660	3.725410	-0.520139	662.205458	4.700635	-12.692435	-0.337292	1.916691	0.709845
0.670	3.633374	-0.502877	662.011535	4.756178	-12.642359	-0.329275	1.909689	0.718443
0.680	3.536182	-0.500451	661.944077	4.804742	-12.589125	-0.322046	1.901841	0.725853
0.690	3.431999	-0.503503	661.992624	4.847269	-12.532544	-0.315567	1.893155	0.732224
0.700	3.321818	-0.502973	662.118910	4.885958	-12.472649	-0.309085	1.883748	0.737928
0.710	3.209596	-0.493222	662.274491	4.923207	-12.409583	-0.301649	1.873782	0.743379
0.720	3.100958	-0.473216	662.418481	4.960510	-12.343572	-0.292745	1.863410	0.748848
0.730	3.001244	-0.445760	662.528648	4.997836	-12.275064	-0.282704	1.852760	0.754358
0.740	2.913956	-0.415660	662.602873	5.033815	-12.205020	-0.272705	1.841981	0.759703
0.750	2.840369	-0.387781	662.652815	5.066548	-12.135066	-0.264405	1.831286	0.764586
0.760	2.780339	-0.365549	662.694538	5.094495	-12.067348	-0.259385	1.820952	0.768755
0.770	2.733742	-0.350176	662.740511	5.116960	-12.004156	-0.258628	1.811291	0.772091
0.780	2.701707	-0.340697	662.794903	5.134001	-11.947591	-0.262198	1.802607	0.774599
0.790	2.686969	-0.334821	662.852107	5.145902	-11.899415	-0.269216	1.795184	0.776327
0.800	2.693149	-0.330220	662.898049	5.152548	-11.861061	-0.278150	1.789274	0.777276
0.810	2.723155	-0.325644	662.914487	5.153131	-11.833629	-0.287295	1.785091	0.777345
0.820	2.777362	-0.321373	662.886488	5.146432	-11.817731	-0.295244	1.782768	0.776367
0.830	2.852439	-0.319008	662.811737	5.131493	-11.813127	-0.301133	1.782275	0.774201
0.840	2.941399	-0.320863	662.707723	5.108308	-11.818353	-0.304602	1.783343	0.770824
0.850	3.034820	-0.329179	662.611592	5.078201	-11.830674	-0.305599	1.785461	0.766392
0.860	3.122619	-0.345197	662.569717	5.043876	-11.846578	-0.304255	1.787975	0.761260
0.870	3.195673	-0.368248	662.619480	5.009233	-11.862618	-0.300939	1.790261	0.755974
0.880	3.246955	-0.395325	662.770527	4.978966	-11.876115	-0.296363	1.791889	0.751235
0.890	3.272311	-0.421680	662.994118	4.957805	-11.885373	-0.291495	1.792681	0.747790
0.900	3.271120	-0.442632	663.226873	4.949402	-11.889462	-0.287233	1.792669	0.746261
0.910	3.246589	-0.455991	663.390089	4.955260	-11.887916	-0.284014	1.791995	0.746960
0.920	3.204980	-0.463738	663.418815	4.974226	-11.880638	-0.281634	1.790820	0.749787
0.930	3.153486	-0.471541	663.288839	5.002841	-11.868118	-0.279384	1.789284	0.754248
0.940	3.097678	-0.485892	663.028967	5.036332	-11.851864	-0.276430	1.787533	0.759595
0.950	3.040152	-0.510393	662.712391	5.069746	-11.834745	-0.272239	1.785804	0.764999
0.960	2.981316	-0.543561	662.431155	5.098807	-11.820918	-0.266859	1.784475	0.769711
0.970	2.921734	-0.579529	662.265253	5.120380	-11.815155	-0.260957	1.784052	0.773161
0.980	2.864479	-0.611065	662.258355	5.132748	-11.821752	-0.255623	1.785067	0.775037
0.990	2.816140	-0.632984	662.407266	5.135846	-11.843524	-0.252064	1.787952	0.775331
1.000	2.785841	-0.644170	662.666179	5.131365	-11.881322	-0.251285	1.792957	0.774351
1.010	2.782665	-0.647578	662.962259	5.122435	-11.934173	-0.253877	1.800129	0.772659
1.020	2.812607	-0.648678	663.216736	5.112693	-11.999753	-0.259971	1.809326	0.770893
1.030	2.876449	-0.653125	663.365430	5.104958	-12.074868	-0.269346	1.820244	0.769554
1.040	2.969338	-0.664404	663.374012	5.100117	-12.155768	-0.281553	1.832415	0.768815
1.050	3.081901	-0.682082	663.245055	5.096875	-12.238362	-0.295912	1.845225	0.768475
1.060	3.202103	-0.701384	663.015691	5.092582	-12.318459	-0.311394	1.857944	0.768094
1.070	3.317111	-0.714584	662.746766	5.084736	-12.392075	-0.326546	1.869805	0.767222
1.080	3.414890	-0.713989	662.506750	5.072340	-12.455786	-0.339655	1.880099	0.765628
1.090	3.485675	-0.695321	662.355017	5.056355	-12.507049	-0.349138	1.888270	0.763390
1.100	3.523324	-0.659825	662.328461	5.039027	-12.544549	-0.353993	1.894007	0.760805
1.110	3.526213	-0.613971	662.433358	5.022574	-12.568610	-0.354059	1.897340	0.758201
1.120	3.497260	-0.566828	662.643364	5.008139	-12.581566	-0.349969	1.898693	0.755782
1.130	3.443104	-0.526373	662.904791	4.995646	-12.587781	-0.342871	1.898882	0.753599
1.140	3.372954	-0.496441	663.149687	4.984500	-12.593107	-0.334088	1.898984	0.751640
1.150	3.297605	-0.475688	663.314415	4.974461	-12.603803	-0.324891	1.900125	0.749940
1.160	3.228576	-0.459041	663.358004	4.965980	-12.625151	-0.316389	1.903218	0.748612
1.170	3.176937	-0.440939	663.273688	4.959756	-12.660097	-0.309468	1.908729	0.747769
1.180	3.151618	-0.418867	663.089438	4.955841	-12.708419	-0.304747	1.916547	0.747387
1.190	3.157652	-0.395507	662.857496	4.952907	-12.766854	-0.302567	1.926033	0.747205
1.200	3.195226	-0.378411	662.636957	4.948084	-12.830209	-0.302976	1.936235	0.746726
1.210	3.260034	-0.377219	662.475986	4.937450	-12.893005	-0.305660	1.946184	0.745302
1.220	3.344742	-0.399604	662.400259	4.916924	-12.950988	-0.309837	1.955160	0.742289
1.230	3.440822	-0.447749	662.410702	4.883319	-13.002033	-0.314292	1.962836	0.737204
1.240	3.540011	-0.516878	662.488602	4.835352	-13.046264	-0.317702	1.969281	0.729877
1.250	3.635094	-0.596431	662.603362	4.774394	-13.085539	-0.319177	1.974868	0.720551
1.260	3.720250	-0.673343	662.719532	4.704682	-13.122614	-0.318717	1.980116	0.709905
1.270	3.791443	-0.736211	662.803080	4.632704	-13.160216	-0.317328	1.985539	0.698956
1.280	3.847025	-0.778896	662.828540	4.565769	-13.200102	-0.316661	1.991481	0.688831
1.290	3.888214	-0.802289	662.786920	4.510092	-13.242203	-0.318331	1.997958	0.680474
1.300	3.918926	-0.813602	662.691013	4.469025	-13.284171	-0.323241	2.004580	0.674375
1.310	3.944714	-0.823344	662.573757	4.442075	-13.321711	-0.331222	2.010600	0.670427
1.320	3.970926	-0.841098	662.477953	4.425166	-13.349892	-0.341096	2.015145	0.667972
1.330	4.000634	-0.871754	662.440260	4.412073	-13.365036	-0.351019	2.017546	0.666033
1.340	4.033088	-0.913795	662.476109	4.396466	-13.366311	-0.358966	2.017629	0.663641
1.350	4.063440	-0.960307	662.572791	4.373738	-13.356192	-0.363245	2.015808	0.660114
1.360	4.084037	-1.002161	662.694700	4.341995	-13.339514	-0.363030	2.012920	0.655203
1.370	4.086967	-1.031840	662.798597	4.302027	-13.321585	-0.358733	2.009899	0.649070
1.380	4.066899	-1.046250	662.851039	4.256441	-13.306208	-0.352005	2.007420	0.642141
1.390	4.022960	-1.047604	662.838814	4.208414	-13.294449	-0.345219	2.005684	0.634908
1.400	3.958866	-1.042533	662.768162	4.160556	-13.284623	-0.340570	2.004415	0.627754
1.410	3.881611	-1.040243	662.656444	4.114292	-13.273397	-0.339155	2.003059	0.620879
1.420	3.799753	-1.050336	662.524427	4.069963	-13.257497	-0.340469	2.001058	0.614311
1.430	3.722087	-1.080487	662.394545	4.027558	-13.235292	-0.342531	1.998098	0.608030
1.440	3.656628	-1.134070	662.293130	3.987658	-13.207738	-0.342585	1.994243	0.602099
1.450	3.609405	-1.208271	662.250048	3.952048	-13.178427	-0.338076	1.989947	0.596761
1.460	3.582960	-1.293628	662.291082	3.923569	-13.152842	-0.327557	1.985961	0.592424
1.470	3.575250	-1.375670	662.424736	3.905161	-13.137021	-0.311231	1.983172	0.589525
1.480	3.579952	-1.438473	662.630366	3.898556	-13.136006	-0.290971	1.982403	0.588346
1.490	3.588576	-1.469020	662.855392	3.903280	-13.152469	-0.269818	1.984214	0.588858
1.500	3.593776	-1.460749	663.026008	3.916520	-13.185870	-0.251134	1.988741	0.590704
1.510	3.592551	-1.414958	663.070159	3.934015	-13.232405	-0.237686	1.995627	0.593303
1.520	3.587882	-1.339672	662.945216	3.951550	-13.285789	-0.231009	2.004055	0.596060
1.530	3.587625	-1.246693	662.658607	3.966335	-13.338649	-0.231196	2.012899	0.598549
1.540	3.600527	-1.148309	662.270769	3.977647	-13.384030	-0.237103	2.020930	0.600607
1.550	3.630930	-1.054871	661.877349	3.986529	-13.416574	-0.246785	2.027048	0.602306
1.560	3.675077	-0.973666	661.577946	3.994846	-13.433183	-0.257993	2.030476	0.603836
1.570	3.721439	-0.908752	661.445451	4.004169	-13.433210	-0.268620	2.030887	0.605367
1.580	3.755285	-0.861311	661.508436	4.014905	-13.418287	-0.277049	2.028438	0.606932
1.590	3.765118	-0.830328	661.750819	4.025947	-13.391872	-0.282349	2.023703	0.608378
1.600	3.747538	-0.813596	662.124071	4.035003	-13.358632	-0.284294	2.017542	0.609403
1.610	3.708225	-0.808937	662.563057	4.039457	-13.323763	-0.283236	2.010943	0.609671
1.620	3.659136	-0.815241	662.998691	4.037375	-13.292309	-0.279927	2.004877	0.608957
1.630	3.613746	-0.832702	663.365989	4.028167	-13.268488	-0.275357	2.000176	0.607231
1.640	3.582544	-0.861956	663.610130	4.012693	-13.255074	-0.270661	1.997419	0.604676
1.650	3.570420	-0.902457	663.693464	3.992851	-13.253026	-0.267024	1.996859	0.601611
1.660	3.576605	-0.950977	663.603724	3.970924	-13.261522	-0.265538	1.998410	0.598388
1.670	3.596715	-1.001127	663.360750	3.948999	-13.278455	-0.267009	2.001694	0.595302
1.680	3.625531	-1.044282	663.017607	3.928701	-13.301215	-0.271722	2.006163	0.592549
1.690	3.659116	-1.071742	662.652725	3.911240	-13.327470	-0.279280	2.011230	0.590240
1.700	3.695484	-1.077434	662.352332	3.897618	-13.355617	-0.288577	2.016392	0.588451
1.710	3.733879	-1.060170	662.186661	3.888756	-13.384748	-0.297984	2.021295	0.587260
1.720	3.773455	-1.024395	662.187693	3.885416	-13.414228	-0.305760	2.025744	0.586754
1.730	3.812312	-0.978932	662.337966	3.887912	-13.443253	-0.310630	2.029667	0.586998
1.740	3.847483	-0.934124	662.576657	3.895719	-13.470712	-0.312341	2.033080	0.587965
1.750	3.875868	-0.898576	662.821718	3.907215	-13.495422	-0.311928	2.036056	0.589482
1.760	3.895598	-0.876807	662.999215	3.919795	-13.516436	-0.311458	2.038681	0.591222
1.770	3.907109	-0.868666	663.067420	3.930410	-13.533108	-0.313264	2.040985	0.592762
1.780	3.913319	-0.870551	663.025715	3.936379	-13.544746	-0.318977	2.042869	0.593699
1.790	3.918579	-0.877637	662.906128	3.936180	-13.550048	-0.328824	2.044037	0.593776
1.800	3.926429	-0.885941	662.754136	3.929994	-13.546754	-0.341509	2.044009	0.592979
1.810	3.937018	-0.893361	662.609687	3.919830	-13.531925	-0.354711	2.042217	0.591575
1.820	3.945764	-0.899657	662.496889	3.909113	-13.502964	-0.365895	2.038193	0.590058
1.830	3.944517	-0.905812	662.424245	3.901719	-13.458969	-0.373088	2.031775	0.589006
1.840	3.924854	-0.913144	662.391538	3.900694	-13.401752	-0.375324	2.023237	0.588880
1.850	3.881665	-0.922441	662.397205	3.907159	-13.335962	-0.372719	2.013288	0.589851
1.860	3.815069	-0.933408	662.441612	3.919945	-13.268290	-0.366250	2.002937	0.591742
1.870	3.730079	-0.944740	662.525472	3.936169	-13.206098	-0.357365	1.993297	0.594116
1.880	3.634808	-0.954825	662.645761	3.952406	-13.155896	-0.347535	1.985359	0.596458
1.890	3.538552	-0.962754	662.791917	3.965664	-13.122050	-0.337890	1.979814	0.598327
1.900	3.450533	-0.969036	662.944003	3.973501	-13.105957	-0.329047	1.976933	0.599372
1.910	3.379195	-0.975489	663.074026	3.973394	-13.105871	-0.321175	1.976532	0.599238
1.920	3.331408	-0.984306	663.151595	3.962192	-13.117480	-0.314224	1.978051	0.597479
1.930	3.311208	-0.996868	663.153504	3.936502	-13.135123	-0.308138	1.980706	0.593603
1.940	3.318520	-1.013099	663.073789	3.894104	-13.153308	-0.302939	1.983687	0.587281
1.950	3.348726	-1.031736	662.929205	3.835551	-13.168041	-0.298727	1.986342	0.578576
1.960	3.393597	-1.051253	662.756807	3.764901	-13.177555	-0.295692	1.988294	0.568067
1.970	3.443305	-1.070790	662.603940	3.688990	-13.182300	-0.294131	1.989469	0.556741
1.980	3.488787	-1.090522	662.514119	3.615484	-13.184453	-0.294403	1.990064	0.545722
1.990	3.523897	-1.111271	662.513984	3.550539	-13.187361	-0.296771	1.990503	0.535919
2.000	3.547066	-1.133708	662.606021	3.497093	-13.195108	-0.301166	1.991396	0.527779
2.010	3.562111	-1.157679	662.768991	3.454545	-13.212123	-0.306988	1.993473	0.521229
2.020	3.577707	-1.181954	662.964286	3.419872	-13.242659	-0.313099	1.997492	0.515846
2.030	3.605328	-1.204399	663.144794	3.389504	-13.290084	-0.318055	2.004100	0.511126
2.040	3.656206	-1.222481	663.263994	3.360988	-13.356073	-0.320535	2.013689	0.506735
2.050	3.738179	-1.234035	663.284959	3.333749	-13.439913	-0.319791	2.026265	0.502612
2.060	3.853252	-1.238073	663.189309	3.308841	-13.538227	-0.315933	2.041382	0.498929
2.070	3.996464	-1.235199	662.984472	3.288037	-13.645367	-0.309844	2.058173	0.495945
2.080	4.156434	-1.227322	662.705603	3.272731	-13.754429	-0.302750	2.075496	0.493844
2.090	4.317380	-1.216977	662.408645	3.263012	-13.858536	-0.295662	2.092143	0.492598
2.100	4.462104	-1.206946	662.154807	3.257225	-13.951949	-0.289033	2.107052	0.491913
2.110	4.575302	-1.200522	661.992235	3.252305	-14.030775	-0.282808	2.119477	0.491291
2.120	4.646686	-1.201871	661.942813	3.244866	-14.093360	-0.276819	2.129090	0.490203
2.130	4.673383	-1.215415	661.998779	3.232648	-14.140535	-0.271217	2.136036	0.488316
2.140	4.661182	-1.243827	662.128661	3.215693	-14.175655	-0.266675	2.140921	0.485660
2.150	4.624265	-1.285477	662.289282	3.196796	-14.204205	-0.264209	2.144713	0.482689
2.160	4.583110	-1.332944	662.439803	3.181111	-14.232731	-0.264750	2.148532	0.480211
2.170	4.560460	-1.373813	662.553061	3.175040	-14.267217	-0.268700	2.153370	0.479213
2.180	4.575940	-1.393679	662.619935	3.184632	-14.311351	-0.275688	2.159813	0.480612
2.190	4.640729	-1.380200	662.645981	3.213827	-14.365280	-0.284610	2.167866	0.484999
2.200	4.753906	-1.326780	662.643908	3.263066	-14.425299	-0.293910	2.176931	0.492431
2.210	4.901797	-1.234878	662.626525	3.328786	-14.484546	-0.301990	2.185929	0.502362
2.220	5.060966	-1.114470	662.601979	3.404058	-14.534387	-0.307639	2.193532	0.513741
2.230	5.204375	-0.982531	662.570530	3.480145	-14.566095	-0.310319	2.198422	0.525249
2.240	5.308890	-0.859700	662.522916	3.548423	-14.572434	-0.310243	2.199537	0.535592
2.250	5.361333	-0.765795	662.442879	3.602092	-14.548827	-0.308282	2.196239	0.543759
2.260	5.360784	-0.715308	662.316107	3.637290	-14.493860	-0.305792	2.188360	0.549177
2.270	5.316403	-0.714226	662.143346	3.653492	-14.409028	-0.304379	2.176119	0.551768
2.280	5.242006	-0.759067	661.950425	3.653171	-14.297839	-0.305546	2.159956	0.551880
2.290	5.149847	-0.838242	661.787135	3.640848	-14.164605	-0.310244	2.140357	0.550154
2.300	5.046177	-0.935091	661.711851	3.621799	-14.013357	-0.318491	2.117743	0.547338
2.310	4.930149	-1.031626	661.767192	3.600812	-13.847320	-0.329238	2.092476	0.544121
2.320	4.796086	-1.111999	661.958918	3.581322	-13.669070	-0.340574	2.064942	0.541019
2.330	4.637825	-1.165057	662.250162	3.565077	-13.481179	-0.350217	2.035663	0.538328
2.340	4.453269	-1.185732	662.574893	3.552287	-13.286932	-0.356177	2.005348	0.536134
2.350	4.247561	-1.175281	662.863722	3.542115	-13.090744	-0.357355	1.974877	0.534366
2.360	4.033897	-1.140530	663.068922	3.533243	-12.898112	-0.353857	1.945214	0.532862
2.370	3.831647	-1.092339	663.177005	3.524293	-12.715175	-0.346926	1.917312	0.531426
