Time[s]	Fx[N]	Fy[N]	Fz[N]	Mx[Nm]	My[Nm]	Mz[Nm]	COPx[cm]	COPy[cm]
0.010	2.875650	-1.163172	465.671657	9.849468	13.724388	-0.483933	-2.947224	2.115110
0.020	2.826835	-1.190302	466.049049	9.815252	13.752579	-0.477566	-2.950887	2.106056
0.030	2.767942	-1.219683	466.332182	9.786199	13.784661	-0.470077	-2.955975	2.098547
0.040	2.693203	-1.253916	466.457614	9.764928	13.823089	-0.461100	-2.963418	2.093422
0.050	2.604396	-1.295252	466.410238	9.750391	13.868673	-0.451291	-2.973493	2.090518
0.060	2.510219	-1.344760	466.221992	9.738173	13.920794	-0.442054	-2.985873	2.088742
0.070	2.422503	-1.401915	465.955318	9.722096	13.978244	-0.434881	-2.999911	2.086487
0.080	2.350879	-1.464975	465.680892	9.696382	14.040204	-0.430694	-3.014984	2.082194
0.090	2.298156	-1.531940	465.459079	9.657461	14.106834	-0.429542	-3.030736	2.074825
0.100	2.258557	-1.601589	465.330086	9.604747	14.179280	-0.430734	-3.047144	2.064072
0.110	2.219697	-1.674085	465.312416	9.540155	14.259252	-0.433198	-3.064447	2.050269
0.120	2.167350	-1.750861	465.405994	9.466645	14.348490	-0.435838	-3.083005	2.034062
0.130	2.090774	-1.834019	465.596184	9.386438	14.448287	-0.437804	-3.103180	2.016004
0.140	1.986262	-1.925756	465.856988	9.299749	14.559095	-0.438687	-3.125228	1.996267
0.150	1.857699	-2.028103	466.154312	9.204653	14.680222	-0.438663	-3.149219	1.974593
0.160	1.714439	-2.142692	466.451117	9.098196	14.809709	-0.438472	-3.174976	1.950514
0.170	1.567882	-2.270106	466.714702	8.978235	14.944521	-0.439140	-3.202068	1.923709
0.180	1.428488	-2.408729	466.923451	8.845094	15.081017	-0.441524	-3.229869	1.894335
0.190	1.304279	-2.553702	467.068970	8.702153	15.215452	-0.445878	-3.257646	1.863141
0.200	1.200742	-2.696826	467.151651	8.554986	15.344151	-0.451680	-3.284619	1.831308
0.210	1.121377	-2.827873	467.172238	8.409434	15.463351	-0.457787	-3.309989	1.800071
0.220	1.068255	-2.937108	467.125411	8.269652	15.569064	-0.462832	-3.332952	1.770328
0.230	1.042455	-3.018247	467.000567	8.137111	15.657358	-0.465669	-3.352749	1.742420
0.240	1.044308	-3.070755	466.790048	8.011000	15.725162	-0.465693	-3.368787	1.716189
0.250	1.073135	-3.100423	466.499541	7.889630	15.771269	-0.462960	-3.380768	1.691241
0.260	1.126267	-3.117738	466.153784	7.771970	15.797017	-0.458087	-3.388799	1.667255
0.270	1.197973	-3.134552	465.794448	7.658484	15.806279	-0.451971	-3.393402	1.644177
0.280	1.279473	-3.160260	465.472201	7.551014	15.804759	-0.445445	-3.395425	1.622227
0.290	1.360719	-3.198945	465.236570	7.452035	15.798909	-0.439047	-3.395887	1.601773
0.300	1.433247	-3.248558	465.125537	7.363868	15.794838	-0.432957	-3.395823	1.583200
0.310	1.492537	-3.302444	465.156028	7.288251	15.797428	-0.427091	-3.396157	1.566840
0.320	1.538593	-3.352579	465.317775	7.226280	15.809740	-0.421233	-3.397622	1.552977
0.330	1.574616	-3.393129	465.573881	7.178437	15.832737	-0.415178	-3.400693	1.541847
0.340	1.604672	-3.422749	465.869640	7.144515	15.865349	-0.408856	-3.405534	1.533587
0.350	1.631501	-3.444632	466.147749	7.123450	15.904866	-0.402430	-3.411980	1.528153
0.360	1.655361	-3.464349	466.364956	7.113279	15.947546	-0.396339	-3.419542	1.525260
0.370	1.674249	-3.486778	466.503659	7.111353	15.989332	-0.391237	-3.427483	1.524394
0.380	1.685273	-3.513830	466.573403	7.114786	16.026613	-0.387843	-3.434961	1.524902
0.390	1.686423	-3.544093	466.601657	7.120990	16.056956	-0.386751	-3.441256	1.526139
0.400	1.677780	-3.574043	466.618652	7.128143	16.079671	-0.388278	-3.445998	1.527616
0.410	1.661487	-3.599659	466.644029	7.135539	16.095942	-0.392395	-3.449298	1.529118
0.420	1.640482	-3.617486	466.681505	7.143799	16.108342	-0.398684	-3.451678	1.530765
0.430	1.616785	-3.625080	466.722411	7.154917	16.119800	-0.406284	-3.453830	1.533013
0.440	1.590482	-3.621194	466.753320	7.171969	16.132377	-0.413871	-3.456296	1.536565
0.450	1.560168	-3.605915	466.761730	7.198314	16.146387	-0.419854	-3.459235	1.542182
0.460	1.524667	-3.580659	466.737686	7.236358	16.160275	-0.422843	-3.462389	1.550412
0.470	1.485007	-3.547905	466.673786	7.286290	16.171399	-0.422266	-3.465247	1.561324
0.480	1.445339	-3.510721	466.566624	7.345473	16.177405	-0.418797	-3.467330	1.574367
0.490	1.412171	-3.472149	466.420072	7.408929	16.177474	-0.414295	-3.468434	1.588467
0.500	1.392347	-3.434567	466.248326	7.470824	16.172693	-0.411195	-3.468687	1.602327
0.510	1.390773	-3.399141	466.075819	7.526262	16.165319	-0.411618	-3.468388	1.614815
0.520	1.408719	-3.365625	465.932346	7.572609	16.157488	-0.416616	-3.467776	1.625259
0.530	1.443069	-3.332677	465.844491	7.609878	16.150244	-0.425909	-3.466874	1.633566
0.540	1.486732	-3.298512	465.826942	7.640184	16.143434	-0.438146	-3.465543	1.640134
0.550	1.530226	-3.261478	465.877659	7.666526	16.136370	-0.451524	-3.463650	1.645609
0.560	1.564161	-3.220254	465.979167	7.691438	16.128634	-0.464403	-3.461235	1.650597
0.570	1.581756	-3.173858	466.105346	7.716196	16.120423	-0.475676	-3.458536	1.655462
0.580	1.580445	-3.121895	466.230182	7.740978	16.112250	-0.484832	-3.455857	1.660334
0.590	1.562097	-3.065140	466.334259	7.765783	16.104255	-0.491846	-3.453372	1.665282
0.600	1.532128	-3.006099	466.407229	7.791383	16.095596	-0.497038	-3.450975	1.670511
0.610	1.498030	-2.949025	466.447447	7.819573	16.084328	-0.500886	-3.448262	1.676410
0.620	1.467648	-2.899122	466.460628	7.852481	16.067846	-0.503773	-3.444631	1.683418
0.630	1.447390	-2.860941	466.457781	7.891388	16.043720	-0.505738	-3.439479	1.691769
0.640	1.440720	-2.836456	466.451654	7.935821	16.010513	-0.506384	-3.432406	1.701317
0.650	1.447589	-2.823729	466.451948	7.983559	15.968280	-0.505071	-3.423349	1.711550
0.660	1.465206	-2.817200	466.461511	8.031531	15.918604	-0.501333	-3.412630	1.721799
0.670	1.489827	-2.809871	466.476142	8.077048	15.864271	-0.495286	-3.400875	1.731503
0.680	1.518487	-2.796336	466.488379	8.118681	15.808682	-0.487757	-3.388869	1.740382
0.690	1.549714	-2.774953	466.492471	8.156426	15.755164	-0.480037	-3.377367	1.748458
0.700	1.583137	-2.748037	466.486812	8.191184	15.706306	-0.473392	-3.366935	1.755930
0.710	1.618712	-2.720283	466.472593	8.223919	15.663495	-0.468591	-3.357860	1.763002
0.720	1.656343	-2.696565	466.450451	8.254967	15.626800	-0.465640	-3.350152	1.769742
0.730	1.696120	-2.680178	466.417832	8.283762	15.595267	-0.463770	-3.343626	1.776039
0.740	1.738717	-2.671993	466.368723	8.308996	15.567531	-0.461687	-3.338031	1.781637
0.750	1.785267	-2.670533	466.296230	8.329047	15.542465	-0.458023	-3.333174	1.786214
0.760	1.836519	-2.672807	466.197366	8.342545	15.519592	-0.451914	-3.328975	1.789488
0.770	1.891825	-2.675642	466.077731	8.348946	15.499124	-0.443484	-3.325438	1.791320
0.780	1.948861	-2.677039	465.952883	8.348913	15.481702	-0.433956	-3.322590	1.791793
0.790	2.004528	-2.677062	465.845153	8.344322	15.468035	-0.425250	-3.320424	1.791222
0.800	2.056687	-2.677935	465.778170	8.337858	15.458632	-0.419191	-3.318883	1.790092
0.810	2.105608	-2.683274	465.772609	8.332366	15.453679	-0.416724	-3.317859	1.788934
0.820	2.153988	-2.696747	465.844071	8.330154	15.452927	-0.417496	-3.317189	1.788185
0.830	2.205255	-2.720616	466.000867	8.332423	15.455543	-0.420018	-3.316634	1.788070
0.840	2.261216	-2.754461	466.239644	8.338935	15.460015	-0.422318	-3.315894	1.788551
0.850	2.320697	-2.794372	466.540086	8.348049	15.464296	-0.422827	-3.314677	1.789353
0.860	2.379987	-2.833054	466.863174	8.357306	15.466315	-0.421080	-3.312815	1.790097
0.870	2.434585	-2.861338	467.157342	8.364497	15.464664	-0.417955	-3.310376	1.790510
0.880	2.480950	-2.870993	467.372493	8.368664	15.459092	-0.415318	-3.307660	1.790577
0.890	2.517370	-2.857834	467.476011	8.370348	15.450486	-0.415289	-3.305086	1.790541
0.900	2.543948	-2.823645	467.462551	8.370901	15.440294	-0.419428	-3.303001	1.790710
0.910	2.562338	-2.775727	467.352410	8.371372	15.429709	-0.428159	-3.301515	1.791233
0.920	2.575625	-2.724054	467.179606	8.371828	15.419054	-0.440607	-3.300455	1.791993
0.930	2.588062	-2.677368	466.976338	8.371527	15.407731	-0.454863	-3.299467	1.792709
0.940	2.604134	-2.640129	466.762070	8.369693	15.394802	-0.468567	-3.298212	1.793139
0.950	2.626791	-2.611651	466.542458	8.366267	15.379912	-0.479573	-3.296573	1.793249
0.960	2.655519	-2.587621	466.317524	8.362207	15.364115	-0.486473	-3.294775	1.793243
0.970	2.685387	-2.563126	466.093079	8.359336	15.350184	-0.488831	-3.293373	1.793491
0.980	2.707966	-2.535711	465.887770	8.359892	15.342241	-0.487121	-3.293119	1.794400
0.990	2.714143	-2.507015	465.731438	8.365968	15.344825	-0.482445	-3.294780	1.796307
1.000	2.697831	-2.482233	465.656057	8.379017	15.361664	-0.476128	-3.298929	1.799400
1.010	2.658910	-2.467812	465.684119	8.399603	15.394492	-0.469327	-3.305780	1.803713
1.020	2.603915	-2.468619	465.819196	8.427386	15.442269	-0.462775	-3.315078	1.809154
1.030	2.543975	-2.485937	466.041261	8.461195	15.501125	-0.456740	-3.326127	1.815546
1.040	2.490843	-2.517096	466.307776	8.499113	15.565195	-0.451138	-3.337966	1.822640
1.050	2.452705	-2.556777	466.561015	8.538691	15.628229	-0.445699	-3.349665	1.830134
1.060	2.431525	-2.599361	466.741039	8.577343	15.685428	-0.440060	-3.360627	1.837709
1.070	2.422901	-2.641247	466.801260	8.612808	15.734703	-0.433796	-3.370750	1.845070
1.080	2.418288	-2.682111	466.721571	8.643494	15.776845	-0.426454	-3.380355	1.851959
1.090	2.408563	-2.724599	466.514712	8.668612	15.814686	-0.417735	-3.389965	1.858165
1.100	2.387628	-2.772733	466.224573	8.688127	15.851860	-0.407772	-3.400048	1.863507
1.110	2.354974	-2.829702	465.917552	8.702552	15.891736	-0.397318	-3.410847	1.867831
1.120	2.316454	-2.895736	465.668310	8.712583	15.936749	-0.387661	-3.422339	1.870985
1.130	2.282928	-2.966627	465.541638	8.718599	15.988076	-0.380240	-3.434296	1.872786
1.140	2.266995	-3.033531	465.574554	8.720183	16.045539	-0.376190	-3.446395	1.872994
1.150	2.278742	-3.084563	465.765007	8.715915	16.107776	-0.376028	-3.458348	1.871312
1.160	2.321925	-3.108025	466.072332	8.703563	16.172710	-0.379609	-3.470000	1.867428
1.170	2.392063	-3.096156	466.429848	8.680580	16.238280	-0.386319	-3.481398	1.861069
1.180	2.477261	-3.047905	466.764886	8.644807	16.303167	-0.395402	-3.492801	1.852069
1.190	2.561468	-2.969670	467.018964	8.595283	16.367263	-0.406228	-3.504625	1.840457
1.200	2.628737	-2.873755	467.161417	8.532948	16.431633	-0.418361	-3.517335	1.826552
1.210	2.666732	-2.775188	467.192383	8.460910	16.497977	-0.431424	-3.531303	1.811012
1.220	2.668453	-2.688129	467.134848	8.384005	16.567807	-0.444896	-3.546686	1.794772
1.230	2.632301	-2.622989	467.019935	8.307740	16.641810	-0.458017	-3.563405	1.778883
1.240	2.561135	-2.584716	466.873037	8.236986	16.719745	-0.469911	-3.581219	1.764288
1.250	2.460949	-2.572347	466.707968	8.174915	16.800921	-0.479842	-3.599879	1.751612
1.260	2.339577	-2.579914	466.531473	8.122490	16.884891	-0.487450	-3.619239	1.741038
1.270	2.205618	-2.598709	466.353897	8.078697	16.971904	-0.492826	-3.639276	1.732310
1.280	2.067569	-2.620285	466.198036	8.041464	17.062879	-0.496420	-3.660007	1.724903
1.290	1.933028	-2.639135	466.099728	8.009039	17.158957	-0.498867	-3.681392	1.718310
1.300	1.807952	-2.654031	466.099568	7.981339	17.260947	-0.500780	-3.703275	1.712368
1.310	1.695931	-2.667647	466.230491	7.960610	17.368938	-0.502494	-3.725397	1.707441
1.320	1.597442	-2.684722	466.507012	7.950788	17.482243	-0.503738	-3.747477	1.704323
1.330	1.509169	-2.709329	466.918563	7.955535	17.599618	-0.503372	-3.769312	1.703838
1.340	1.424048	-2.742002	467.425998	7.975646	17.719532	-0.499452	-3.790874	1.706291
1.350	1.332921	-2.777642	467.960551	8.007056	17.840216	-0.489849	-3.812333	1.711054
1.360	1.228327	-2.805470	468.427431	8.040473	17.959306	-0.473320	-3.833957	1.716482
1.370	1.109839	-2.812101	468.718044	8.063129	18.073233	-0.450555	-3.855886	1.720252
1.380	0.989030	-2.787696	468.732621	8.062405	18.176931	-0.424619	-3.877889	1.720043
1.390	0.891010	-2.733252	468.409515	8.030330	18.264613	-0.400403	-3.899283	1.714382
1.400	0.849811	-2.665487	467.752007	7.967236	18.331821	-0.383203	-3.919133	1.703303
1.410	0.897208	-2.615773	466.841791	7.882690	18.378032	-0.376914	-3.936672	1.688514
1.420	1.048183	-2.621640	465.831296	7.792861	18.408348	-0.382571	-3.951720	1.672893
1.430	1.289155	-2.712835	464.912876	7.715121	18.432998	-0.397897	-3.964829	1.659477
1.440	1.575318	-2.897150	464.270303	7.662087	18.464328	-0.418102	-3.977064	1.650351
1.450	1.840204	-3.152493	464.025928	7.637476	18.512236	-0.437631	-3.989483	1.645916
1.460	2.014867	-3.429693	464.201985	7.635301	18.579970	-0.452072	-4.002561	1.644823
1.470	2.049158	-3.666105	464.712166	7.642634	18.662276	-0.459377	-4.015878	1.644595
1.480	1.926568	-3.805290	465.388746	7.644833	18.746934	-0.459994	-4.028231	1.642677
1.490	1.667599	-3.815448	466.036528	7.631277	18.819083	-0.456112	-4.038113	1.637485
1.500	1.322000	-3.699856	466.494405	7.599458	18.866424	-0.450639	-4.044298	1.629057
1.510	0.954099	-3.495587	466.682442	7.555916	18.883066	-0.446366	-4.046234	1.619070
1.520	0.626657	-3.260999	466.617809	7.513754	18.870619	-0.445487	-4.044127	1.610259
1.530	0.387638	-3.056760	466.395450	7.487856	18.836483	-0.449338	-4.038736	1.605474
1.540	0.262446	-2.927684	466.144179	7.489762	18.790518	-0.458177	-4.031053	1.606748
1.550	0.252360	-2.891899	465.978505	7.524120	18.741705	-0.471011	-4.022011	1.614693
1.560	0.338280	-2.940165	465.965412	7.587700	18.696041	-0.485559	-4.012324	1.628383
1.570	0.488024	-3.043739	466.114903	7.670936	18.656013	-0.498604	-4.002449	1.645718
1.580	0.665240	-3.166402	466.390704	7.761217	18.621265	-0.506752	-3.992632	1.664102
1.590	0.838122	-3.275927	466.730524	7.846636	18.589837	-0.507467	-3.982991	1.681192
1.600	0.986137	-3.351583	467.065675	7.918895	18.559497	-0.499988	-3.973638	1.695456
1.610	1.103115	-3.386362	467.334867	7.974413	18.528862	-0.485748	-3.964793	1.706360
1.620	1.195934	-3.384570	467.492092	8.013605	18.498057	-0.468084	-3.956871	1.714169
1.630	1.279380	-3.356708	467.510699	8.039098	18.468724	-0.451304	-3.950439	1.719554
1.640	1.369039	-3.314025	467.385167	8.053985	18.443357	-0.439433	-3.946072	1.723201
1.650	1.474635	-3.264638	467.130696	8.060767	18.424262	-0.435052	-3.944134	1.725591
1.660	1.596004	-3.212271	466.780302	8.061069	18.412689	-0.438638	-3.944616	1.726951
1.670	1.722841	-3.157528	466.379683	8.055846	18.408609	-0.448601	-3.947129	1.727315
1.680	1.837934	-3.100639	465.980848	8.045855	18.411159	-0.461940	-3.951055	1.726649
1.690	1.922263	-3.044028	465.635399	8.032299	18.419338	-0.475199	-3.955743	1.725019
1.700	1.959929	-2.993342	465.387606	8.017507	18.432522	-0.485420	-3.960682	1.722759
1.710	1.941553	-2.956389	465.267289	8.005286	18.450607	-0.490870	-3.965593	1.720578
1.720	1.865924	-2.940489	465.283540	8.000489	18.473887	-0.491400	-3.970458	1.719487
1.730	1.740229	-2.949481	465.421819	8.007709	18.502755	-0.488321	-3.975481	1.720527
1.740	1.579074	-2.981811	465.647251	8.029633	18.537291	-0.483783	-3.980973	1.724402
1.750	1.402318	-3.030590	465.914574	8.065927	18.576747	-0.479885	-3.987157	1.731203
1.760	1.232039	-3.085532	466.181044	8.113303	18.619021	-0.477932	-3.993946	1.740376
1.770	1.089217	-3.135866	466.416160	8.166795	18.660352	-0.478129	-4.000794	1.750967
1.780	0.990701	-3.173028	466.604155	8.221661	18.695475	-0.479779	-4.006710	1.762021
1.790	0.946801	-3.192146	466.740367	8.275027	18.718449	-0.481770	-4.010463	1.772940
1.800	0.959803	-3.191982	466.826120	8.326551	18.723998	-0.483048	-4.010915	1.783651
1.810	1.023801	-3.173558	466.865644	8.377898	18.708920	-0.482885	-4.007346	1.794499
1.820	1.126148	-3.138200	466.865276	8.431443	18.672993	-0.480868	-3.999653	1.805969
1.830	1.250427	-3.085986	466.833686	8.488929	18.618993	-0.476752	-3.988357	1.818405
1.840	1.380277	-3.015510	466.782432	8.550747	18.551857	-0.470403	-3.974412	1.831849
1.850	1.502966	-2.925051	466.726275	8.616047	18.477307	-0.461954	-3.958917	1.846060
1.860	1.611631	-2.814430	466.681840	8.683474	18.400457	-0.452073	-3.942827	1.860684
1.870	1.705532	-2.686417	466.663260	8.752107	18.324797	-0.442111	-3.926771	1.875465
1.880	1.788232	-2.546998	466.675743	8.822086	18.251813	-0.433878	-3.911027	1.890410
1.890	1.864406	-2.404574	466.710926	8.894555	18.181323	-0.429006	-3.895628	1.905795
1.900	1.936735	-2.268725	466.748085	8.970940	18.112391	-0.428130	-3.880550	1.922009
1.910	2.004466	-2.149183	466.761564	9.051958	18.044461	-0.430294	-3.865884	1.939311
1.920	2.064140	-2.055183	466.730068	9.136810	17.978180	-0.432908	-3.851944	1.957622
1.930	2.111643	-1.994928	466.642339	9.222812	17.915462	-0.432351	-3.839228	1.976420
1.940	2.144259	-1.974670	466.497640	9.305573	17.858770	-0.425056	-3.828266	1.994774
1.950	2.161937	-1.997275	466.304399	9.379757	17.810041	-0.408743	-3.819402	2.011509
1.960	2.167543	-2.060716	466.080837	9.440329	17.769850	-0.383430	-3.812611	2.025470
1.970	2.166080	-2.157149	465.856802	9.483903	17.737102	-0.351846	-3.807415	2.035798
1.980	2.163041	-2.273010	465.671722	9.509624	17.709239	-0.319017	-3.802945	2.042130
1.990	2.162401	-2.390334	465.565053	9.519220	17.682854	-0.291063	-3.798149	2.044660
2.000	2.165066	-2.489396	465.561849	9.516227	17.654641	-0.273576	-3.792115	2.044031
2.010	2.168464	-2.552471	465.661133	9.504751	17.622481	-0.270146	-3.784400	2.041130
2.020	2.167552	-2.567892	465.834422	9.488226	17.586271	-0.281542	-3.775219	2.036824
2.030	2.156973	-2.533167	466.036407	9.468598	17.548064	-0.305794	-3.765385	2.031729
2.040	2.133639	-2.456107	466.222910	9.446203	17.511370	-0.339082	-3.756008	2.026113
2.050	2.098776	-2.353399	466.366971	9.420339	17.479794	-0.377027	-3.748077	2.019941
2.060	2.058570	-2.246559	466.465041	9.390134	17.455533	-0.415890	-3.742088	2.013041
2.070	2.023087	-2.155918	466.531435	9.355202	17.438348	-0.453255	-3.737872	2.005267
2.080	2.003867	-2.094330	466.586359	9.315755	17.425477	-0.488060	-3.734673	1.996577
2.090	2.011072	-2.063010	466.645569	9.272200	17.412579	-0.520131	-3.731436	1.986990
2.100	2.051155	-2.051551	466.716502	9.224597	17.395365	-0.549572	-3.727180	1.976488
2.110	2.125695	-2.042517	466.799580	9.172381	17.371233	-0.576325	-3.721347	1.964951
2.120	2.231499	-2.018997	466.890229	9.114591	17.340200	-0.600025	-3.713978	1.952191
2.130	2.361530	-1.972142	466.979370	9.050470	17.304752	-0.620100	-3.705678	1.938088
2.140	2.505998	-1.905601	467.053902	8.980048	17.268748	-0.635976	-3.697378	1.922700
2.150	2.653292	-1.834973	467.099243	8.904349	17.235969	-0.647246	-3.690001	1.906308
2.160	2.790987	-1.782447	467.103429	8.825102	17.208955	-0.653713	-3.684185	1.889325
2.170	2.907247	-1.768879	467.060232	8.744065	17.188474	-0.655292	-3.680141	1.872149
2.180	2.992589	-1.806674	466.969368	8.662281	17.173683	-0.651883	-3.677689	1.855000
2.190	3.041516	-1.896367	466.834262	8.579626	17.162804	-0.643328	-3.676423	1.837831
2.200	3.053369	-2.028005	466.660233	8.495008	17.154054	-0.629460	-3.675919	1.820384
2.210	3.031955	-2.186095	466.456057	8.407316	17.146594	-0.610170	-3.675929	1.802381
2.220	2.983981	-2.355338	466.238879	8.316821	17.141293	-0.585437	-3.676504	1.783811
2.230	2.916888	-2.524570	466.038585	8.226354	17.141086	-0.555357	-3.678040	1.765166
2.240	2.836877	-2.687801	465.896631	8.141473	17.150714	-0.520284	-3.681227	1.747485
2.250	2.747615	-2.842933	465.856962	8.069253	17.175723	-0.481098	-3.686909	1.732131
2.260	2.649685	-2.989485	465.951293	8.016079	17.220959	-0.439459	-3.695871	1.720368
2.270	2.540850	-3.126450	466.184759	7.985450	17.289062	-0.397790	-3.708629	1.712937
2.280	2.417397	-3.250938	466.528664	7.976798	17.379489	-0.358885	-3.725278	1.709820
2.290	2.276752	-3.357878	466.924518	7.985801	17.488359	-0.325326	-3.745436	1.710298
2.300	2.120938	-3.440837	467.298818	8.005911	17.609015	-0.298987	-3.768256	1.713231
2.310	1.959626	-3.493602	467.583144	8.030363	17.732940	-0.280833	-3.792468	1.717419
2.320	1.810897	-3.511939	467.731475	8.053853	17.850711	-0.270988	-3.816444	1.721897
2.330	1.698384	-3.495037	467.727940	8.073369	17.952932	-0.268904	-3.838328	1.726082
2.340	1.645022	-3.446326	467.583189	8.088108	18.031304	-0.273515	-3.856277	1.729769
2.350	1.665567	-3.373449	467.323239	8.098759	18.079863	-0.283386	-3.868813	1.733010
2.360	1.760897	-3.287266	466.977570	8.106623	18.096176	-0.296910	-3.875170	1.735977
2.370	1.916502	-3.200012	466.572363	8.112946	18.082078	-0.312606	-3.875514	1.738840
