Time[s]	Fx[N]	Fy[N]	Fz[N]	Mx[Nm]	My[Nm]	Mz[Nm]	COPx[cm]	COPy[cm]
0.010	0.307478	1.038157	527.461378	10.813817	4.319732	-0.650082	-0.818967	2.050163
0.020	0.232070	1.198118	526.457368	10.778097	4.485281	-0.657154	-0.851974	2.047288
0.030	0.169022	1.326099	525.526786	10.734417	4.646355	-0.661680	-0.884133	2.042601
0.040	0.129734	1.401898	524.724543	10.678498	4.798832	-0.661932	-0.914543	2.035067
0.050	0.120627	1.423634	524.079085	10.611595	4.940066	-0.657377	-0.942618	2.024808
0.060	0.139906	1.406701	523.597163	10.540246	5.069270	-0.648775	-0.968162	2.013045
0.070	0.176525	1.375657	523.276289	10.473740	5.187185	-0.637886	-0.991290	2.001570
0.080	0.213354	1.352833	523.114863	10.420396	5.295073	-0.626905	-1.012220	1.991990
0.090	0.233980	1.348786	523.112153	10.384328	5.393605	-0.617845	-1.031061	1.985105
0.100	0.229637	1.358661	523.257834	10.363996	5.482370	-0.612041	-1.047738	1.980667
0.110	0.201985	1.365628	523.519745	10.352993	5.560285	-0.609893	-1.062097	1.977574
0.120	0.160212	1.349461	523.842344	10.342523	5.626487	-0.610861	-1.074080	1.974358
0.130	0.114936	1.296291	524.162248	10.324375	5.680878	-0.613686	-1.083801	1.969691
0.140	0.073357	1.205339	524.434161	10.293139	5.723826	-0.616798	-1.091429	1.962713
0.150	0.038435	1.089828	524.650515	10.247074	5.755221	-0.618775	-1.096963	1.953124
0.160	0.011390	0.971957	524.840367	10.187681	5.773664	-0.618719	-1.100080	1.941101
0.170	-0.005575	0.874618	525.046821	10.118429	5.776486	-0.616408	-1.100185	1.927148
0.180	-0.009087	0.813779	525.296688	10.043116	5.760793	-0.612187	-1.096674	1.911894
0.190	0.002838	0.794406	525.580290	9.964448	5.724995	-0.606717	-1.089271	1.895895
0.200	0.028125	0.810515	525.851544	9.883371	5.669892	-0.600687	-1.078231	1.879498
0.210	0.061086	0.848087	526.045867	9.799385	5.598549	-0.594604	-1.064270	1.862839
0.220	0.096821	0.889186	526.104689	9.711663	5.514972	-0.588695	-1.048265	1.845956
0.230	0.136747	0.916289	525.994536	9.620442	5.422416	-0.582943	-1.030888	1.829000
0.240	0.190867	0.916404	525.714091	9.528092	5.322438	-0.577264	-1.012421	1.812410
0.250	0.274367	0.884410	525.289449	9.439377	5.215265	-0.571736	-0.992836	1.796986
0.260	0.400054	0.824582	524.762338	9.360774	5.101194	-0.566713	-0.972096	1.783812
0.270	0.570918	0.749358	524.177317	9.299088	4.982127	-0.562705	-0.950466	1.774035
0.280	0.776947	0.675460	523.572645	9.259904	4.862351	-0.560098	-0.928687	1.768600
0.290	0.997795	0.618914	522.976660	9.246487	4.748180	-0.558915	-0.907914	1.768050
0.300	1.209868	0.591114	522.408802	9.259556	4.646629	-0.558790	-0.889462	1.772473
0.310	1.394217	0.597206	521.883331	9.297901	4.563729	-0.559179	-0.874473	1.781605
0.320	1.541437	0.636614	521.414160	9.359316	4.503173	-0.559669	-0.863646	1.794987
0.330	1.651587	0.704572	521.019751	9.441201	4.465706	-0.560248	-0.857109	1.812062
0.340	1.730048	0.793615	520.727032	9.540497	4.449209	-0.561389	-0.854422	1.832149
0.350	1.782443	0.894523	520.572610	9.653162	4.449191	-0.563889	-0.854672	1.854335
0.360	1.811738	0.996860	520.598762	9.773691	4.459501	-0.568469	-0.856610	1.877394
0.370	1.818753	1.089713	520.842740	9.895108	4.473230	-0.575283	-0.858845	1.899826
0.380	1.805026	1.163247	521.321839	10.009626	4.483847	-0.583606	-0.860092	1.920047
0.390	1.775739	1.211178	522.020787	10.109901	4.486362	-0.591935	-0.859422	1.936686
0.400	1.740763	1.233451	522.888819	10.190618	4.478110	-0.598539	-0.856417	1.948907
0.410	1.713074	1.237679	523.849710	10.249835	4.458792	-0.602193	-0.851159	1.956637
0.420	1.705211	1.237794	524.821140	10.289431	4.429761	-0.602690	-0.844052	1.960560
0.430	1.725384	1.249423	525.734126	10.314202	4.392927	-0.600868	-0.835580	1.961867
0.440	1.774817	1.283338	526.542959	10.329788	4.349819	-0.598162	-0.826109	1.961813
0.450	1.847146	1.339910	527.221516	10.340247	4.301214	-0.595958	-0.815827	1.961272
0.460	1.929879	1.407469	527.749694	10.346285	4.247374	-0.595056	-0.804808	1.960453
0.470	2.007552	1.465751	528.099236	10.344929	4.188573	-0.595489	-0.793141	1.958899
0.480	2.066069	1.493194	528.228598	10.330744	4.125423	-0.596757	-0.780992	1.955734
0.490	2.097269	1.475042	528.092056	10.298039	4.058618	-0.598354	-0.768544	1.950046
0.500	2.102197	1.408936	527.661139	10.243097	3.988021	-0.600306	-0.755792	1.941226
0.510	2.091639	1.305760	526.949612	10.165498	3.911498	-0.603433	-0.742291	1.929121
0.520	2.083383	1.185457	526.029386	10.068115	3.824197	-0.609177	-0.726993	1.913983
0.530	2.097275	1.069587	525.026618	9.955997	3.718840	-0.619067	-0.708315	1.896284
0.540	2.150177	0.973746	524.095906	9.834833	3.587047	-0.634015	-0.684426	1.876533
0.550	2.252651	0.902857	523.381784	9.709700	3.421237	-0.653750	-0.653679	1.855185
0.560	2.407828	0.850784	522.982769	9.584356	3.216451	-0.676626	-0.615021	1.832633
0.570	2.611521	0.803866	522.930270	9.460940	2.971690	-0.699918	-0.568276	1.809216
0.580	2.852482	0.746619	523.186400	9.339842	2.690629	-0.720497	-0.514277	1.785184
0.590	3.112731	0.667689	523.657810	9.219902	2.381665	-0.735601	-0.454813	1.760673
0.600	3.369392	0.564439	524.219816	9.099256	2.057085	-0.743454	-0.392409	1.735771
0.610	3.599569	0.444833	524.744612	8.976833	1.731219	-0.743627	-0.329916	1.710705
0.620	3.787936	0.325547	525.127260	8.853838	1.417797	-0.737130	-0.269991	1.686037
0.630	3.933833	0.226090	525.303917	8.734259	1.127178	-0.726205	-0.214576	1.662706
0.640	4.053323	0.160579	525.258554	8.623875	0.864375	-0.713820	-0.164562	1.641834
0.650	4.173485	0.130789	525.017040	8.528072	0.628717	-0.702960	-0.119752	1.624342
0.660	4.320513	0.124368	524.631131	8.449555	0.415463	-0.695909	-0.079191	1.610571
0.670	4.507241	0.119794	524.158923	8.387184	0.218802	-0.693715	-0.041744	1.600122
0.680	4.726516	0.095898	523.649775	8.336549	0.034830	-0.696039	-0.006651	1.592009
0.690	4.953847	0.041121	523.138953	8.291887	-0.137008	-0.701418	0.026190	1.585026
0.700	5.157901	-0.042087	522.651939	8.248148	-0.294602	-0.707840	0.056367	1.578134
0.710	5.313558	-0.139491	522.213464	8.202111	-0.435317	-0.713336	0.083360	1.570643
0.720	5.411338	-0.232134	521.853857	8.152149	-0.558124	-0.716348	0.106950	1.562152
0.730	5.459001	-0.304453	521.606820	8.097205	-0.664436	-0.715866	0.127383	1.552358
0.740	5.475118	-0.349873	521.498415	8.035968	-0.757301	-0.711486	0.145216	1.540938
0.750	5.478497	-0.372047	521.533511	7.966943	-0.839558	-0.703492	0.160979	1.527599
0.760	5.479338	-0.382115	521.688438	7.889421	-0.912095	-0.692941	0.174835	1.512286
0.770	5.476528	-0.393901	521.914845	7.804753	-0.973063	-0.681581	0.186441	1.495407
0.780	5.461466	-0.419224	522.152839	7.717134	-1.018351	-0.671537	0.195029	1.477945
0.790	5.424873	-0.464722	522.346997	7.633326	-1.043036	-0.664818	0.199683	1.461351
0.800	5.362003	-0.530732	522.459509	7.561233	-1.043131	-0.662771	0.199658	1.447238
0.810	5.273816	-0.612164	522.477623	7.507896	-1.016931	-0.665679	0.194636	1.436979
0.820	5.165056	-0.700725	522.414629	7.477764	-0.965453	-0.672667	0.184806	1.431385
0.830	5.041907	-0.787379	522.304819	7.471877	-0.891987	-0.681980	0.170779	1.430559
0.840	4.911013	-0.863934	522.194215	7.487953	-0.801152	-0.691473	0.153420	1.433940
0.850	4.779531	-0.923411	522.129695	7.521031	-0.697880	-0.699109	0.133660	1.440453
0.860	4.654715	-0.959935	522.149122	7.564502	-0.586672	-0.703330	0.112357	1.448724
0.870	4.542238	-0.969289	522.275087	7.611527	-0.471246	-0.703305	0.090229	1.457379
0.880	4.444203	-0.950507	522.514718	7.656725	-0.354661	-0.699051	0.067876	1.465361
0.890	4.358813	-0.907616	522.865685	7.697540	-0.239805	-0.691341	0.045864	1.472183
0.900	4.282754	-0.850108	523.324146	7.734657	-0.129972	-0.681381	0.024836	1.477986
0.910	4.215135	-0.791426	523.887989	7.771305	-0.029152	-0.670407	0.005565	1.483391
0.920	4.160119	-0.745739	524.551775	7.811850	0.058260	-0.659453	-0.011107	1.489243
0.930	4.126034	-0.723996	525.295799	7.860309	0.128372	-0.649331	-0.024438	1.496359
0.940	4.121123	-0.730563	526.075832	7.919274	0.178972	-0.640676	-0.034020	1.505348
0.950	4.148335	-0.761774	526.820036	7.989393	0.210488	-0.633886	-0.039954	1.516532
0.960	4.201902	-0.807139	527.436460	8.069445	0.226283	-0.628966	-0.042902	1.529937
0.970	4.267295	-0.852617	527.829986	8.156904	0.232183	-0.625445	-0.043988	1.545366
0.980	4.324635	-0.884401	527.923518	8.248944	0.235377	-0.622491	-0.044585	1.562526
0.990	4.354428	-0.891697	527.676410	8.343672	0.243086	-0.619232	-0.046067	1.581210
1.000	4.343713	-0.867858	527.094669	8.441168	0.261400	-0.615115	-0.049593	1.601452
1.010	4.290471	-0.810181	526.231016	8.543773	0.294595	-0.610102	-0.055982	1.623578
1.020	4.204612	-0.719189	525.176420	8.655285	0.344896	-0.604580	-0.065672	1.648072
1.030	4.105096	-0.598131	524.046178	8.779341	0.412531	-0.599069	-0.078720	1.675299
1.040	4.013957	-0.453041	522.962842	8.917846	0.495948	-0.593911	-0.094834	1.705254
1.050	3.948964	-0.292961	522.037576	9.070402	0.592219	-0.589138	-0.113444	1.737500
1.060	3.917409	-0.129295	521.352929	9.235141	0.697579	-0.584564	-0.133802	1.771380
1.070	3.913712	0.026448	520.951578	9.410491	0.807974	-0.580049	-0.155096	1.806404
1.080	3.922288	0.165939	520.834443	9.596738	0.919562	-0.575808	-0.176556	1.842570
1.090	3.924252	0.286395	520.967864	9.796258	1.029247	-0.572570	-0.197564	1.880396
1.100	3.904164	0.390389	521.296522	10.012050	1.135244	-0.571491	-0.217773	1.920606
1.110	3.853394	0.483284	521.758410	10.245306	1.237383	-0.573810	-0.237156	1.963611
1.120	3.769743	0.570244	522.299363	10.493302	1.336714	-0.580395	-0.255929	2.009059
1.130	3.655873	0.654826	522.884526	10.748735	1.434331	-0.591344	-0.274311	2.055661
1.140	3.519040	0.739524	523.502766	11.000850	1.529895	-0.605798	-0.292242	2.101393
1.150	3.371946	0.826934	524.160409	11.238017	1.620696	-0.622023	-0.309198	2.144003
1.160	3.232135	0.919926	524.865011	11.450895	1.701929	-0.637741	-0.324260	2.181684
1.170	3.117951	1.020388	525.606212	11.635006	1.768191	-0.650633	-0.336410	2.213636
1.180	3.042120	1.127643	526.344093	11.791681	1.815439	-0.658861	-0.344915	2.240299
1.190	3.006708	1.238055	527.012441	11.927027	1.842325	-0.661464	-0.349579	2.263140
1.200	3.003019	1.346353	527.536053	12.049506	1.850249	-0.658484	-0.350734	2.284110
1.210	3.016867	1.447699	527.853114	12.167313	1.842308	-0.650874	-0.349019	2.305057
1.220	3.036110	1.539006	527.931333	12.286689	1.821957	-0.640258	-0.345113	2.327327
1.230	3.055952	1.619001	527.771144	12.411634	1.792276	-0.628647	-0.339593	2.351708
1.240	3.079157	1.687891	527.397120	12.544633	1.756140	-0.618118	-0.332982	2.378593
1.250	3.111596	1.747789	526.844888	12.687546	1.716900	-0.610444	-0.325883	2.408213
1.260	3.156231	1.803888	526.151535	12.842037	1.678752	-0.606737	-0.319062	2.440749
1.270	3.209194	1.865215	525.353214	13.009472	1.646281	-0.607229	-0.313366	2.476329
1.280	3.260132	1.943733	524.488038	13.190559	1.623375	-0.611334	-0.309516	2.514940
1.290	3.296522	2.051663	523.599406	13.385025	1.612259	-0.617974	-0.307918	2.556348
1.300	3.309536	2.198073	522.735934	13.591497	1.613281	-0.626062	-0.308623	2.600069
1.310	3.298197	2.386106	521.947293	13.807598	1.625510	-0.634958	-0.311432	2.645401
1.320	3.269400	2.611706	521.277879	14.030120	1.647678	-0.644712	-0.316084	2.691486
1.330	3.233565	2.863916	520.761173	14.255160	1.679023	-0.655949	-0.322417	2.737370
1.340	3.198042	3.126299	520.416956	14.478220	1.719816	-0.669469	-0.330469	2.782042
1.350	3.161662	3.379165	520.251733	14.694496	1.771506	-0.685719	-0.340509	2.824497
1.360	3.113513	3.602544	520.261084	14.899384	1.836391	-0.704402	-0.352975	2.863828
1.370	3.037125	3.779703	520.432528	15.088977	1.916675	-0.724408	-0.368285	2.899315
1.380	2.918486	3.900451	520.748850	15.260228	2.013004	-0.744077	-0.386560	2.930439
1.390	2.753999	3.963399	521.192462	15.410871	2.123060	-0.761684	-0.407347	2.956848
1.400	2.554101	3.976871	521.749778	15.539513	2.241013	-0.775925	-0.429519	2.978346
1.410	2.340409	3.958473	522.412161	15.646228	2.358360	-0.786262	-0.451437	2.994997
1.420	2.137750	3.933058	523.170478	15.733437	2.465972	-0.793024	-0.471352	3.007325
1.430	1.965062	3.928474	524.004747	15.806437	2.556538	-0.797221	-0.487885	3.016468
1.440	1.829516	3.969005	524.875484	15.872889	2.626296	-0.800089	-0.500365	3.024125
1.450	1.726570	4.067706	525.724015	15.940995	2.675237	-0.802507	-0.508867	3.032198
1.460	1.645775	4.220316	526.484035	16.016793	2.705713	-0.804540	-0.513921	3.042218
1.470	1.579253	4.403864	527.099993	16.101661	2.720182	-0.805351	-0.516066	3.054764
1.480	1.528429	4.581740	527.543803	16.191233	2.719180	-0.803584	-0.515442	3.069173
1.490	1.505588	4.714279	527.821620	16.276440	2.700336	-0.798048	-0.511600	3.083701
1.500	1.529703	4.771184	527.966057	16.346389	2.658745	-0.788362	-0.503583	3.096106
1.510	1.618517	4.741131	528.015865	16.392027	2.588591	-0.775244	-0.490249	3.104457
1.520	1.780135	4.635187	527.992547	16.409172	2.485535	-0.760382	-0.470752	3.107842
1.530	2.007161	4.483305	527.886517	16.399861	2.349071	-0.745982	-0.444995	3.106702
1.540	2.275655	4.325524	527.660710	16.371651	2.183819	-0.734183	-0.413868	3.102685
1.550	2.549976	4.200855	527.269760	16.335259	1.999035	-0.726495	-0.379129	3.098084
1.560	2.792541	4.137035	526.684826	16.301372	1.806450	-0.723411	-0.342985	3.095090
1.570	2.975052	4.143943	525.912132	16.277663	1.617457	-0.724334	-0.307553	3.095130
1.580	3.086399	4.212481	524.997086	16.266982	1.440996	-0.727866	-0.274477	3.098490
1.590	3.133808	4.319213	524.012869	16.267333	1.282858	-0.732371	-0.244814	3.104377
1.600	3.137270	4.434938	523.040137	16.273601	1.146148	-0.736557	-0.219132	3.111348
1.610	3.120692	4.533587	522.149010	16.280098	1.032015	-0.739802	-0.197648	3.117903
1.620	3.104305	4.597926	521.392023	16.282564	0.939932	-0.742113	-0.180274	3.122902
1.630	3.101292	4.620750	520.808267	16.278693	0.867478	-0.743826	-0.166564	3.125660
1.640	3.118636	4.602841	520.431275	16.267188	0.810159	-0.745240	-0.155671	3.125713
1.650	3.159731	4.550049	520.291879	16.246182	0.761867	-0.746355	-0.146431	3.122513
1.660	3.225968	4.471080	520.411597	16.212041	0.716105	-0.746794	-0.137603	3.115234
1.670	3.315939	4.376157	520.788526	16.159233	0.667655	-0.745915	-0.128201	3.102840
1.680	3.423003	4.276009	521.383563	16.081503	0.614049	-0.743066	-0.117773	3.084390
1.690	3.533371	4.180851	522.117116	15.974071	0.556217	-0.737943	-0.106531	3.059480
1.700	3.626966	4.099415	522.882263	15.836069	0.498020	-0.730931	-0.095245	3.028611
1.710	3.682067	4.037956	523.571062	15.672008	0.444804	-0.723261	-0.084956	2.993291
1.720	3.682383	3.998645	524.102774	15.491135	0.401512	-0.716830	-0.076609	2.955744
1.730	3.623464	3.977225	524.441699	15.304547	0.371065	-0.713637	-0.070754	2.918255
1.740	3.515276	3.961222	524.597995	15.121309	0.353658	-0.715065	-0.067415	2.882457
1.750	3.379490	3.931023	524.612930	14.945610	0.347174	-0.721307	-0.066177	2.848883
1.760	3.242476	3.865338	524.536592	14.776405	0.348366	-0.731219	-0.066414	2.817040
1.770	3.126930	3.750000	524.408724	14.609538	0.354140	-0.742653	-0.067531	2.785907
1.780	3.045695	3.586219	524.251094	14.441010	0.362358	-0.753138	-0.069119	2.754598
1.790	3.000087	3.393403	524.073358	14.269589	0.371941	-0.760626	-0.070971	2.722823
1.800	2.982588	3.203634	523.886477	14.097463	0.382456	-0.764038	-0.073004	2.690939
1.810	2.981686	3.049129	523.713380	13.928700	0.393601	-0.763447	-0.075156	2.659604
1.820	2.986162	2.948193	523.589122	13.766437	0.404959	-0.759837	-0.077343	2.629244
1.830	2.987343	2.896741	523.550399	13.610261	0.416070	-0.754550	-0.079471	2.599609
1.840	2.979437	2.869952	523.621001	13.455156	0.426549	-0.748644	-0.081461	2.569636
1.850	2.959226	2.833542	523.801409	13.292578	0.436008	-0.742457	-0.083239	2.537713
1.860	2.926396	2.759233	524.067400	13.113313	0.443839	-0.735566	-0.084691	2.502219
1.870	2.884719	2.637240	524.377073	12.910911	0.449188	-0.727123	-0.085661	2.462143
1.880	2.842788	2.480199	524.681966	12.684247	0.451334	-0.716383	-0.086020	2.417512
1.890	2.812595	2.316832	524.937672	12.437968	0.450323	-0.703206	-0.085786	2.369418
1.900	2.805588	2.177928	525.111634	12.180399	0.447435	-0.688337	-0.085208	2.319583
1.910	2.828075	2.080294	525.187659	11.919573	0.445151	-0.673303	-0.084760	2.269584
1.920	2.878691	2.015275	525.166924	11.659113	0.446615	-0.659897	-0.085042	2.220077
1.930	2.949293	1.947228	525.065220	11.396059	0.454900	-0.649404	-0.086637	2.170408
1.940	3.028168	1.824193	524.907449	11.122057	0.472445	-0.641983	-0.090005	2.118861
1.950	3.102903	1.598458	524.722001	10.827726	0.500762	-0.636591	-0.095434	2.063517
1.960	3.160933	1.249825	524.537357	10.508327	0.540232	-0.631568	-0.102992	2.003351
1.970	3.188194	0.801477	524.381080	10.167923	0.589799	-0.625513	-0.112475	1.939033
1.980	3.168310	0.319853	524.279583	9.819767	0.646593	-0.617906	-0.123330	1.873002
1.990	3.084806	-0.103745	524.256950	9.482447	0.705733	-0.609082	-0.134616	1.808740
2.000	2.926688	-0.383646	524.331703	9.173481	0.760652	-0.599733	-0.145071	1.749557
2.010	2.694993	-0.470166	524.511299	8.903377	0.804101	-0.590418	-0.153305	1.697462
2.020	2.406533	-0.367274	524.786325	8.672781	0.829631	-0.581454	-0.158089	1.652631
2.030	2.092214	-0.130674	525.128466	8.473690	0.832878	-0.573192	-0.158605	1.613641
2.040	1.790228	0.151924	525.495070	8.293718	0.812023	-0.566345	-0.154525	1.578268
2.050	1.537074	0.389522	525.838421	8.121275	0.767316	-0.562079	-0.145922	1.544443
2.060	1.359871	0.514598	526.114214	7.949521	0.700257	-0.561812	-0.133100	1.510988
2.070	1.271807	0.499616	526.285268	7.777928	0.613154	-0.566810	-0.116506	1.477892
2.080	1.270621	0.359885	526.321601	7.611406	0.509347	-0.577744	-0.096775	1.446151
2.090	1.339483	0.143898	526.201174	7.457772	0.393658	-0.594313	-0.074811	1.417285
2.100	1.450358	-0.084463	525.914192	7.324664	0.272356	-0.615077	-0.051787	1.392749
2.110	1.570397	-0.265856	525.469691	7.216855	0.152198	-0.637598	-0.028964	1.373410
2.120	1.670784	-0.361449	524.900178	7.134611	0.038731	-0.658897	-0.007379	1.359232
2.130	1.735412	-0.360632	524.260149	7.073523	-0.065470	-0.676145	0.012488	1.349239
2.140	1.765516	-0.279129	523.617284	7.025919	-0.161732	-0.687396	0.030887	1.341804
2.150	1.777538	-0.149622	523.039331	6.983334	-0.254840	-0.692167	0.048723	1.335145
2.160	1.794771	-0.009319	522.582604	6.938942	-0.351369	-0.691642	0.067237	1.327817
2.170	1.836773	0.110628	522.287471	6.888723	-0.457619	-0.688356	0.087618	1.318952
2.180	1.911920	0.190596	522.182218	6.830908	-0.578163	-0.685427	0.110721	1.308146
2.190	2.016651	0.222299	522.291247	6.764325	-0.715635	-0.685552	0.137018	1.295125
2.200	2.140921	0.205081	522.639839	6.686877	-0.871591	-0.690110	0.166767	1.279443
2.210	2.275662	0.141964	523.248753	6.595085	-1.047658	-0.698678	0.200222	1.260411
2.220	2.417320	0.037902	524.118325	6.484837	-1.245974	-0.709149	0.237728	1.237285
2.230	2.567125	-0.099585	525.209448	6.352803	-1.468513	-0.718420	0.279605	1.209575
2.240	2.726652	-0.259330	526.432769	6.197753	-1.715753	-0.723406	0.325921	1.177311
2.250	2.893565	-0.427358	527.654785	6.021157	-1.985792	-0.722019	0.376343	1.141117
2.260	3.060828	-0.590541	528.721630	5.826845	-2.274727	-0.713788	0.430231	1.102063
2.270	3.219936	-0.741595	529.492503	5.620038	-2.578123	-0.699953	0.486905	1.061401
2.280	3.365895	-0.882429	529.869684	5.406324	-2.892567	-0.683036	0.545902	1.020312
2.290	3.500504	-1.023319	529.814026	5.190970	-3.216204	-0.666109	0.607044	0.979772
2.300	3.631792	-1.177476	529.342347	4.978577	-3.547934	-0.652049	0.670253	0.940521
2.310	3.770246	-1.353342	528.511693	4.772836	-3.885899	-0.643032	0.735253	0.903071
2.320	3.924624	-1.548523	527.400244	4.576332	-4.226315	-0.640351	0.801349	0.867715
2.330	4.099868	-1.748796	526.093659	4.390417	-4.563488	-0.644422	0.867429	0.834531
2.340	4.297393	-1.933149	524.680443	4.215150	-4.891129	-0.654820	0.932211	0.803375
2.350	4.516138	-2.082707	523.253906	4.049180	-5.204377	-0.670322	0.994618	0.773846
2.360	4.752954	-2.189372	521.914866	3.889520	-5.501584	-0.689052	1.054115	0.745240
2.370	5.002488	-2.260042	520.769337	3.731416	-5.784938	-0.708770	1.110845	0.716520
2.380	5.257539	-2.314352	519.918357	3.568666	-6.059569	-0.727226	1.165485	0.686390
2.390	5.510108	-2.376953	519.440963	3.394654	-6.331412	-0.742498	1.218890	0.653521
2.400	5.752309	-2.467638	519.374996	3.204062	-6.604669	-0.753255	1.271657	0.616907
