Time[s]	Fx[N]	Fy[N]	Fz[N]	Mx[Nm]	My[Nm]	Mz[Nm]	COPx[cm]	COPy[cm]
0.010	6.926727	3.001754	471.984210	-1.778334	-11.561239	0.148521	2.449497	-0.376778
0.020	6.703637	2.922000	470.997461	-1.820051	-11.416468	0.136187	2.423892	-0.386425
0.030	6.488427	2.849021	470.129812	-1.857355	-11.269620	0.126055	2.397129	-0.395073
0.040	6.288658	2.790822	469.485747	-1.887054	-11.118634	0.119562	2.368258	-0.401941
0.050	6.110491	2.755725	469.142633	-1.908512	-10.961028	0.117150	2.336396	-0.406808
0.060	5.958048	2.749887	469.143865	-1.923774	-10.794493	0.118378	2.300892	-0.410060
0.070	5.832672	2.774138	469.496794	-1.936721	-10.617875	0.122332	2.261544	-0.412510
0.080	5.732447	2.822211	470.174118	-1.951716	-10.432009	0.128041	2.218754	-0.415105
0.090	5.652328	2.881870	471.117400	-1.972320	-10.239795	0.134712	2.173512	-0.418647
0.100	5.584849	2.938610	472.241935	-2.000499	-10.045217	0.141802	2.127134	-0.423617
0.110	5.521150	2.979988	473.443857	-2.036329	-9.851666	0.149038	2.080852	-0.430110
0.120	5.452165	2.998388	474.611919	-2.078016	-9.660484	0.156387	2.035449	-0.437835
0.130	5.369962	2.991303	475.645405	-2.122007	-9.470684	0.163912	1.991123	-0.446132
0.140	5.269231	2.960120	476.475033	-2.163180	-9.280171	0.171489	1.947672	-0.453997
0.150	5.148759	2.909097	477.079102	-2.195321	-9.087937	0.178541	1.904912	-0.460159
0.160	5.012691	2.845342	477.487093	-2.212122	-8.896094	0.183948	1.863107	-0.463284
0.170	4.871294	2.779243	477.767823	-2.208728	-8.710655	0.186234	1.823198	-0.462302
0.180	4.740508	2.724123	478.005348	-2.183374	-8.540522	0.183979	1.786700	-0.456768
0.190	4.639413	2.694304	478.269802	-2.138349	-8.394979	0.176271	1.755281	-0.447101
0.200	4.585692	2.701653	478.591643	-2.079675	-8.280645	0.163074	1.730211	-0.434541
0.210	4.590653	2.751787	478.946957	-2.015503	-8.199115	0.145409	1.711905	-0.420820
0.220	4.655868	2.841649	479.258672	-1.953864	-8.146169	0.125351	1.699744	-0.407685
0.230	4.772520	2.959775	479.414082	-1.900696	-8.112733	0.105804	1.692218	-0.396462
0.240	4.923139	3.089123	479.294143	-1.858858	-8.087116	0.089983	1.687297	-0.387832
0.250	5.084896	3.211134	478.806381	-1.828465	-8.057629	0.080601	1.682857	-0.381880
0.260	5.234023	3.309511	477.912281	-1.808269	-8.014832	0.079011	1.677051	-0.378368
0.270	5.350964	3.372833	476.641787	-1.797217	-7.952916	0.084680	1.668531	-0.377058
0.280	5.425180	3.395800	475.091605	-1.795198	-7.870143	0.095296	1.656553	-0.377863
0.290	5.457741	3.379227	473.408681	-1.802648	-7.768382	0.107497	1.640946	-0.380780
0.300	5.460107	3.329169	471.763727	-1.819636	-7.651871	0.117941	1.621971	-0.385709
0.310	5.448866	3.255693	470.321002	-1.845329	-7.525487	0.124295	1.600075	-0.392355
0.320	5.438223	3.171596	469.210590	-1.878167	-7.393017	0.125785	1.575629	-0.400282
0.330	5.433568	3.090773	468.509055	-1.916313	-7.255966	0.123145	1.548735	-0.409024
0.340	5.429301	3.025786	468.232926	-1.957813	-7.113174	0.118071	1.519153	-0.418128
0.350	5.411807	2.984730	468.345437	-2.000405	-6.961231	0.112412	1.486345	-0.427122
0.360	5.365729	2.968488	468.771549	-2.041390	-6.795405	0.107426	1.449620	-0.435476
0.370	5.280215	2.969986	469.413276	-2.077995	-6.610674	0.103364	1.408284	-0.442679
0.380	5.152298	2.976417	470.159853	-2.108378	-6.402434	0.099562	1.361757	-0.448439
0.390	4.986120	2.973936	470.893758	-2.132982	-6.166708	0.094991	1.309575	-0.452965
0.400	4.788659	2.952907	471.498977	-2.155581	-5.900046	0.088988	1.251338	-0.457176
0.410	4.564329	2.911338	471.877898	-2.183199	-5.599584	0.081800	1.186659	-0.462662
0.420	4.311610	2.854716	471.977039	-2.224355	-5.263684	0.074694	1.115242	-0.471285
0.430	4.024152	2.792130	471.813326	-2.286035	-4.893202	0.069548	1.037105	-0.484521
0.440	3.696495	2.730584	471.487745	-2.370684	-4.492901	0.068098	0.952920	-0.502809
0.450	3.331665	2.670794	471.175749	-2.474776	-4.072214	0.071140	0.864266	-0.525234
0.460	2.946145	2.607136	471.092570	-2.589627	-3.644749	0.078052	0.773680	-0.549707
0.470	2.568600	2.531999	471.441699	-2.703846	-3.226472	0.086903	0.684384	-0.573527
0.480	2.232187	2.442029	472.361092	-2.806151	-2.833010	0.095088	0.599755	-0.594069
0.490	1.963949	2.342576	473.882054	-2.887609	-2.476835	0.100203	0.522669	-0.609352
0.500	1.776320	2.247724	475.911340	-2.943002	-2.165138	0.100746	0.454946	-0.618393
0.510	1.664445	2.175823	478.240795	-2.971440	-1.898992	0.096477	0.397079	-0.621327
0.520	1.610055	2.142822	480.582847	-2.976351	-1.673898	0.088387	0.348306	-0.619321
0.530	1.589792	2.156459	482.624377	-2.964806	-1.481317	0.078350	0.306930	-0.614309
0.540	1.584163	2.213617	484.085842	-2.946097	-1.310663	0.068553	0.270750	-0.608590
0.550	1.583276	2.301369	484.769736	-2.929732	-1.151316	0.060878	0.237497	-0.604355
0.560	1.587135	2.400677	484.586142	-2.923280	-0.994249	0.056443	0.205175	-0.603253
0.570	1.600852	2.491065	483.552706	-2.930686	-0.832877	0.055446	0.172241	-0.606074
0.580	1.627477	2.555005	481.776058	-2.951490	-0.662924	0.057292	0.137600	-0.612627
0.590	1.662079	2.581346	479.425730	-2.981170	-0.481658	0.060907	0.100466	-0.621821
0.600	1.690005	2.567305	476.709432	-3.012522	-0.287224	0.065094	0.060251	-0.631941
0.610	1.690283	2.518616	473.853305	-3.037718	-0.078575	0.068810	0.016582	-0.641067
0.620	1.642745	2.447931	471.086655	-3.050420	0.144117	0.071288	-0.030592	-0.647528
0.630	1.535629	2.372232	468.629107	-3.047352	0.379175	0.072029	-0.080912	-0.650269
0.640	1.370133	2.309988	466.678273	-3.028892	0.623665	0.070779	-0.133639	-0.649032
0.650	1.159829	2.278278	465.396724	-2.998656	0.874101	0.067557	-0.187818	-0.644322
0.660	0.925354	2.289831	464.898517	-2.962292	1.127107	0.062789	-0.242442	-0.637191
0.670	0.687150	2.350383	465.237413	-2.925941	1.379621	0.057421	-0.296541	-0.628914
0.680	0.459831	2.456969	466.399666	-2.894792	1.628607	0.052877	-0.349187	-0.620668
0.690	0.250303	2.597646	468.302870	-2.872114	1.870620	0.050752	-0.399447	-0.613303
0.700	0.059232	2.752950	470.800572	-2.858978	2.101513	0.052338	-0.446370	-0.607259
0.710	-0.116166	2.899180	473.692550	-2.854652	2.316411	0.058176	-0.489012	-0.602638
0.720	-0.279634	3.013238	476.741813	-2.857379	2.509936	0.067881	-0.526477	-0.599356
0.730	-0.433757	3.078005	479.698530	-2.865162	2.676645	0.080323	-0.557985	-0.597284
0.740	-0.577586	3.086518	482.327505	-2.876281	2.811584	0.094083	-0.582920	-0.596334
0.750	-0.704046	3.043309	484.432676	-2.889528	2.910804	0.107934	-0.600869	-0.596477
0.760	-0.798584	2.962325	485.872649	-2.904266	2.971821	0.121097	-0.611646	-0.597742
0.770	-0.841018	2.862393	486.565289	-2.920432	2.994104	0.133182	-0.615355	-0.600214
0.780	-0.811390	2.762016	486.484367	-2.938516	2.979620	0.143969	-0.612480	-0.604031
0.790	-0.698343	2.675104	485.654298	-2.959477	2.933125	0.153291	-0.603953	-0.609379
0.800	-0.506443	2.608433	484.148018	-2.984581	2.861655	0.161104	-0.591070	-0.616460
0.810	-0.258520	2.561059	482.088514	-3.015249	2.772894	0.167632	-0.575183	-0.625455
0.820	0.008967	2.525657	479.649475	-3.053009	2.672855	0.173427	-0.557252	-0.636508
0.830	0.256362	2.491456	477.048335	-3.099512	2.564057	0.179306	-0.537484	-0.649727
0.840	0.453089	2.447928	474.526700	-3.156364	2.445320	0.186218	-0.515318	-0.665160
0.850	0.586954	2.387969	472.318508	-3.224537	2.313423	0.195061	-0.489802	-0.682704
0.860	0.666914	2.309604	470.612911	-3.303505	2.165715	0.206374	-0.460190	-0.701958
0.870	0.718288	2.216070	469.523068	-3.390586	2.002319	0.219934	-0.426458	-0.722134
0.880	0.772301	2.114749	469.070806	-3.481058	1.827001	0.234474	-0.389494	-0.742118
0.890	0.854110	2.015466	469.191023	-3.569127	1.646532	0.247783	-0.350930	-0.760698
0.900	0.974042	1.928455	469.752652	-3.649343	1.469045	0.257322	-0.312727	-0.776865
0.910	1.125282	1.862359	470.588792	-3.717882	1.302133	0.261123	-0.276703	-0.790049
0.920	1.288258	1.822643	471.527680	-3.773211	1.151403	0.258511	-0.244186	-0.800210
0.930	1.439108	1.810547	472.417939	-3.815979	1.019895	0.250313	-0.215888	-0.807755
0.940	1.558253	1.822400	473.145189	-3.848264	0.908368	0.238529	-0.191985	-0.813337
0.950	1.635809	1.849327	473.640899	-3.872560	0.816031	0.225727	-0.172289	-0.817615
0.960	1.672676	1.877982	473.885318	-3.890918	0.741238	0.214373	-0.156417	-0.821067
0.970	1.678158	1.893115	473.904315	-3.904522	0.681886	0.206250	-0.143887	-0.823905
0.980	1.665997	1.881949	473.758386	-3.913774	0.635642	0.202035	-0.134170	-0.826112
0.990	1.650491	1.838936	473.524156	-3.918752	0.600261	0.201177	-0.126765	-0.827572
1.000	1.643469	1.768541	473.272940	-3.919716	0.574059	0.202135	-0.121296	-0.828215
1.010	1.651925	1.684257	473.053621	-3.917319	0.556376	0.202937	-0.117614	-0.828092
1.020	1.676033	1.603930	472.885876	-3.912345	0.547761	0.201818	-0.115834	-0.827334
1.030	1.708075	1.543416	472.765657	-3.905108	0.549707	0.197685	-0.116275	-0.826014
1.040	1.733607	1.511337	472.680324	-3.894928	0.563914	0.190254	-0.119301	-0.824009
1.050	1.735659	1.506981	472.627234	-3.880049	0.591204	0.179902	-0.125089	-0.820953
1.060	1.700879	1.521911	472.627256	-3.858152	0.630442	0.167368	-0.133391	-0.816320
1.070	1.624776	1.544420	472.725411	-3.827276	0.677906	0.153415	-0.143404	-0.809619
1.080	1.513328	1.564819	472.976770	-3.786748	0.727493	0.138606	-0.153812	-0.800620
1.090	1.380277	1.579254	473.424826	-3.737720	0.771644	0.123269	-0.162992	-0.789506
1.100	1.241908	1.590426	474.085111	-3.683008	0.802483	0.107666	-0.169270	-0.776866
1.110	1.112345	1.605164	474.943750	-3.626250	0.812563	0.092227	-0.171086	-0.763511
1.120	1.001768	1.630319	475.970574	-3.570618	0.794925	0.077676	-0.167011	-0.750176
1.130	0.918094	1.669017	477.136383	-3.517537	0.742755	0.064938	-0.155669	-0.737218
1.140	0.870704	1.718913	478.420858	-3.465918	0.649266	0.054872	-0.135710	-0.724450
1.150	0.873553	1.773168	479.803652	-3.412246	0.508316	0.047997	-0.105942	-0.711175
1.160	0.945120	1.823748	481.242000	-3.351585	0.315776	0.044350	-0.065617	-0.696445
1.170	1.104179	1.865635	482.647053	-3.279192	0.071156	0.043493	-0.014743	-0.679418
1.180	1.362635	1.899992	483.873656	-3.192146	-0.221278	0.044632	0.045731	-0.659707
1.190	1.718569	1.934707	484.733493	-3.090378	-0.552517	0.046841	0.113984	-0.637542
1.200	2.153093	1.981846	485.031845	-2.976655	-0.910154	0.049345	0.187648	-0.613703
1.210	2.633103	2.052977	484.617991	-2.855569	-1.280674	0.051724	0.264265	-0.589241
1.220	3.119236	2.154256	483.432823	-2.732038	-1.651828	0.053875	0.341687	-0.565133
1.230	3.575664	2.283217	481.536136	-2.610023	-2.014308	0.055757	0.418309	-0.542020
1.240	3.977685	2.428554	479.101458	-2.491907	-2.362364	0.057128	0.493082	-0.520121
1.250	4.314452	2.573019	476.377706	-2.378617	-2.693393	0.057504	0.565390	-0.499313
1.260	4.586783	2.698466	473.630244	-2.270330	-3.006789	0.056384	0.634839	-0.479346
1.270	4.802095	2.791203	471.082201	-2.167410	-3.302365	0.053586	0.701017	-0.460092
1.280	4.969215	2.845886	468.876256	-2.071229	-3.578866	0.049481	0.763286	-0.441743
1.290	5.094942	2.866830	467.068460	-1.984502	-3.833121	0.045014	0.820677	-0.424885
1.300	5.182839	2.866428	465.652943	-1.910880	-4.060275	0.041508	0.871953	-0.410366
1.310	5.233782	2.861029	464.604226	-1.853748	-4.255031	0.040321	0.915840	-0.398995
1.320	5.247429	2.865424	463.916839	-1.814557	-4.413368	0.042451	0.951327	-0.391138
1.330	5.223821	2.887931	463.623986	-1.791454	-4.533950	0.048191	0.977937	-0.386402
1.340	5.164511	2.928153	463.788155	-1.778994	-4.618707	0.056961	0.995866	-0.383579
1.350	5.073005	2.978408	464.470846	-1.769233	-4.672519	0.067399	1.005988	-0.380914
1.360	4.954679	3.028157	465.697812	-1.753734	-4.702325	0.077711	1.009737	-0.376582
1.370	4.816566	3.069380	467.435935	-1.725602	-4.716083	0.086165	1.008926	-0.369163
1.380	4.667286	3.100427	469.589782	-1.680751	-4.721842	0.091518	1.005525	-0.357919
1.390	4.517048	3.126552	472.015528	-1.618096	-4.727020	0.093195	1.001454	-0.342806
1.400	4.377305	3.156928	474.542894	-1.538824	-4.737872	0.091177	0.998408	-0.324275
1.410	4.259707	3.199832	476.995356	-1.445309	-4.759094	0.085750	0.997723	-0.303003
1.420	4.174317	3.258679	479.203882	-1.340294	-4.793562	0.077320	1.000318	-0.279692
1.430	4.127642	3.331021	481.015702	-1.226705	-4.842254	0.066400	1.006673	-0.255024
1.440	4.121426	3.410675	482.302910	-1.107910	-4.904411	0.053730	1.016874	-0.229712
1.450	4.152872	3.491368	482.974550	-0.987915	-4.977952	0.040362	1.030686	-0.204548
1.460	4.215966	3.569737	482.991381	-0.871118	-5.060057	0.027593	1.047650	-0.180359
1.470	4.302868	3.646348	482.377687	-0.761563	-5.147763	0.016760	1.067164	-0.157877
1.480	4.404631	3.724615	481.222827	-0.662030	-5.238420	0.008980	1.088564	-0.137572
1.490	4.511662	3.808451	479.668241	-0.573390	-5.329944	0.004935	1.111173	-0.119539
1.500	4.614902	3.899739	477.881848	-0.494585	-5.420863	0.004734	1.134352	-0.103495
1.510	4.708009	3.996611	476.027914	-0.423300	-5.510221	0.007903	1.157542	-0.088923
1.520	4.789343	4.093177	474.242706	-0.357098	-5.597346	0.013555	1.180270	-0.075299
1.530	4.862038	4.181020	472.622922	-0.294604	-5.681475	0.020739	1.202116	-0.062334
1.540	4.931435	4.252096	471.226781	-0.236274	-5.761225	0.028834	1.222601	-0.050140
1.550	5.000827	4.301761	470.081761	-0.184449	-5.834041	0.037818	1.241069	-0.039238
1.560	5.067527	4.330288	469.192178	-0.142691	-5.895806	0.048238	1.256587	-0.030412
1.570	5.121121	4.341830	468.544007	-0.114761	-5.940822	0.060852	1.267933	-0.024493
1.580	5.144688	4.341339	468.109502	-0.103680	-5.962180	0.076107	1.273672	-0.022149
1.590	5.118660	4.331249	467.855709	-0.111116	-5.952646	0.093760	1.272325	-0.023750
1.600	5.026228	4.309927	467.757989	-0.137105	-5.906169	0.112864	1.262655	-0.029311
1.610	4.858724	4.272770	467.814354	-0.180063	-5.819913	0.132110	1.244065	-0.038490
1.620	4.619131	4.215166	468.053306	-0.237003	-5.696119	0.150307	1.216981	-0.050636
1.630	4.322332	4.135535	468.529406	-0.303945	-5.542825	0.166692	1.183026	-0.064872
1.640	3.991842	4.036906	469.306054	-0.376473	-5.372797	0.180979	1.144839	-0.080219
1.650	3.654301	3.926497	470.430198	-0.450429	-5.200955	0.193203	1.105574	-0.095748
1.660	3.334062	3.813828	471.906517	-0.522614	-5.041265	0.203506	1.068276	-0.110745
1.670	3.049934	3.708218	473.679042	-0.591323	-4.904200	0.211993	1.035342	-0.124836
1.680	2.814621	3.616454	475.626782	-0.656494	-4.795330	0.218719	1.008213	-0.138027
1.690	2.635661	3.541198	477.576295	-0.719338	-4.715044	0.223804	0.987286	-0.150623
1.700	2.516078	3.480647	479.328771	-0.781639	-4.659082	0.227587	0.972001	-0.163069
1.710	2.453711	3.429628	480.694645	-0.845093	-4.619765	0.230669	0.961060	-0.175807
1.720	2.439872	3.381651	481.527493	-0.911030	-4.587931	0.233767	0.952787	-0.189196
1.730	2.459157	3.330798	481.750078	-0.980490	-4.555448	0.237408	0.945604	-0.203527
1.740	2.491889	3.272536	481.367262	-1.054425	-4.517640	0.241626	0.938502	-0.219048
1.750	2.518919	3.203506	480.463124	-1.133660	-4.474728	0.245865	0.931336	-0.235951
1.760	2.526682	3.121210	479.183593	-1.218466	-4.431613	0.249142	0.924826	-0.254280
1.770	2.510079	3.024511	477.709955	-1.307850	-4.396119	0.250395	0.920249	-0.273775
1.780	2.472105	2.915064	476.230088	-1.398966	-4.376500	0.248842	0.918988	-0.293758
1.790	2.420999	2.798764	474.912961	-1.487138	-4.379226	0.244191	0.922111	-0.313139
1.800	2.366705	2.685935	473.889737	-1.566740	-4.407751	0.236640	0.930122	-0.330613
1.810	2.318223	2.589373	473.243140	-1.632658	-4.462358	0.226712	0.942931	-0.344994
1.820	2.282369	2.520513	473.004833	-1.681731	-4.540817	0.215014	0.959994	-0.355542
1.830	2.263562	2.485156	473.158396	-1.713548	-4.639407	0.202031	0.980519	-0.362151
1.840	2.263887	2.480963	473.645202	-1.730409	-4.753859	0.188045	1.003675	-0.365339
1.850	2.283080	2.498399	474.372489	-1.736607	-4.879992	0.173254	1.028726	-0.366085
1.860	2.318592	2.524974	475.225134	-1.737403	-5.014090	0.158041	1.055098	-0.365596
1.870	2.366025	2.550495	476.082336	-1.737932	-5.153267	0.143199	1.082432	-0.365049
1.880	2.420137	2.570316	476.837587	-1.742100	-5.295970	0.129890	1.110644	-0.365345
1.890	2.476380	2.584966	477.416954	-1.751589	-5.442503	0.119248	1.139990	-0.366889
1.900	2.532819	2.597123	477.789410	-1.765381	-5.595259	0.111791	1.171072	-0.369489
1.910	2.591817	2.608386	477.965046	-1.780192	-5.758329	0.106971	1.204759	-0.372452
1.920	2.660403	2.617924	477.981812	-1.791779	-5.936463	0.103203	1.241985	-0.374863
1.930	2.748349	2.623295	477.886681	-1.796600	-6.133609	0.098474	1.283486	-0.375947
1.940	2.864154	2.622256	477.719544	-1.793187	-6.351481	0.091273	1.329542	-0.375364
1.950	3.010609	2.614051	477.506098	-1.782850	-6.588753	0.081340	1.379826	-0.373367
1.960	3.182312	2.599445	477.260601	-1.769647	-6.841349	0.069763	1.433462	-0.370793
1.970	3.366833	2.579796	476.993897	-1.759629	-7.103918	0.058365	1.489310	-0.368900
1.980	3.549491	2.555951	476.720193	-1.759483	-7.371946	0.048779	1.546389	-0.369081
1.990	3.719839	2.527678	476.458613	-1.774887	-7.643611	0.041756	1.604255	-0.372517
2.000	3.876872	2.493765	476.229915	-1.809095	-7.920484	0.037042	1.663164	-0.379878
2.010	4.030457	2.452484	476.051243	-1.862221	-8.206756	0.033775	1.723923	-0.391181
2.020	4.198200	2.402048	475.931216	-1.931412	-8.507283	0.031114	1.787503	-0.405817
2.030	4.399004	2.340930	475.866201	-2.011751	-8.825304	0.028736	1.854577	-0.422756
2.040	4.645851	2.268198	475.838572	-2.097546	-9.160817	0.026961	1.925194	-0.440810
2.050	4.940569	2.183971	475.818663	-2.183572	-9.510249	0.026434	1.998713	-0.458909
2.060	5.272644	2.089901	475.771505	-2.265960	-9.867434	0.027567	2.073986	-0.476271
2.070	5.622646	1.989239	475.666620	-2.342642	-10.225350	0.030097	2.149688	-0.492497
2.080	5.968843	1.886087	475.486350	-2.413372	-10.577790	0.033070	2.224625	-0.507559
2.090	6.294011	1.783981	475.228484	-2.479322	-10.920350	0.035263	2.297916	-0.521711
2.100	6.589586	1.684694	474.902352	-2.542353	-11.250503	0.035791	2.369014	-0.535342
2.110	6.855940	1.588096	474.521452	-2.604141	-11.566948	0.034498	2.437603	-0.548793
2.120	7.099579	1.493152	474.097661	-2.665420	-11.868678	0.031937	2.503425	-0.562209
2.130	7.329080	1.399462	473.640768	-2.725597	-12.154224	0.029019	2.566127	-0.575457
2.140	7.551497	1.308579	473.162940	-2.782879	-12.421406	0.026613	2.625186	-0.588144
2.150	7.770260	1.224442	472.683512	-2.834869	-12.667755	0.025337	2.679965	-0.599739
2.160	7.984734	1.152515	472.228917	-2.879403	-12.891392	0.025569	2.729903	-0.609747
2.170	8.191073	1.097841	471.826354	-2.915258	-13.091920	0.027575	2.774733	-0.617867
2.180	8.383676	1.062949	471.494696	-2.942362	-13.270744	0.031598	2.814612	-0.624050
2.190	8.556582	1.046662	471.238138	-2.961376	-13.430462	0.037805	2.850037	-0.628424
2.200	8.704233	1.044295	471.046172	-2.972889	-13.573500	0.046082	2.881565	-0.631125
2.210	8.821477	1.048911	470.899558	-2.976782	-13.700584	0.055784	2.909449	-0.632148
2.220	8.903332	1.052981	470.778926	-2.972205	-13.809851	0.065662	2.933405	-0.631338
2.230	8.945271	1.049982	470.671807	-2.958225	-13.897071	0.074184	2.952603	-0.628511
2.240	8.944300	1.035750	470.574964	-2.934714	-13.956985	0.080221	2.965943	-0.623644
2.250	8.900397	1.009450	470.491864	-2.902838	-13.985147	0.083707	2.972452	-0.616979
2.260	8.817595	0.973973	470.428507	-2.864706	-13.979449	0.085818	2.971641	-0.608957
2.270	8.704155	0.935812	470.391502	-2.822301	-13.940731	0.088455	2.963644	-0.599990
2.280	8.571354	0.904543	470.388943	-2.776279	-13.872301	0.093302	2.949113	-0.590209
2.290	8.430608	0.891717	470.431255	-2.725358	-13.778661	0.101039	2.928943	-0.579332
2.300	8.289498	0.908789	470.530158	-2.666704	-13.664075	0.111155	2.903974	-0.566744
2.310	8.148360	0.964137	470.697972	-2.597120	-13.531690	0.122343	2.874814	-0.551759
2.320	7.999575	1.059979	470.950539	-2.514430	-13.383708	0.133093	2.841850	-0.533905
2.330	7.830607	1.190508	471.312585	-2.418339	-13.222466	0.142132	2.805456	-0.513107
2.340	7.629825	1.342359	471.819154	-2.310439	-13.051749	0.148593	2.766261	-0.489687
2.350	7.392734	1.497669	472.507232	-2.193495	-12.877513	0.152064	2.725358	-0.464225
2.360	7.126122	1.638868	473.398368	-2.070509	-12.707504	0.152657	2.684315	-0.437371
2.370	6.848519	1.753546	474.479895	-1.944024	-12.549848	0.151093	2.644969	-0.409717
2.380	6.586435	1.837686	475.694163	-1.815796	-12.411143	0.148704	2.609059	-0.381715
2.390	6.367371	1.896198	476.941650	-1.686672	-12.294798	0.147186	2.577841	-0.353643
