Time[s]	Fx[N]	Fy[N]	Fz[N]	Mx[Nm]	My[Nm]	Mz[Nm]	COPx[cm]	COPy[cm]
0.010	4.707228	-1.523092	575.066071	-11.602741	-10.154237	-0.563497	1.765751	-2.017636
0.020	4.772701	-1.404949	575.841610	-11.360750	-10.315335	-0.573605	1.791349	-1.972895
0.030	4.822719	-1.282594	576.515958	-11.123648	-10.472087	-0.581228	1.816443	-1.929461
0.040	4.847442	-1.151594	577.013516	-10.894599	-10.621816	-0.584653	1.840826	-1.888101
0.050	4.845089	-1.006603	577.299722	-10.673512	-10.764189	-0.583495	1.864575	-1.848868
0.060	4.822635	-0.842871	577.385061	-10.458049	-10.900469	-0.578815	1.887903	-1.811278
0.070	4.793727	-0.658312	577.314284	-10.245751	-11.031861	-0.572680	1.910893	-1.774727
0.080	4.774244	-0.454853	577.144397	-10.035805	-11.157884	-0.567266	1.933291	-1.738873
0.090	4.776926	-0.238127	576.920413	-9.829280	-11.275752	-0.563903	1.954473	-1.703750
0.100	4.807148	-0.015550	576.659863	-9.627791	-11.381132	-0.562536	1.973630	-1.669579
0.110	4.861672	0.206251	576.353017	-9.431698	-11.469855	-0.561882	1.990075	-1.636445
0.120	4.930944	0.423363	575.977356	-9.239173	-11.539638	-0.560118	2.003488	-1.604086
0.130	5.003857	0.634859	575.517730	-9.046824	-11.591038	-0.555674	2.014019	-1.571945
0.140	5.072864	0.841126	574.982250	-8.851565	-11.627380	-0.547763	2.022215	-1.539450
0.150	5.137192	1.040909	574.407186	-8.652798	-11.653815	-0.536483	2.028842	-1.506388
0.160	5.202674	1.228562	573.848836	-8.453927	-11.675846	-0.522610	2.034655	-1.473198
0.170	5.278121	1.393190	573.365637	-8.262561	-11.697742	-0.507256	2.040189	-1.441063
0.180	5.369572	1.520644	572.998698	-8.089300	-11.721381	-0.491531	2.045621	-1.411748
0.190	5.474850	1.598137	572.760293	-7.945398	-11.745953	-0.476244	2.050762	-1.387212
0.200	5.581009	1.619967	572.635766	-7.840021	-11.768601	-0.461706	2.055163	-1.369111
0.210	5.666308	1.591878	572.596833	-7.777911	-11.785672	-0.447759	2.058284	-1.358357
0.220	5.706410	1.531434	572.618535	-7.758246	-11.794005	-0.434068	2.059662	-1.354872
0.230	5.682359	1.463312	572.691699	-7.775068	-11.791838	-0.420513	2.059020	-1.357636
0.240	5.586838	1.411180	572.826980	-7.819262	-11.779264	-0.407445	2.056339	-1.365030
0.250	5.426133	1.389811	573.051237	-7.881518	-11.758480	-0.395607	2.051907	-1.375360
0.260	5.217792	1.400759	573.399377	-7.955378	-11.734029	-0.385772	2.046397	-1.387406
0.270	4.986039	1.432637	573.904664	-8.039296	-11.712853	-0.378295	2.040906	-1.400807
0.280	4.757294	1.464917	574.588843	-8.136943	-11.703694	-0.372829	2.036882	-1.416133
0.290	4.556821	1.473447	575.452172	-8.255612	-11.715493	-0.368363	2.035876	-1.434630
0.300	4.406059	1.436081	576.464337	-8.403382	-11.755067	-0.363528	2.039166	-1.457745
0.310	4.319850	1.337346	577.559427	-8.585997	-11.824937	-0.357048	2.047397	-1.486600
0.320	4.303676	1.171369	578.638776	-8.804388	-11.922319	-0.348175	2.060408	-1.521569
0.330	4.352335	0.942663	579.583522	-9.053456	-12.039792	-0.336915	2.077318	-1.562062
0.340	4.451706	0.664865	580.275369	-9.322462	-12.167367	-0.323897	2.096826	-1.606558
0.350	4.583650	0.357988	580.620825	-9.597077	-12.295114	-0.309950	2.117581	-1.652899
0.360	4.731839	0.044865	580.571996	-9.862661	-12.415317	-0.295626	2.138463	-1.698784
0.370	4.885582	-0.252662	580.136820	-10.107787	-12.523405	-0.281044	2.158699	-1.742311
0.380	5.040089	-0.517300	579.374585	-10.326765	-12.617532	-0.266192	2.177785	-1.782399
0.390	5.194000	-0.738842	578.378111	-10.520330	-12.697333	-0.251472	2.195334	-1.818936
0.400	5.346392	-0.914882	577.249477	-10.694405	-12.762702	-0.238091	2.210951	-1.852649
0.410	5.495047	-1.049412	576.078597	-10.857544	-12.813237	-0.227955	2.224217	-1.884733
0.420	5.636262	-1.149884	574.931813	-11.017895	-12.848397	-0.223084	2.234769	-1.916383
0.430	5.765252	-1.223819	573.852175	-11.180578	-12.867862	-0.224828	2.242365	-1.948338
0.440	5.876196	-1.275950	572.867279	-11.346235	-12.871463	-0.233245	2.246849	-1.980604
0.450	5.961674	-1.306653	571.997623	-11.511247	-12.858421	-0.246915	2.247985	-2.012464
0.460	6.012081	-1.312382	571.260320	-11.669598	-12.826333	-0.263249	2.245269	-2.042781
0.470	6.016029	-1.288420	570.668372	-11.815622	-12.770800	-0.279167	2.237867	-2.070488
0.480	5.962565	-1.233272	570.230471	-11.946535	-12.686426	-0.291933	2.224789	-2.095036
0.490	5.845030	-1.152779	569.955993	-12.063792	-12.569159	-0.299880	2.205286	-2.116618
0.500	5.665150	-1.061919	569.864649	-12.172837	-12.419058	-0.302795	2.179300	-2.136093
0.510	5.435309	-0.983197	569.994638	-12.281477	-12.242088	-0.301845	2.147755	-2.154665
0.520	5.177277	-0.942048	570.401503	-12.397472	-12.049874	-0.299072	2.112525	-2.173464
0.530	4.917140	-0.960678	571.143728	-12.526141	-11.857294	-0.296756	2.076061	-2.193168
0.540	4.678104	-1.052115	572.258335	-12.668699	-11.678797	-0.296890	2.040826	-2.213808
0.550	4.474067	-1.215949	573.736012	-12.821754	-11.524870	-0.300855	2.008741	-2.234783
0.560	4.306587	-1.436892	575.506770	-12.978051	-11.399976	-0.309199	1.980859	-2.255065
0.570	4.166395	-1.686788	577.443178	-13.128142	-11.302596	-0.321495	1.957352	-2.273495
0.580	4.038696	-1.929968	579.380848	-13.262387	-11.227092	-0.336409	1.937774	-2.289062
0.590	3.909906	-2.130851	581.148633	-13.372633	-11.166417	-0.352107	1.921439	-2.301069
0.600	3.772863	-2.261814	582.597796	-13.453210	-11.114603	-0.366902	1.907766	-2.309176
0.610	3.628475	-2.309224	583.621899	-13.501251	-11.068260	-0.379818	1.896478	-2.313356
0.620	3.483843	-2.275891	584.165383	-13.516586	-11.026987	-0.390781	1.887648	-2.313829
0.630	3.348640	-2.179128	584.224143	-13.501432	-10.993015	-0.400349	1.881643	-2.311002
0.640	3.232020	-2.044999	583.841987	-13.460014	-10.970525	-0.409151	1.879023	-2.305421
0.650	3.141335	-1.900884	583.103301	-13.398126	-10.964801	-0.417352	1.880422	-2.297728
0.660	3.082523	-1.769140	582.119262	-13.322549	-10.981125	-0.424392	1.886405	-2.288629
0.670	3.061110	-1.663834	581.006671	-13.240261	-11.023393	-0.429176	1.897292	-2.278848
0.680	3.082729	-1.590645	579.864034	-13.157567	-11.092782	-0.430638	1.912997	-2.269078
0.690	3.152710	-1.548477	578.754113	-13.079337	-11.186956	-0.428447	1.932938	-2.259913
0.700	3.274989	-1.531227	577.700950	-13.008471	-11.300255	-0.423445	1.956074	-2.251766
0.710	3.450809	-1.529285	576.701961	-12.945621	-11.424885	-0.417534	1.981073	-2.244768
0.720	3.677524	-1.531199	575.747323	-12.889257	-11.552630	-0.412955	2.006545	-2.238700
0.730	3.947622	-1.525780	574.836212	-12.836267	-11.676407	-0.411299	2.031258	-2.233030
0.740	4.248131	-1.504225	573.983545	-12.783042	-11.791042	-0.412728	2.054247	-2.227075
0.750	4.560587	-1.461497	573.217287	-12.726728	-11.893160	-0.415836	2.074808	-2.220228
0.760	4.861870	-1.396406	572.570252	-12.666162	-11.980533	-0.418235	2.092413	-2.212159
0.770	5.126367	-1.310557	572.070985	-12.602094	-12.051445	-0.417615	2.106634	-2.202890
0.780	5.329864	-1.206915	571.737147	-12.536650	-12.104488	-0.412772	2.117142	-2.192730
0.790	5.454687	-1.088965	571.573181	-12.472340	-12.138783	-0.404130	2.123750	-2.182107
0.800	5.494236	-0.960913	571.572394	-12.411191	-12.154270	-0.393535	2.126462	-2.171412
0.810	5.454588	-0.828557	571.721877	-12.354446	-12.151691	-0.383475	2.125455	-2.160919
0.820	5.352018	-0.699943	572.007595	-12.302934	-12.132145	-0.376064	2.120976	-2.150834
0.830	5.207345	-0.584963	572.416919	-12.257791	-12.096524	-0.372241	2.113237	-2.141410
0.840	5.039607	-0.493729	572.937351	-12.220959	-12.045307	-0.371538	2.102378	-2.133036
0.850	4.861707	-0.434385	573.552529	-12.195070	-11.978984	-0.372479	2.088559	-2.126234
0.860	4.679598	-0.411355	574.238539	-12.182692	-11.898827	-0.373313	2.072105	-2.121539
0.870	4.494869	-0.424693	574.963579	-12.185380	-11.807381	-0.372683	2.053588	-2.119331
0.880	4.309013	-0.470502	575.691757	-12.203015	-11.708235	-0.370028	2.033768	-2.119713
0.890	4.126883	-0.541854	576.388740	-12.233683	-11.605210	-0.365688	2.013434	-2.122471
0.900	3.957347	-0.629665	577.025782	-12.274135	-11.501464	-0.360738	1.993232	-2.127138
0.910	3.810726	-0.723410	577.580326	-12.320684	-11.399003	-0.356601	1.973579	-2.133155
0.920	3.694490	-0.811894	578.034266	-12.370277	-11.298780	-0.354548	1.954690	-2.140059
0.930	3.609677	-0.884395	578.372485	-12.421244	-11.201312	-0.355328	1.936695	-2.147620
0.940	3.550334	-0.932309	578.583594	-12.473349	-11.107563	-0.359055	1.919785	-2.155842
0.950	3.506703	-0.951091	578.662812	-12.527188	-11.019660	-0.365371	1.904332	-2.164851
0.960	3.470688	-0.941877	578.615083	-12.583433	-10.941076	-0.373694	1.890908	-2.174750
0.970	3.440493	-0.912006	578.455927	-12.642344	-10.876086	-0.383391	1.880193	-2.185533
0.980	3.421504	-0.873877	578.208812	-12.703700	-10.828657	-0.393751	1.872793	-2.197078
0.990	3.422696	-0.842149	577.900396	-12.767018	-10.801160	-0.403839	1.869035	-2.209207
1.000	3.450623	-0.830026	577.556509	-12.831845	-10.793460	-0.412394	1.868814	-2.221747
1.010	3.504645	-0.845843	577.200880	-12.898020	-10.802907	-0.417935	1.871603	-2.234581
1.020	3.576266	-0.891162	576.856161	-12.965818	-10.825376	-0.419133	1.876616	-2.247669
1.030	3.652849	-0.961087	576.545124	-13.035892	-10.856924	-0.415298	1.883101	-2.261036
1.040	3.723362	-1.046654	576.290356	-13.108981	-10.895231	-0.406773	1.890580	-2.274718
1.050	3.782958	-1.138358	576.112472	-13.185522	-10.940092	-0.395042	1.898951	-2.288706
1.060	3.834263	-1.229291	576.028040	-13.265480	-10.992876	-0.382480	1.908393	-2.302923
1.070	3.885191	-1.316497	576.047827	-13.348687	-11.055414	-0.371763	1.919183	-2.317288
1.080	3.944773	-1.400059	576.174400	-13.435578	-11.129041	-0.365079	1.931540	-2.331860
1.090	4.019184	-1.480724	576.397672	-13.527774	-11.214203	-0.363368	1.945567	-2.346952
1.100	4.109744	-1.557708	576.689251	-13.627857	-11.310488	-0.365903	1.961279	-2.363120
1.110	4.213256	-1.628193	576.999670	-13.738153	-11.416530	-0.370446	1.978603	-2.380964
1.120	4.323699	-1.688827	577.263102	-13.858973	-11.529507	-0.373981	1.997271	-2.400807
1.130	4.433973	-1.738099	577.410333	-13.987235	-11.644586	-0.373781	2.016692	-2.422408
1.140	4.537054	-1.777849	577.385471	-14.116327	-11.755045	-0.368384	2.035909	-2.444871
1.150	4.626857	-1.812929	577.159563	-14.237548	-11.853324	-0.358071	2.053734	-2.466831
1.160	4.699317	-1.849385	576.736548	-14.342643	-11.932631	-0.344652	2.068992	-2.486862
1.170	4.753620	-1.892327	576.151262	-14.426333	-11.988415	-0.330694	2.080776	-2.503914
1.180	4.792753	-1.944427	575.461941	-14.487740	-12.019253	-0.318563	2.088627	-2.517584
1.190	4.822476	-2.005260	574.739833	-14.530266	-12.026926	-0.309735	2.092586	-2.528147
1.200	4.848859	-2.071182	574.057820	-14.560150	-12.015683	-0.304591	2.093114	-2.536356
1.210	4.875497	-2.135464	573.479672	-14.584394	-11.990847	-0.302610	2.090893	-2.543141
1.220	4.901703	-2.188900	573.051642	-14.608759	-11.957156	-0.302729	2.086576	-2.549292
1.230	4.922274	-2.221478	572.798017	-14.636428	-11.917425	-0.303678	2.080563	-2.555251
1.240	4.928659	-2.225329	572.721680	-14.667647	-11.871996	-0.304308	2.072909	-2.561043
1.250	4.911017	-2.198076	572.809502	-14.700346	-11.819113	-0.304003	2.063358	-2.566359
1.260	4.860895	-2.144864	573.040434	-14.731389	-11.755948	-0.303110	2.051504	-2.570742
1.270	4.774275	-2.077765	573.392724	-14.757861	-11.679766	-0.303130	2.036957	-2.573779
1.280	4.654186	-2.012683	573.847406	-14.777887	-11.588842	-0.306391	2.019499	-2.575229
1.290	4.511343	-1.965095	574.387665	-14.790781	-11.482977	-0.315214	1.999168	-2.575052
1.300	4.361683	-1.946069	574.995699	-14.796658	-11.363719	-0.330900	1.976314	-2.573351
1.310	4.221375	-1.959473	575.649032	-14.795840	-11.234336	-0.353094	1.951595	-2.570288
1.320	4.101551	-2.000773	576.318064	-14.788433	-11.099525	-0.379852	1.925937	-2.566019
1.330	4.005218	-2.057667	576.966662	-14.774370	-10.964785	-0.408348	1.900419	-2.560697
1.340	3.927608	-2.112699	577.556759	-14.754034	-10.835508	-0.435762	1.876094	-2.554560
1.350	3.859495	-2.147711	578.055659	-14.729142	-10.716048	-0.459849	1.853809	-2.548049
1.360	3.791836	-2.149294	578.442624	-14.703213	-10.609137	-0.479079	1.834086	-2.541862
1.370	3.719654	-2.113558	578.711266	-14.680928	-10.515863	-0.492597	1.817117	-2.536831
1.380	3.643669	-2.048175	578.866261	-14.666375	-10.436056	-0.500292	1.802844	-2.533638
1.390	3.569284	-1.970509	578.915775	-14.661073	-10.368711	-0.503000	1.791057	-2.532505
1.400	3.503728	-1.902263	578.863366	-14.662930	-10.312142	-0.502555	1.781447	-2.533055
1.410	3.452958	-1.862580	578.704002	-14.666780	-10.263939	-0.501393	1.773608	-2.534418
1.420	3.419943	-1.862191	578.427377	-14.666188	-10.221096	-0.501761	1.767049	-2.535528
1.430	3.405000	-1.900576	578.028023	-14.655697	-10.180588	-0.504840	1.761262	-2.535465
1.440	3.407361	-1.966773	577.517426	-14.632601	-10.140234	-0.510228	1.755832	-2.533707
1.450	3.426286	-2.043185	576.931244	-14.597656	-10.099342	-0.516035	1.750528	-2.530225
1.460	3.460695	-2.110949	576.326714	-14.554557	-10.058736	-0.519531	1.745318	-2.525400
1.470	3.507944	-2.155231	575.770235	-14.508423	-10.020070	-0.518096	1.740290	-2.519829
1.480	3.563118	-2.168935	575.319954	-14.463939	-9.984797	-0.510092	1.735521	-2.514069
1.490	3.619461	-2.153800	575.010681	-14.423959	-9.953356	-0.495390	1.730986	-2.508468
1.500	3.669372	-2.118808	574.847580	-14.389215	-9.925030	-0.475378	1.726550	-2.503136
1.510	3.705304	-2.076772	574.810825	-14.359198	-9.898483	-0.452491	1.722042	-2.498074
1.520	3.720671	-2.040470	574.868199	-14.333549	-9.872533	-0.429474	1.717356	-2.493363
1.530	3.711205	-2.019444	574.989867	-14.312996	-9.846666	-0.408612	1.712494	-2.489261
1.540	3.676671	-2.018226	575.160061	-14.299186	-9.821106	-0.391158	1.707543	-2.486123
1.550	3.621990	-2.036301	575.382431	-14.293572	-9.796691	-0.377106	1.702640	-2.484186
1.560	3.556692	-2.069719	575.677535	-14.296182	-9.774919	-0.365447	1.697985	-2.483366
1.570	3.492388	-2.113682	576.072744	-14.305191	-9.758203	-0.354850	1.693919	-2.483226
1.580	3.439175	-2.164913	576.586840	-14.317625	-9.749994	-0.344471	1.690985	-2.483169
1.590	3.402588	-2.222451	577.213755	-14.330696	-9.754297	-0.334476	1.689893	-2.482736
1.600	3.382530	-2.286341	577.911628	-14.342905	-9.774530	-0.325926	1.691354	-2.481851
1.610	3.374643	-2.355010	578.603206	-14.354234	-9.812234	-0.320087	1.695849	-2.480842
1.620	3.373432	-2.423057	579.189803	-14.365321	-9.866322	-0.317529	1.703470	-2.480244
1.630	3.375488	-2.481017	579.574461	-14.376161	-9.933238	-0.317562	1.713885	-2.480468
1.640	3.381252	-2.517660	579.685389	-14.385189	-10.007793	-0.318322	1.726418	-2.481551
1.650	3.394753	-2.524178	579.491047	-14.389437	-10.084164	-0.317401	1.740176	-2.483116
1.660	3.421788	-2.498388	579.002675	-14.385729	-10.156658	-0.312655	1.754164	-2.484570
1.670	3.467381	-2.446745	578.265637	-14.372200	-10.220266	-0.302854	1.767400	-2.485398
1.680	3.533470	-2.382884	577.345476	-14.349143	-10.271197	-0.288047	1.779038	-2.485365
1.690	3.617816	-2.323149	576.315532	-14.318609	-10.307386	-0.269644	1.788497	-2.484509
1.700	3.714789	-2.280937	575.249876	-14.282935	-10.328784	-0.250179	1.795530	-2.482910
1.710	3.817705	-2.262054	574.220611	-14.243073	-10.337171	-0.232747	1.800209	-2.480418
1.720	3.921387	-2.262822	573.296304	-14.197697	-10.335427	-0.220208	1.802807	-2.476502
1.730	4.023327	-2.271583	572.539072	-14.143553	-10.326447	-0.214414	1.803623	-2.470321
1.740	4.122690	-2.272768	572.000106	-14.076776	-10.312121	-0.215776	1.802818	-2.460974
1.750	4.217736	-2.251547	571.714842	-13.994323	-10.292725	-0.223339	1.800325	-2.447780
1.760	4.303278	-2.197123	571.699213	-13.894785	-10.266983	-0.235220	1.795871	-2.430436
1.770	4.369938	-2.104106	571.947996	-13.778309	-10.232817	-0.249136	1.789117	-2.409014
1.780	4.406075	-1.972739	572.435915	-13.645918	-10.188549	-0.262816	1.779858	-2.383833
1.790	4.401872	-1.809024	573.121304	-13.498843	-10.133998	-0.274295	1.768212	-2.355320
1.800	4.353776	-1.624780	573.951015	-13.338313	-10.070835	-0.282142	1.754651	-2.323946
1.810	4.267063	-1.436772	574.864938	-13.165761	-10.001927	-0.285680	1.739874	-2.290236
1.820	4.155009	-1.264040	575.799640	-12.982993	-9.930042	-0.285148	1.724566	-2.254776
1.830	4.034795	-1.123605	576.691931	-12.791932	-9.856700	-0.281739	1.709179	-2.218157
1.840	3.921794	-1.025911	577.483419	-12.594060	-9.781775	-0.277363	1.693862	-2.180852
1.850	3.824593	-0.971899	578.125767	-12.389959	-9.703961	-0.274127	1.678521	-2.143125
1.860	3.742760	-0.952877	578.584944	-12.179251	-9.621672	-0.273661	1.662966	-2.105007
1.870	3.668332	-0.952957	578.843048	-11.960879	-9.533810	-0.276578	1.647046	-2.066342
1.880	3.590687	-0.952804	578.897979	-11.733499	-9.440080	-0.282285	1.630698	-2.026868
1.890	3.502856	-0.933487	578.762248	-11.495904	-9.340854	-0.289231	1.613936	-1.986291
1.900	3.406169	-0.879770	578.461547	-11.247455	-9.236895	-0.295561	1.596804	-1.944374
1.910	3.310445	-0.782588	578.032474	-10.988513	-9.129150	-0.299951	1.579349	-1.901020
1.920	3.229072	-0.640488	577.518553	-10.720853	-9.018665	-0.302263	1.561623	-1.856365
1.930	3.171327	-0.459804	576.964803	-10.448014	-8.906598	-0.303688	1.543699	-1.810858
1.940	3.136178	-0.253413	576.412681	-10.175432	-8.794337	-0.306311	1.525702	-1.765303
1.950	3.111158	-0.038127	575.898240	-9.910048	-8.683761	-0.312338	1.507864	-1.720798
1.960	3.077097	0.168924	575.455362	-9.659127	-8.577633	-0.323362	1.490582	-1.678519
1.970	3.016396	0.354058	575.122532	-9.428547	-8.480023	-0.339918	1.474472	-1.639398
1.980	2.920913	0.509622	574.947541	-9.221318	-8.396514	-0.361434	1.460397	-1.603854
1.990	2.796118	0.634198	574.983544	-9.037135	-8.333822	-0.386489	1.449402	-1.571721
2.000	2.659983	0.730391	575.274179	-8.873163	-8.298627	-0.413191	1.442552	-1.542423
2.010	2.537246	0.801724	575.832333	-8.725453	-8.295833	-0.439519	1.440668	-1.515277
2.020	2.451302	0.850760	576.622260	-8.590241	-8.326981	-0.463570	1.444096	-1.489752
2.030	2.416823	0.879593	577.554943	-8.464615	-8.389606	-0.483775	1.452607	-1.465595
2.040	2.435915	0.891942	578.501426	-8.346544	-8.477889	-0.499126	1.465492	-1.442787
2.050	2.499225	0.894961	579.320572	-8.234467	-8.584242	-0.509394	1.481777	-1.421401
2.060	2.591311	0.899237	579.890794	-8.126821	-8.701052	-0.515233	1.500464	-1.401440
2.070	2.697660	0.916782	580.134225	-8.021833	-8.821987	-0.518048	1.520680	-1.382755
2.080	2.810000	0.957884	580.026408	-7.917803	-8.942597	-0.519545	1.541757	-1.365076
2.090	2.927510	1.028011	579.591532	-7.813788	-9.060255	-0.521087	1.563214	-1.348154
2.100	3.053914	1.125836	578.888451	-7.710272	-9.173575	-0.523148	1.584688	-1.331910
2.110	3.192617	1.242965	577.994042	-7.609317	-9.281545	-0.525163	1.605820	-1.316504
2.120	3.342762	1.365506	576.988904	-7.513954	-9.382772	-0.525865	1.626162	-1.302270
2.130	3.498118	1.477273	575.948099	-7.427094	-9.475176	-0.523942	1.645144	-1.289542
2.140	3.648919	1.564044	574.937351	-7.350506	-9.556291	-0.518736	1.662145	-1.278488
2.150	3.785266	1.617813	574.012552	-7.284319	-9.624018	-0.510718	1.676622	-1.269017
2.160	3.900146	1.639565	573.219013	-7.227205	-9.677433	-0.501555	1.688261	-1.260810
2.170	3.990660	1.639290	572.588955	-7.177087	-9.717263	-0.493703	1.697075	-1.253445
2.180	4.057238	1.633017	572.139472	-7.132127	-9.745827	-0.489575	1.703401	-1.246571
2.190	4.101743	1.637949	571.874609	-7.091656	-9.766498	-0.490541	1.707804	-1.240072
2.200	4.125841	1.667321	571.792377	-7.056692	-9.782920	-0.496175	1.710922	-1.234135
2.210	4.130582	1.726289	571.893051	-7.029867	-9.798290	-0.504163	1.713308	-1.229228
2.220	4.117113	1.809609	572.182629	-7.014836	-9.814926	-0.511008	1.715349	-1.225978
2.230	4.087587	1.901672	572.666973	-7.015531	-9.834135	-0.513293	1.717252	-1.225063
2.240	4.045202	1.979348	573.337851	-7.035584	-9.856207	-0.508944	1.719092	-1.227127
2.250	3.992986	2.017554	574.158622	-7.077905	-9.880331	-0.497967	1.720836	-1.232744
2.260	3.932048	1.996451	575.059396	-7.144116	-9.904415	-0.482387	1.722329	-1.242327
2.270	3.860834	1.908202	575.946845	-7.233642	-9.925124	-0.465492	1.723271	-1.255957
2.280	3.776446	1.761039	576.725554	-7.342733	-9.938385	-0.450711	1.723243	-1.273176
2.290	3.677519	1.578962	577.322034	-7.464115	-9.940381	-0.440502	1.721809	-1.292886
2.300	3.566804	1.396700	577.702034	-7.587920	-9.928703	-0.435654	1.718655	-1.313466
2.310	3.451807	1.251018	577.875485	-7.704055	-9.903378	-0.435242	1.713756	-1.333169
