Time[s]	Fx[N]	Fy[N]	Fz[N]	Mx[Nm]	My[Nm]	Mz[Nm]	COPx[cm]	COPy[cm]
0.010	3.750034	2.017607	621.095354	2.889009	2.081664	0.248192	-0.335160	0.465147
0.020	3.767652	2.083906	620.895261	2.842619	1.985159	0.243946	-0.319725	0.457826
0.030	3.791754	2.127728	620.720026	2.791640	1.875986	0.240497	-0.302227	0.449742
0.040	3.825478	2.132819	620.587180	2.733405	1.747379	0.238721	-0.281569	0.440455
0.050	3.867087	2.093679	620.503309	2.668003	1.601226	0.239550	-0.258053	0.429974
0.060	3.911904	2.016587	620.466149	2.598120	1.447290	0.243629	-0.233259	0.418737
0.070	3.956007	1.917165	620.469712	2.528090	1.299357	0.250907	-0.209415	0.407448
0.080	3.999351	1.815562	620.508784	2.462696	1.170218	0.260453	-0.188590	0.396883
0.090	4.046469	1.731047	620.579733	2.406084	1.067640	0.270636	-0.172039	0.387716
0.100	4.104196	1.677580	620.676861	2.360904	0.992732	0.279598	-0.159944	0.380376
0.110	4.177430	1.661188	620.786932	2.327794	0.941004	0.285851	-0.151582	0.374975
0.120	4.265036	1.679364	620.886854	2.305370	0.905311	0.288810	-0.145809	0.371303
0.130	4.358155	1.722432	620.948251	2.290784	0.879288	0.289099	-0.141604	0.368917
0.140	4.442151	1.776510	620.948027	2.280731	0.859866	0.288459	-0.138476	0.367298
0.150	4.501552	1.827176	620.879271	2.272511	0.847958	0.289195	-0.136574	0.366015
0.160	4.525832	1.862763	620.755952	2.264785	0.847236	0.293290	-0.136485	0.364843
0.170	4.513541	1.876482	620.608902	2.257884	0.861773	0.301555	-0.138859	0.363818
0.180	4.473073	1.867144	620.475847	2.253682	0.893729	0.313233	-0.144039	0.363218
0.190	4.419587	1.838656	620.390564	2.255051	0.942118	0.326267	-0.151859	0.363489
0.200	4.369060	1.798712	620.374918	2.264832	1.002969	0.338092	-0.161671	0.365075
0.210	4.331867	1.757055	620.435109	2.284418	1.070518	0.346564	-0.172543	0.368196
0.220	4.308838	1.723545	620.562074	2.312339	1.138724	0.350660	-0.183499	0.372620
0.230	4.291743	1.705905	620.735677	2.343468	1.202635	0.350752	-0.193744	0.377531
0.240	4.267763	1.707037	620.931518	2.369491	1.259452	0.348479	-0.202833	0.381603
0.250	4.225346	1.722496	621.127987	2.380854	1.309223	0.346298	-0.210781	0.383311
0.260	4.158363	1.739627	621.310905	2.369743	1.354949	0.346850	-0.218079	0.381410
0.270	4.066909	1.739977	621.474486	2.333058	1.401878	0.352209	-0.225573	0.375407
0.280	3.955215	1.705181	621.619016	2.274347	1.456070	0.363192	-0.234238	0.365875
0.290	3.828641	1.624502	621.746391	2.203997	1.522648	0.378954	-0.244899	0.354485
0.300	3.691775	1.501012	621.854716	2.137395	1.604220	0.397041	-0.257973	0.343713
0.310	3.548408	1.353790	621.933753	2.091237	1.699882	0.413879	-0.273322	0.336248
0.320	3.402668	1.214909	621.963963	2.078853	1.805028	0.425551	-0.290214	0.334240
0.330	3.260040	1.121593	621.921563	2.106077	1.912050	0.428688	-0.307442	0.338640
0.340	3.127413	1.105490	621.789301	2.169312	2.011753	0.421304	-0.323543	0.348882
0.350	3.011961	1.182413	621.568561	2.256768	2.095101	0.403411	-0.337067	0.363076
0.360	2.919089	1.346282	621.285733	2.352524	2.154828	0.377254	-0.346834	0.378654
0.370	2.850295	1.569818	620.987022	2.441948	2.186536	0.346990	-0.352107	0.393237
0.380	2.802364	1.812078	620.721957	2.516445	2.189033	0.317798	-0.352659	0.405406
0.390	2.768995	2.030380	620.523383	2.575806	2.163951	0.294543	-0.348730	0.415102
0.400	2.744390	2.192589	620.394786	2.627323	2.114878	0.280445	-0.340892	0.423492
0.410	2.726629	2.285522	620.311625	2.682058	2.046374	0.276233	-0.329894	0.432373
0.420	2.718606	2.316674	620.235315	2.749815	1.963195	0.280139	-0.316524	0.443350
0.430	2.726007	2.308965	620.132314	2.834896	1.869955	0.288724	-0.301541	0.457144
0.440	2.753812	2.290808	619.989472	2.934436	1.771198	0.298143	-0.285682	0.473304
0.450	2.803472	2.285504	619.819839	3.039789	1.671675	0.305356	-0.269703	0.490431
0.460	2.872235	2.304006	619.658351	3.140008	1.576492	0.308842	-0.254413	0.506732
0.470	2.954702	2.343490	619.550856	3.225663	1.490842	0.308686	-0.240633	0.520645
0.480	3.045482	2.391679	619.540966	3.291561	1.419268	0.306116	-0.229084	0.531290
0.490	3.141170	2.434499	619.657971	3.337812	1.364697	0.302759	-0.220234	0.538654
0.500	3.240510	2.463405	619.907783	3.369349	1.327655	0.299906	-0.214170	0.543524
0.510	3.342945	2.479189	620.268250	3.394291	1.306011	0.298054	-0.210556	0.547230
0.520	3.446896	2.490964	620.690077	3.421587	1.295400	0.296799	-0.208703	0.551255
0.530	3.549065	2.511263	621.104303	3.458398	1.290239	0.295064	-0.207733	0.556814
0.540	3.645075	2.549652	621.436486	3.507898	1.285065	0.291541	-0.206789	0.564482
0.550	3.730681	2.607693	621.625766	3.568220	1.275897	0.285231	-0.205252	0.574014
0.560	3.802397	2.677524	621.643300	3.633075	1.261206	0.275899	-0.202883	0.584431
0.570	3.857155	2.744731	621.501724	3.693937	1.242204	0.264306	-0.199871	0.594357
0.580	3.891732	2.794237	621.249539	3.743010	1.222333	0.252138	-0.196754	0.602497
0.590	3.903011	2.816445	620.952685	3.775817	1.206088	0.241663	-0.194232	0.608068
0.600	3.889421	2.810876	620.673787	3.792405	1.197513	0.235202	-0.192938	0.611014
0.610	3.852760	2.785818	620.459741	3.796719	1.198807	0.234504	-0.193213	0.611920
0.620	3.798992	2.754428	620.340065	3.794596	1.209559	0.240207	-0.194983	0.611696
0.630	3.736973	2.729293	620.329646	3.791428	1.226918	0.251601	-0.197785	0.611196
0.640	3.675238	2.717883	620.428485	3.790618	1.246686	0.266861	-0.200940	0.610968
0.650	3.618338	2.720662	620.617589	3.793374	1.264855	0.283640	-0.203806	0.611226
0.660	3.564882	2.732339	620.856709	3.799537	1.278934	0.299657	-0.205995	0.611983
0.670	3.508764	2.745520	621.089920	3.808612	1.288509	0.313015	-0.207459	0.613214
0.680	3.443275	2.755006	621.259642	3.820307	1.294931	0.322261	-0.208436	0.614929
0.690	3.365857	2.760693	621.324146	3.834437	1.300497	0.326460	-0.209311	0.617140
0.700	3.280725	2.767619	621.271739	3.850528	1.307642	0.325433	-0.210478	0.619782
0.710	3.197959	2.783085	621.126126	3.867595	1.318408	0.320006	-0.212261	0.622675
0.720	3.129837	2.812331	620.939928	3.884344	1.334071	0.311989	-0.214847	0.625559
0.730	3.086556	2.855071	620.777206	3.899651	1.354729	0.303736	-0.218231	0.628188
0.740	3.073151	2.904726	620.691030	3.912955	1.378937	0.297453	-0.222162	0.630419
0.750	3.088223	2.950685	620.705673	3.924323	1.403753	0.294506	-0.226154	0.632236
0.760	3.124207	2.982444	620.810875	3.934244	1.425442	0.295033	-0.229610	0.633727
0.770	3.168855	2.993767	620.968944	3.943397	1.440670	0.297985	-0.232003	0.635039
0.780	3.207808	2.985098	621.129559	3.952508	1.447706	0.301581	-0.233076	0.636342
0.790	3.228017	2.963141	621.245928	3.962241	1.447142	0.304003	-0.232942	0.637790
0.800	3.221318	2.937809	621.288102	3.973045	1.441831	0.304096	-0.232071	0.639485
0.810	3.186938	2.918078	621.250803	3.984986	1.436111	0.301815	-0.231164	0.641446
0.820	3.131747	2.908751	621.153331	3.997653	1.434546	0.298183	-0.230949	0.643586
0.830	3.067835	2.909485	621.030710	4.010208	1.440528	0.294763	-0.231958	0.645734
0.840	3.008343	2.916090	620.919616	4.021582	1.455145	0.292895	-0.234353	0.647682
0.850	2.963486	2.923103	620.846269	4.030766	1.476649	0.293079	-0.237845	0.649237
0.860	2.938614	2.926371	620.821970	4.037052	1.500732	0.294840	-0.241733	0.650275
0.870	2.934742	2.924695	620.846348	4.040137	1.521523	0.297079	-0.245072	0.650747
0.880	2.950441	2.919966	620.913699	4.040036	1.533048	0.298687	-0.246902	0.650660
0.890	2.983397	2.915772	621.017449	4.036884	1.530668	0.299061	-0.246477	0.650043
0.900	3.030537	2.915125	621.150685	4.030744	1.512071	0.298317	-0.243431	0.648916
0.910	3.086922	2.918467	621.303742	4.021565	1.477504	0.297176	-0.237807	0.647278
0.920	3.144665	2.923135	621.461064	4.009294	1.429308	0.296623	-0.229992	0.645140
0.930	3.193455	2.924769	621.599723	3.994015	1.371075	0.297474	-0.220572	0.642538
0.940	3.223345	2.919979	621.691826	3.975922	1.306846	0.299973	-0.210208	0.639533
0.950	3.228928	2.908565	621.711887	3.955080	1.240545	0.303559	-0.199537	0.636160
0.960	3.212843	2.893756	621.647194	3.931187	1.175605	0.306969	-0.189111	0.632382
0.970	3.186543	2.880293	621.505982	3.903561	1.114549	0.308694	-0.179330	0.628081
0.980	3.167411	2.871620	621.317880	3.871398	1.058430	0.307620	-0.170352	0.623095
0.990	3.172959	2.867872	621.124774	3.834149	1.006301	0.303535	-0.162013	0.617291
1.000	3.214181	2.865577	620.965684	3.791825	0.955157	0.297289	-0.153818	0.610634
1.010	3.290779	2.858907	620.862971	3.745202	0.900693	0.290534	-0.145071	0.603225
1.020	3.390434	2.841749	620.816609	3.695907	0.838853	0.285157	-0.135121	0.595330
1.030	3.492732	2.809875	620.808820	3.646216	0.767579	0.282614	-0.123642	0.587333
1.040	3.576265	2.762593	620.815884	3.598437	0.687915	0.283436	-0.110808	0.579630
1.050	3.626031	2.703302	620.820778	3.553979	0.603760	0.287125	-0.097252	0.572465
1.060	3.638311	2.638549	620.820807	3.512583	0.520189	0.292456	-0.083791	0.565797
1.070	3.621432	2.575748	620.827727	3.472279	0.440990	0.298039	-0.071033	0.559298
1.080	3.592561	2.520379	620.861644	3.430287	0.366552	0.302879	-0.059039	0.552504
1.090	3.572007	2.473868	620.942332	3.384508	0.293192	0.306688	-0.047217	0.545060
1.100	3.577153	2.433241	621.081500	3.334794	0.214381	0.309822	-0.034517	0.536933
1.110	3.618119	2.392942	621.277400	3.283318	0.123483	0.312891	-0.019876	0.528479
1.120	3.696374	2.348142	621.511494	3.233839	0.016880	0.316266	-0.002716	0.520319
1.130	3.806200	2.297931	621.747568	3.190276	-0.103905	0.319759	0.016712	0.513114
1.140	3.937653	2.246517	621.935221	3.155219	-0.232000	0.322667	0.037303	0.507323
1.150	4.079447	2.201469	622.019682	3.128967	-0.356885	0.324094	0.057375	0.503034
1.160	4.220852	2.169787	621.957246	3.109370	-0.467141	0.323354	0.075108	0.499933
1.170	4.352582	2.154117	621.731271	3.092530	-0.553193	0.320263	0.088976	0.497406
1.180	4.467134	2.151407	621.361023	3.074165	-0.609358	0.315269	0.098068	0.494747
1.190	4.558981	2.154647	620.897954	3.051087	-0.634979	0.309456	0.102268	0.491399
1.200	4.624679	2.156373	620.410628	3.022116	-0.634580	0.304380	0.102284	0.487115
1.210	4.662842	2.151834	619.965872	2.987983	-0.616888	0.301713	0.099503	0.481959
1.220	4.674004	2.140326	619.615084	2.950385	-0.592725	0.302692	0.095660	0.476164
1.230	4.660510	2.124436	619.389996	2.910883	-0.572288	0.307583	0.092395	0.469960
1.240	4.626421	2.107872	619.305473	2.870326	-0.562761	0.315453	0.090870	0.463475
1.250	4.577190	2.093083	619.363425	2.829036	-0.567128	0.324462	0.091566	0.456765
1.260	4.518876	2.079863	619.553910	2.787468	-0.584408	0.332621	0.094327	0.449915
1.270	4.456973	2.065546	619.853916	2.746885	-0.610894	0.338616	0.098555	0.443150
1.280	4.395233	2.046472	620.227231	2.709709	-0.641712	0.342230	0.103464	0.436890
1.290	4.335133	2.019770	620.628470	2.679376	-0.672129	0.344120	0.108298	0.431720
1.300	4.276674	1.984551	621.011590	2.659644	-0.698412	0.345137	0.112464	0.428276
1.310	4.220605	1.942334	621.339982	2.653419	-0.718241	0.345707	0.115595	0.427048
1.320	4.170928	1.897056	621.593623	2.661356	-0.730789	0.345672	0.117567	0.428150
1.330	4.135872	1.854911	621.769599	2.680823	-0.736625	0.344621	0.118472	0.431160
1.340	4.126096	1.823635	621.875211	2.705950	-0.737480	0.342358	0.118590	0.435127
1.350	4.150555	1.810814	621.916896	2.729063	-0.735905	0.339124	0.118329	0.438815
1.360	4.211963	1.821259	621.891620	2.743090	-0.734723	0.335426	0.118143	0.441088
1.370	4.304160	1.854346	621.787481	2.743931	-0.736269	0.331653	0.118412	0.441297
1.380	4.412677	1.902792	621.595488	2.731849	-0.741509	0.327779	0.119291	0.439490
1.390	4.518130	1.954042	621.326419	2.711356	-0.749280	0.323371	0.120594	0.436382
1.400	4.600959	1.994309	621.020601	2.689756	-0.755993	0.317835	0.121734	0.433119
1.410	4.646007	2.013906	620.740790	2.675055	-0.756117	0.310738	0.121809	0.430946
1.420	4.645941	2.011691	620.549629	2.674067	-0.743526	0.302056	0.119817	0.430919
1.430	4.602888	1.996561	620.484446	2.691175	-0.713347	0.292263	0.114966	0.433722
1.440	4.527835	1.985137	620.543397	2.727735	-0.663607	0.282253	0.106940	0.439572
1.450	4.437609	1.996377	620.688692	2.782019	-0.595955	0.273153	0.096015	0.448215
1.460	4.349973	2.045019	620.863219	2.849743	-0.515116	0.266065	0.082968	0.458997
1.470	4.278190	2.136090	621.012251	2.925215	-0.427302	0.261812	0.068807	0.471040
1.480	4.227050	2.262394	621.101832	3.002861	-0.338261	0.260722	0.054461	0.483473
1.490	4.191998	2.406046	621.127489	3.078546	-0.251688	0.262554	0.040521	0.495638
1.500	4.161744	2.543770	621.110523	3.150152	-0.168522	0.266604	0.027132	0.507181
1.510	4.123095	2.654149	621.084024	3.217220	-0.087226	0.271903	0.014044	0.518001
1.520	4.065891	2.724094	621.075796	3.280073	-0.004854	0.277416	0.000782	0.528128
1.530	3.986201	2.752127	621.097379	3.339040	0.081560	0.282161	-0.013132	0.537603
1.540	3.887265	2.747578	621.144890	3.394249	0.173792	0.285301	-0.027979	0.546451
1.550	3.778610	2.726526	621.209767	3.445926	0.271783	0.286273	-0.043751	0.554712
1.560	3.673966	2.706248	621.291000	3.494735	0.373716	0.285018	-0.060152	0.562496
1.570	3.588158	2.700056	621.399740	3.541643	0.476768	0.282207	-0.076725	0.569946
1.580	3.533219	2.713893	621.552806	3.587187	0.578181	0.279250	-0.093022	0.577133
1.590	3.514572	2.745535	621.759273	3.630570	0.676192	0.277927	-0.108755	0.583919
1.600	3.528550	2.786351	622.008724	3.669402	0.770371	0.279719	-0.123852	0.589928
1.610	3.562261	2.824806	622.268303	3.700492	0.861284	0.285155	-0.138410	0.594678
1.620	3.596128	2.850464	622.490334	3.721274	0.949832	0.293528	-0.152586	0.597804
1.630	3.608656	2.857353	622.627249	3.730766	1.036760	0.303144	-0.166514	0.599197
1.640	3.582286	2.845860	622.647744	3.729297	1.122525	0.312052	-0.180282	0.598942
1.650	3.508766	2.822498	622.547483	3.717317	1.207254	0.318905	-0.193922	0.597114
1.660	3.392327	2.797362	622.349619	3.694365	1.290480	0.323535	-0.207356	0.593616
1.670	3.249475	2.779856	622.095148	3.659037	1.370621	0.326982	-0.220323	0.588180
1.680	3.105055	2.774252	621.828142	3.609973	1.444605	0.331000	-0.232316	0.580542
1.690	2.985425	2.777029	621.582743	3.547124	1.508046	0.337276	-0.242614	0.570660
1.700	2.910718	2.777475	621.376580	3.472447	1.556143	0.346696	-0.250435	0.558831
1.710	2.888763	2.761735	621.211502	3.389624	1.585019	0.358906	-0.255150	0.545647
1.720	2.912919	2.718791	621.079488	3.303028	1.593007	0.372337	-0.256490	0.531820
1.730	2.964654	2.645820	620.969820	3.216539	1.581403	0.384662	-0.254667	0.517986
1.740	3.020084	2.550506	620.873868	3.132734	1.554441	0.393537	-0.250363	0.504568
1.750	3.058144	2.449294	620.786647	3.052600	1.518504	0.397351	-0.244610	0.491731
1.760	3.067423	2.362330	620.707795	2.975703	1.480857	0.395700	-0.238576	0.479405
1.770	3.049161	2.306944	620.644896	2.900726	1.448312	0.389400	-0.233356	0.467373
1.780	3.015498	2.291912	620.618469	2.826234	1.426156	0.380066	-0.229796	0.455390
1.790	2.984039	2.314375	620.663867	2.751432	1.417539	0.369466	-0.228391	0.443305
1.800	2.970961	2.360601	620.825212	2.676585	1.423373	0.358937	-0.229271	0.431133
1.810	2.985133	2.410450	621.140855	2.602942	1.442737	0.349051	-0.232272	0.419058
1.820	3.025174	2.444005	621.625361	2.532300	1.473586	0.339561	-0.237054	0.407368
1.830	3.080364	2.447976	622.255365	2.466476	1.513478	0.329537	-0.243225	0.396377
1.840	3.135044	2.419629	622.965177	2.406868	1.560028	0.317661	-0.250420	0.386357
1.850	3.174880	2.366824	623.654644	2.354161	1.611013	0.302616	-0.258318	0.377478
1.860	3.192649	2.304239	624.208574	2.308260	1.664284	0.283511	-0.266623	0.369790
1.870	3.191252	2.247244	624.523868	2.268480	1.717748	0.260242	-0.275049	0.363234
1.880	3.182605	2.205764	624.537063	2.233865	1.769725	0.233698	-0.283366	0.357683
1.890	3.182627	2.180416	624.242977	2.203416	1.819636	0.205738	-0.291495	0.352974
1.900	3.204086	2.162541	623.696698	2.176175	1.868606	0.178883	-0.299602	0.348916
1.910	3.250197	2.138288	622.996999	2.151240	1.919366	0.155784	-0.308086	0.345305
1.920	3.311834	2.095203	622.256925	2.127813	1.975199	0.138592	-0.317425	0.341951
1.930	3.369794	2.028521	621.572847	2.105326	2.038418	0.128399	-0.327945	0.338710
1.940	3.401031	1.944463	621.003525	2.083616	2.109273	0.124915	-0.339656	0.335524
1.950	3.385897	1.859044	620.565569	2.063056	2.185928	0.126539	-0.352248	0.332448
1.960	3.313328	1.792740	620.243596	2.044579	2.265447	0.130908	-0.365251	0.329641
1.970	3.182485	1.763052	620.007001	2.029548	2.345130	0.135818	-0.378242	0.327343
1.980	3.001174	1.777990	619.824239	2.019549	2.423410	0.140153	-0.390983	0.325826
1.990	2.782385	1.833108	619.669755	2.016085	2.499881	0.144402	-0.403422	0.325348
2.000	2.540634	1.913145	619.524768	2.020217	2.574667	0.150505	-0.415587	0.326091
2.010	2.289608	1.997401	619.377044	2.032195	2.647727	0.161045	-0.427482	0.328103
2.020	2.041701	2.066665	619.224192	2.051088	2.718579	0.178113	-0.439030	0.331235
2.030	1.808746	2.109106	619.080028	2.074416	2.786413	0.202283	-0.450089	0.335080
2.040	1.602532	2.123088	618.978054	2.098039	2.850121	0.232184	-0.460456	0.338952
2.050	1.434325	2.116144	618.965208	2.116750	2.907899	0.264856	-0.469800	0.341982
2.060	1.313740	2.100704	619.084274	2.125781	2.956564	0.296736	-0.477570	0.343375
2.070	1.247624	2.088398	619.351638	2.122700	2.991195	0.324830	-0.482956	0.342729
2.080	1.239125	2.085342	619.742386	2.108730	3.005730	0.347597	-0.484997	0.340259
2.090	1.286702	2.090372	620.192487	2.088723	2.994656	0.365192	-0.482859	0.336786
2.100	1.383181	2.096890	620.618870	2.069792	2.955202	0.379015	-0.476170	0.333504
2.110	1.515550	2.097277	620.948796	2.059179	2.888972	0.390792	-0.465251	0.331618
2.120	1.666518	2.087685	621.145543	2.062129	2.801992	0.401689	-0.451101	0.331988
2.130	1.818374	2.070953	621.219375	2.080350	2.702884	0.411912	-0.435093	0.334882
2.140	1.958366	2.056231	621.219405	2.111510	2.599780	0.420953	-0.418496	0.339898
2.150	2.083365	2.055347	621.210228	2.150054	2.497352	0.428228	-0.402014	0.346107
2.160	2.201053	2.077398	621.243646	2.189258	2.395388	0.433647	-0.385580	0.352399
2.170	2.326169	2.124015	621.337825	2.223802	2.289707	0.437785	-0.368512	0.357905
2.180	2.472815	2.187617	621.472684	2.251754	2.175095	0.441645	-0.349991	0.362326
2.190	2.646118	2.253756	621.602542	2.275084	2.049017	0.446245	-0.329635	0.366003
2.200	2.837244	2.306758	621.678883	2.298579	1.914405	0.452256	-0.307941	0.369737
2.210	3.024477	2.336193	621.672294	2.327795	1.780167	0.459877	-0.286351	0.374441
2.220	3.180313	2.341184	621.584430	2.367001	1.658959	0.468910	-0.266892	0.380801
2.230	3.281615	2.330703	621.446332	2.417907	1.562878	0.478868	-0.251490	0.389077
2.240	3.318475	2.320000	621.305586	2.479545	1.498615	0.488964	-0.241204	0.399086
2.250	3.298238	2.325091	621.209123	2.549104	1.464005	0.498032	-0.235670	0.410346
2.260	3.243361	2.357750	621.189032	2.623208	1.447550	0.504567	-0.233029	0.422288
2.270	3.184232	2.422766	621.255618	2.699010	1.431420	0.507068	-0.230408	0.434444
2.280	3.149741	2.517823	621.397468	2.774693	1.396991	0.504614	-0.224814	0.446525
2.290	3.158824	2.635166	621.585824	2.849214	1.330867	0.497409	-0.214108	0.458378
2.300	3.215656	2.763837	621.781108	2.921534	1.229097	0.486969	-0.197674	0.469865
2.310	3.309844	2.891656	621.941275	2.989796	1.098026	0.475708	-0.176548	0.480720
2.320	3.421355	3.006813	622.031820	3.050929	0.951587	0.466043	-0.152980	0.490478
2.330	3.528140	3.099261	622.035238	3.101012	0.806253	0.459405	-0.129615	0.498527
2.340	3.613454	3.162091	621.955833	3.136373	0.675579	0.455659	-0.108622	0.504276
2.350	3.670379	3.192877	621.816766	3.155070	0.566255	0.453233	-0.091065	0.507395
2.360	3.702808	3.194799	621.649948	3.158021	0.476851	0.449845	-0.076707	0.508006
2.370	3.723608	3.177001	621.483152	3.149108	0.399350	0.443487	-0.064258	0.506709
2.380	3.750953	3.153341	621.330454	3.134063	0.322626	0.433230	-0.051925	0.504412
2.390	3.803379	3.139031	621.190992	3.118607	0.236512	0.419537	-0.038074	0.502037
2.400	3.894025	3.145823	621.057058	3.106743	0.135105	0.404009	-0.021754	0.500235
2.410	4.025374	3.177615	620.927430	3.099818	0.018393	0.388674	-0.002962	0.499224
2.420	4.186645	3.228491	620.818869	3.096478	-0.108145	0.375127	0.017420	0.498773
2.430	4.355636	3.284174	620.769792	3.093197	-0.235602	0.363897	0.037953	0.498284
2.440	4.504977	3.326521	620.833849	3.085087	-0.354418	0.354288	0.057087	0.496926
2.450	4.610495	3.339523	621.064699	3.066836	-0.456719	0.344746	0.073538	0.493803
2.460	4.658323	3.314652	621.495937	3.033742	-0.537501	0.333497	0.086485	0.488136
