Time[s]	Fx[N]	Fy[N]	Fz[N]	Mx[Nm]	My[Nm]	Mz[Nm]	COPx[cm]	COPy[cm]
0.010	5.098302	3.739548	671.086138	6.138388	3.588998	-0.615209	-0.534804	0.914694
0.020	5.802656	3.793242	672.243288	6.132618	3.038042	-0.634672	-0.451926	0.912262
0.030	6.434575	3.859825	673.515180	6.128846	2.518725	-0.664704	-0.373967	0.909979
0.040	6.927523	3.944913	675.002432	6.126878	2.056777	-0.712138	-0.304707	0.907682
0.050	7.230428	4.043856	676.765552	6.122729	1.667664	-0.777768	-0.246417	0.904705
0.060	7.323995	4.143590	678.808497	6.109443	1.354219	-0.856337	-0.199499	0.900024
0.070	7.234054	4.228107	681.068323	6.079036	1.107446	-0.938561	-0.162604	0.892574
0.080	7.031209	4.284273	683.415330	6.024370	0.910603	-1.014189	-0.133243	0.881509
0.090	6.811601	4.304846	685.666942	5.940317	0.745559	-1.074897	-0.108735	0.866356
0.100	6.663950	4.287516	687.614952	5.824348	0.599366	-1.116085	-0.087166	0.847036
0.110	6.636778	4.231338	689.061845	5.676915	0.468668	-1.137219	-0.068015	0.823861
0.120	6.721004	4.133488	689.859748	5.501712	0.360248	-1.140932	-0.052220	0.797512
0.130	6.856043	3.988789	689.944565	5.305463	0.287483	-1.131399	-0.041668	0.768969
0.140	6.956238	3.792426	689.357185	5.097007	0.264177	-1.112693	-0.038322	0.739385
0.150	6.945518	3.544114	688.244293	4.885886	0.298265	-1.087670	-0.043337	0.709906
0.160	6.785745	3.251474	686.834712	4.681009	0.387873	-1.057698	-0.056473	0.681534
0.170	6.488629	2.931400	685.393656	4.489842	0.521103	-1.023187	-0.076030	0.655075
0.180	6.108976	2.609539	684.165182	4.318131	0.679314	-0.984504	-0.099291	0.631153
0.190	5.724346	2.318150	683.319592	4.169798	0.842367	-0.942772	-0.123276	0.610227
0.200	5.409808	2.091897	682.923495	4.046740	0.993805	-0.900167	-0.145522	0.592561
0.210	5.216276	1.961090	682.942811	3.948546	1.124355	-0.859590	-0.164634	0.578166
0.220	5.158297	1.943431	683.274737	3.872472	1.233007	-0.823893	-0.180456	0.566752
0.230	5.213881	2.037220	683.791710	3.813946	1.325849	-0.795005	-0.193897	0.557764
0.240	5.335310	2.219529	684.377556	3.767584	1.413506	-0.773381	-0.206539	0.550513
0.250	5.466253	2.451199	684.944635	3.728271	1.508263	-0.758053	-0.220202	0.544317
0.260	5.558552	2.687307	685.433658	3.691724	1.621686	-0.747208	-0.236593	0.538597
0.270	5.582895	2.888919	685.806314	3.654175	1.762945	-0.738953	-0.257062	0.532829
0.280	5.530922	3.031042	686.040672	3.611278	1.937619	-0.731916	-0.282435	0.526394
0.290	5.410180	3.103578	686.132722	3.557097	2.146735	-0.725483	-0.312875	0.518427
0.300	5.235861	3.105933	686.100094	3.484336	2.386257	-0.719778	-0.347800	0.507847
0.310	5.023572	3.039625	685.981264	3.386479	2.647650	-0.715579	-0.385965	0.493669
0.320	4.785684	2.904388	685.825964	3.261167	2.919927	-0.714241	-0.425753	0.475509
0.330	4.531100	2.700875	685.678250	3.113000	3.192840	-0.717551	-0.465647	0.454003
0.340	4.266293	2.438431	685.560096	2.953886	3.460018	-0.727327	-0.504700	0.430872
0.350	3.995585	2.142444	685.466634	2.800222	3.720642	-0.744785	-0.542790	0.408513
0.360	3.720360	1.855167	685.379880	2.667894	3.978704	-0.769923	-0.580511	0.389258
0.370	3.438695	1.627337	685.296834	2.567262	4.239895	-0.801278	-0.618695	0.374620
0.380	3.147066	1.503294	685.257997	2.500242	4.507223	-0.836196	-0.657741	0.364861
0.390	2.844431	1.506210	685.360204	2.460449	4.777076	-0.871530	-0.697017	0.359001
0.400	2.537315	1.630109	685.743670	2.435901	5.037296	-0.904439	-0.734574	0.355220
0.410	2.243693	1.841902	686.553064	2.412776	5.268124	-0.933024	-0.767329	0.351433
0.420	1.993284	2.091991	687.883071	2.378579	5.445902	-0.956615	-0.791690	0.345782
0.430	1.822488	2.328660	689.727449	2.323720	5.548569	-0.975648	-0.804458	0.336904
0.440	1.763890	2.510627	691.953161	2.241518	5.561224	-0.991149	-0.803699	0.323941
0.450	1.833410	2.613845	694.314378	2.127392	5.479831	-1.003992	-0.789243	0.306402
0.460	2.021224	2.631614	696.505698	1.978145	5.311634	-1.014213	-0.762612	0.284010
0.470	2.292419	2.569668	698.236522	1.791753	5.072095	-1.020768	-0.726415	0.256611
0.480	2.598849	2.439126	699.298767	1.567604	4.779627	-1.021850	-0.683489	0.224168
0.490	2.897193	2.250248	699.603865	1.306919	4.450296	-1.015588	-0.636117	0.186808
0.500	3.164591	2.009534	699.179842	1.013420	4.094423	-1.000723	-0.585604	0.144944
0.510	3.404700	1.721476	698.136593	0.694337	3.716009	-0.976925	-0.532275	0.099456
0.520	3.642361	1.393924	696.618278	0.361342	3.314683	-0.944699	-0.475825	0.051871
0.530	3.910621	1.043349	694.761932	0.030332	2.889115	-0.905095	-0.415842	0.004366
0.540	4.236713	0.695646	692.672870	-0.280807	2.440568	-0.859536	-0.352341	-0.040540
0.550	4.632638	0.380614	690.416921	-0.556011	1.975539	-0.809971	-0.286137	-0.080533
0.560	5.092371	0.122523	688.023473	-0.784707	1.506912	-0.759298	-0.219020	-0.114052
0.570	5.594148	-0.067839	685.493793	-0.963598	1.053610	-0.711720	-0.153701	-0.140570
0.580	6.104772	-0.194819	682.813319	-1.095924	0.639109	-0.672614	-0.093599	-0.160501
0.590	6.584070	-0.272270	679.970273	-1.188994	0.289130	-0.647598	-0.042521	-0.174860
0.600	6.989809	-0.314304	676.982098	-1.251452	0.028696	-0.640982	-0.004239	-0.184857
0.610	7.284212	-0.328248	673.925341	-1.291490	-0.121314	-0.654121	0.018001	-0.191637
0.620	7.441868	-0.313775	670.956905	-1.316378	-0.147548	-0.684423	0.021991	-0.196194
0.630	7.456651	-0.267827	668.312144	-1.332861	-0.046510	-0.725529	0.006959	-0.199437
0.640	7.343917	-0.191322	666.272360	-1.347595	0.175146	-0.768821	-0.026287	-0.202259
0.650	7.135210	-0.092949	665.108382	-1.367033	0.502691	-0.805856	-0.075580	-0.205535
0.660	6.865900	0.012202	665.019267	-1.396719	0.917029	-0.830916	-0.137895	-0.210027
0.670	6.560389	0.107872	666.088080	-1.440549	1.398606	-0.842700	-0.209973	-0.216270
0.680	6.222031	0.182038	668.268910	-1.500659	1.930143	-0.844488	-0.288827	-0.224559
0.690	5.833348	0.229289	671.405245	-1.578057	2.497610	-0.842645	-0.371997	-0.235038
0.700	5.366604	0.249651	675.267187	-1.673381	3.089714	-0.844077	-0.457554	-0.247810
0.710	4.799083	0.246186	679.590789	-1.786816	3.696728	-0.853690	-0.543964	-0.262925
0.720	4.125448	0.224404	684.108853	-1.916735	4.309373	-0.872898	-0.629925	-0.280180
0.730	3.362453	0.194516	688.572620	-2.057727	4.917970	-0.899625	-0.714227	-0.298840
0.740	2.546226	0.174321	692.768705	-2.199557	5.511617	-0.929499	-0.795593	-0.317502
0.750	1.725645	0.188808	696.532697	-2.328454	6.077220	-0.957508	-0.872496	-0.334292
0.760	0.955203	0.263902	699.755818	-2.430812	6.598622	-0.979437	-0.942989	-0.347380
0.770	0.288545	0.415657	702.380729	-2.497684	7.056485	-0.992779	-1.004652	-0.355603
0.780	-0.228015	0.639961	704.387168	-2.527701	7.429491	-0.997041	-1.054745	-0.358851
0.790	-0.562401	0.908706	705.772632	-2.526851	7.696943	-0.993465	-1.090570	-0.358026
0.800	-0.702515	1.175506	706.534671	-2.505418	7.842167	-0.984319	-1.109948	-0.354606
0.810	-0.657537	1.389133	706.660403	-2.474116	7.855607	-0.972019	-1.111652	-0.350114
0.820	-0.452401	1.509035	706.126829	-2.441757	7.736517	-0.958429	-1.095627	-0.345796
0.830	-0.116860	1.516524	704.912400	-2.415502	7.492665	-0.944545	-1.062921	-0.342667
0.840	0.325454	1.417756	703.016592	-2.403010	7.138280	-0.930565	-1.015379	-0.341814
0.850	0.861971	1.238705	700.481175	-2.414674	6.691102	-0.916190	-0.955215	-0.344716
0.860	1.487918	1.015528	697.405379	-2.464262	6.169592	-0.900893	-0.884649	-0.353347
0.870	2.198016	0.784414	693.947569	-2.567287	5.591275	-0.884022	-0.805720	-0.369954
0.880	2.978763	0.573583	690.309433	-2.737640	4.972716	-0.864740	-0.720360	-0.396582
0.890	3.805027	0.398153	686.705703	-2.983791	4.330876	-0.841992	-0.630674	-0.434508
0.900	4.640920	0.257612	683.330180	-3.306064	3.684766	-0.814671	-0.539237	-0.483816
0.910	5.443054	0.135644	680.331350	-3.696106	3.056028	-0.782044	-0.449197	-0.543280
0.920	6.165194	0.002195	677.805220	-4.138793	2.467644	-0.744263	-0.364064	-0.610617
0.930	6.764927	-0.182108	675.803131	-4.615576	1.941164	-0.702674	-0.287238	-0.682976
0.940	7.212406	-0.458672	674.344945	-5.107381	1.493855	-0.659743	-0.221527	-0.757384
0.950	7.498304	-0.860189	673.427356	-5.595525	1.137277	-0.618631	-0.168879	-0.830903
0.960	7.635768	-1.397216	673.022975	-6.060618	0.877935	-0.582665	-0.130447	-0.900507
0.970	7.652673	-2.045714	673.074883	-6.481221	0.719471	-0.554910	-0.106893	-0.962927
0.980	7.576063	-2.741675	673.497294	-6.834640	0.664931	-0.537884	-0.098728	-1.014798
0.990	7.416528	-3.388532	674.190879	-7.101047	0.717544	-0.533303	-0.106430	-1.053270
1.000	7.161985	-3.878496	675.071538	-7.269763	0.879168	-0.541675	-0.130233	-1.076888
1.010	6.785932	-4.122203	676.100206	-7.344649	1.146875	-0.561768	-0.169631	-1.086326
1.020	6.267188	-4.075977	677.296176	-7.345388	1.509477	-0.590225	-0.222868	-1.084516
1.030	5.611000	-3.755956	678.721782	-7.303158	1.946303	-0.621687	-0.286760	-1.076017
1.040	4.859580	-3.233470	680.439972	-7.251883	2.429713	-0.649652	-0.357080	-1.065764
1.050	4.085010	-2.613995	682.461782	-7.218378	2.930873	-0.667956	-0.429456	-1.057697
1.060	3.366553	-2.008471	684.709934	-7.215133	3.426396	-0.672405	-0.500416	-1.053750
1.070	2.762730	-1.507592	687.021529	-7.237988	3.902695	-0.662023	-0.568060	-1.053532
1.080	2.291375	-1.166291	689.195634	-7.268756	4.355818	-0.639470	-0.632015	-1.054672
1.090	1.927162	-1.000035	691.067514	-7.281207	4.786739	-0.610554	-0.692659	-1.053617
1.100	1.617991	-0.990126	692.573868	-7.248291	5.194277	-0.583002	-0.749996	-1.046573
1.110	1.312952	-1.093817	693.774970	-7.148825	5.569068	-0.564890	-0.802720	-1.030424
1.120	0.988934	-1.255866	694.820164	-6.972495	5.891551	-0.563115	-0.847925	-1.003496
1.130	0.663226	-1.419561	695.871523	-6.722541	6.135063	-0.582142	-0.881637	-0.966061
1.140	0.386000	-1.536262	697.021178	-6.415805	6.272873	-0.623119	-0.899954	-0.920461
1.150	0.216638	-1.572625	698.240095	-6.079903	6.286252	-0.683465	-0.900299	-0.870747
1.160	0.196309	-1.514511	699.378809	-5.747723	6.170315	-0.757116	-0.882256	-0.821833
1.170	0.330917	-1.366897	700.214387	-5.450322	5.935406	-0.835588	-0.847656	-0.778379
1.180	0.592079	-1.149998	700.518537	-5.210327	5.603805	-0.909682	-0.799951	-0.743781
1.190	0.933395	-0.892883	700.118646	-5.038125	5.203473	-0.971365	-0.743227	-0.719610
1.200	1.311831	-0.626755	698.933717	-4.932032	4.761570	-1.015187	-0.681262	-0.705651
1.210	1.703442	-0.380190	696.980907	-4.881933	4.300199	-1.038867	-0.616975	-0.700440
1.220	2.107529	-0.177490	694.358893	-4.874498	3.835536	-1.043059	-0.552385	-0.702014
1.230	2.539415	-0.039244	691.219875	-4.897917	3.379840	-1.030627	-0.488967	-0.708590
1.240	3.016281	0.017213	687.742442	-4.944707	2.944622	-1.005810	-0.428158	-0.718977
1.250	3.542188	-0.020783	684.113065	-5.012156	2.542976	-0.973487	-0.371719	-0.732650
1.260	4.098062	-0.158045	680.517617	-5.100738	2.189903	-0.938535	-0.321800	-0.749538
1.270	4.640566	-0.388254	677.140293	-5.211416	1.900600	-0.905173	-0.280680	-0.769621
1.280	5.110818	-0.692246	674.166211	-5.342969	1.687495	-0.876329	-0.250308	-0.792530
1.290	5.450336	-1.038709	671.783041	-5.490413	1.557067	-0.853238	-0.231781	-0.817290
1.300	5.618741	-1.387467	670.175439	-5.645084	1.507488	-0.835500	-0.224939	-0.842329
1.310	5.606825	-1.695350	669.506724	-5.796260	1.528001	-0.821607	-0.228228	-0.865751
1.320	5.440164	-1.924073	669.887996	-5.933503	1.600605	-0.809768	-0.238936	-0.885745
1.330	5.171712	-2.048478	671.343457	-6.048633	1.703872	-0.798728	-0.253800	-0.900974
1.340	4.865572	-2.062373	673.786391	-6.136549	1.817797	-0.788290	-0.269788	-0.910756
1.350	4.577324	-1.979435	677.018599	-6.194870	1.927999	-0.779359	-0.284778	-0.915022
1.360	4.337962	-1.828329	680.757508	-6.223181	2.027698	-0.773455	-0.297859	-0.914155
1.370	4.147514	-1.643780	684.684335	-6.222748	2.116824	-0.771980	-0.309168	-0.908849
1.380	3.980755	-1.457299	688.498463	-6.196930	2.198758	-0.775654	-0.319356	-0.900064
1.390	3.802479	-1.291399	691.960838	-6.151638	2.276109	-0.784465	-0.328936	-0.889015
1.400	3.585978	-1.159014	694.913988	-6.094915	2.347171	-0.798071	-0.337764	-0.877075
1.410	3.327311	-1.066717	697.276088	-6.035266	2.404376	-0.816209	-0.344824	-0.865549
1.420	3.049970	-1.018300	699.016412	-5.979334	2.435204	-0.838641	-0.348376	-0.855393
1.430	2.798540	-1.015813	700.125473	-5.930120	2.425161	-0.864587	-0.346389	-0.847008
1.440	2.624192	-1.057782	700.593914	-5.886775	2.361705	-0.892065	-0.337100	-0.840255
1.450	2.567748	-1.136926	700.409261	-5.846061	2.237663	-0.917716	-0.319479	-0.834664
1.460	2.646875	-1.240128	699.569929	-5.804476	2.052911	-0.937453	-0.293453	-0.829721
1.470	2.852299	-1.351365	698.106434	-5.759587	1.813967	-0.947727	-0.259841	-0.825030
1.480	3.154042	-1.455721	696.096318	-5.709781	1.532086	-0.946803	-0.220097	-0.820257
1.490	3.514154	-1.541789	693.663677	-5.652728	1.220977	-0.935396	-0.176019	-0.814909
1.500	3.899717	-1.601251	690.962944	-5.583828	0.894940	-0.916380	-0.129521	-0.808123
1.510	4.290679	-1.626664	688.154323	-5.495941	0.567612	-0.893743	-0.082483	-0.798649
1.520	4.680485	-1.609687	685.381100	-5.380943	0.251130	-0.871306	-0.036641	-0.785102
1.530	5.071223	-1.541565	682.756923	-5.232510	-0.044437	-0.851780	0.006508	-0.766380
1.540	5.466904	-1.416232	680.366785	-5.048617	-0.311356	-0.836524	0.045763	-0.742043
1.550	5.868162	-1.234718	678.280476	-4.832325	-0.544223	-0.826015	0.080236	-0.712438
1.560	6.270048	-1.008425	676.571436	-4.590353	-0.739891	-0.820630	0.109359	-0.678473
1.570	6.662924	-0.758812	675.329588	-4.330259	-0.897587	-0.821231	0.132911	-0.641207
1.580	7.035269	-0.512482	674.657865	-4.057803	-1.019155	-0.829204	0.151062	-0.601461
1.590	7.376584	-0.293168	674.649931	-3.775936	-1.108909	-0.845988	0.164368	-0.559688
1.600	7.678576	-0.114292	675.356285	-3.486002	-1.172511	-0.872348	0.173614	-0.516172
1.610	7.933568	0.024071	676.752331	-3.190432	-1.214804	-0.907715	0.179505	-0.471433
1.620	8.130616	0.132352	678.722568	-2.895232	-1.237425	-0.949837	0.182317	-0.426571
1.630	8.251667	0.224616	681.069882	-2.610549	-1.237439	-0.994887	0.181690	-0.383301
1.640	8.271060	0.311575	683.549413	-2.348790	-1.207870	-1.038095	0.176706	-0.343617
1.650	8.160485	0.396706	685.916807	-2.121315	-1.140073	-1.074738	0.166212	-0.309267
1.660	7.898384	0.476358	687.975589	-1.935625	-1.027045	-1.101176	0.149285	-0.281351
1.670	7.479800	0.542400	689.609943	-1.794532	-0.866475	-1.115509	0.125647	-0.260224
1.680	6.922152	0.585021	690.795336	-1.697561	-0.662639	-1.117560	0.095924	-0.245740
1.690	6.264416	0.593969	691.586995	-1.643518	-0.426764	-1.108227	0.061708	-0.237644
1.700	5.560394	0.558251	692.091918	-1.632550	-0.175892	-1.088605	0.025415	-0.235886
1.710	4.868899	0.465839	692.432213	-1.666431	0.069507	-1.059462	-0.010038	-0.240663
1.720	4.243961	0.305071	692.707295	-1.746862	0.288833	-1.021355	-0.041696	-0.252179
1.730	3.727055	0.068134	692.962560	-1.872681	0.465057	-0.975279	-0.067111	-0.270243
1.740	3.342283	-0.244408	693.172986	-2.037415	0.588121	-0.923356	-0.084845	-0.293926
1.750	3.094807	-0.619691	693.248664	-2.228325	0.657063	-0.868997	-0.094780	-0.321432
1.760	2.972549	-1.030753	693.063246	-2.427468	0.680052	-0.816356	-0.098123	-0.350252
1.770	2.950752	-1.438180	692.497722	-2.614506	0.672065	-0.769284	-0.097049	-0.377547
1.780	2.998414	-1.795955	691.485780	-2.770406	0.650804	-0.730342	-0.094117	-0.400645
1.790	3.085084	-2.060899	690.046731	-2.880677	0.632032	-0.700326	-0.091593	-0.417461
1.800	3.186404	-2.203247	688.296424	-2.936919	0.625696	-0.678487	-0.090905	-0.426694
1.810	3.287393	-2.214611	686.432883	-2.936253	0.633808	-0.663329	-0.092334	-0.427755
1.820	3.383304	-2.110010	684.700091	-2.879272	0.650455	-0.653580	-0.094999	-0.420516
1.830	3.478431	-1.922765	683.339577	-2.767703	0.663647	-0.648892	-0.097118	-0.405026
1.840	3.583464	-1.693825	682.542999	-2.602612	0.658316	-0.649883	-0.096451	-0.381311
1.850	3.712028	-1.459186	682.417480	-2.383455	0.619733	-0.657521	-0.090814	-0.349266
1.860	3.876941	-1.239590	682.969978	-2.108139	0.536533	-0.672234	-0.078559	-0.308672
1.870	4.086676	-1.035796	684.111296	-1.774285	0.402604	-0.693292	-0.058851	-0.259356
1.880	4.342827	-0.830912	685.677023	-1.381588	0.217275	-0.718810	-0.031688	-0.201493
1.890	4.639887	-0.599231	687.460361	-0.934419	-0.016152	-0.746329	0.002350	-0.135923
1.900	4.968127	-0.318760	689.249142	-0.443340	-0.292779	-0.773587	0.042478	-0.064322
1.910	5.318584	0.017130	690.857525	0.075374	-0.608243	-0.799036	0.088042	0.010910
1.920	5.687415	0.393745	692.144577	0.602147	-0.959640	-0.821867	0.138647	0.086997
1.930	6.076747	0.777527	693.017579	1.117501	-1.344879	-0.841665	0.194061	0.161251
1.940	6.491065	1.126117	693.424674	1.605248	-1.760914	-0.858001	0.253944	0.231496
1.950	6.930997	1.402100	693.345103	2.054556	-2.201818	-0.870352	0.317565	0.296325
1.960	7.388276	1.585190	692.783923	2.460562	-2.657767	-0.878422	0.383636	0.355170
1.970	7.845256	1.678444	691.773371	2.823836	-3.115593	-0.882671	0.450378	0.408202
1.980	8.279621	1.706564	690.377973	3.149205	-3.560863	-0.884638	0.515785	0.456157
1.990	8.671835	1.707577	688.697452	3.444277	-3.980607	-0.886757	0.577991	0.500115
2.000	9.011498	1.721541	686.861736	3.717645	-4.365497	-0.891699	0.635571	0.541251
2.010	9.299847	1.780215	685.015792	3.976719	-4.710582	-0.901620	0.687660	0.580530
2.020	9.548003	1.900084	683.296726	4.225460	-5.014429	-0.917725	0.733858	0.618393
2.030	9.772445	2.079400	681.809196	4.462760	-5.277184	-0.940244	0.773997	0.654547
2.040	9.989721	2.299086	680.606485	4.682305	-5.498357	-0.968618	0.807861	0.687961
2.050	10.211541	2.527114	679.683392	4.874402	-5.675010	-1.001638	0.834949	0.717158
2.060	10.440355	2.725703	678.983673	5.029425	-5.800777	-1.037480	0.854332	0.740728
2.070	10.665550	2.859961	678.420774	5.141735	-5.865903	-1.073750	0.864641	0.757898
2.080	10.861689	2.905876	677.907804	5.212489	-5.858459	-1.107735	0.864197	0.768908
2.090	10.991370	2.855253	677.391291	5.250134	-5.766778	-1.136953	0.851322	0.775052
2.100	11.014353	2.716022	676.880563	5.268275	-5.582739	-1.159914	0.824775	0.778317
2.110	10.901215	2.508149	676.460703	5.281765	-5.304871	-1.176781	0.784210	0.780794
2.120	10.645847	2.257487	676.276748	5.302592	-4.939872	-1.189500	0.730451	0.784086
2.130	10.269774	1.990596	676.486157	5.337193	-4.501434	-1.201223	0.665414	0.788958
2.140	9.814246	1.732332	677.194026	5.386173	-4.006410	-1.215167	0.591619	0.795366
2.150	9.322397	1.505963	678.399897	5.446507	-3.469681	-1.233441	0.511451	0.802846
2.160	8.819771	1.334160	679.984188	5.515371	-2.899989	-1.256343	0.426479	0.811103
2.170	8.303397	1.238950	681.744599	5.593972	-2.298827	-1.282378	0.337198	0.820538
2.180	7.745903	1.239264	683.468737	5.689541	-1.663244	-1.308901	0.243353	0.832451
2.190	7.113717	1.345930	685.012168	5.814228	-0.991630	-1.333086	0.144761	0.848777
2.200	6.391272	1.555672	686.348949	5.980999	-0.290094	-1.352857	0.042266	0.871423
2.210	5.599836	1.846946	687.574012	6.198080	0.423478	-1.367416	-0.061590	0.901442
2.220	4.801488	2.180308	688.856579	6.464269	1.119810	-1.377121	-0.162561	0.938406
2.230	4.084756	2.504383	690.362420	6.767211	1.763408	-1.382740	-0.255432	0.980240
2.240	3.536157	2.766288	692.173767	7.085713	2.320778	-1.384427	-0.335288	1.023690
2.250	3.208679	2.923828	694.236630	7.395863	2.768571	-1.380941	-0.398794	1.065323
2.260	3.101226	2.956558	696.355950	7.679294	3.098631	-1.369605	-0.444978	1.102783
2.270	3.159574	2.873602	698.240927	7.930768	3.318389	-1.347093	-0.475250	1.135821
2.280	3.299638	2.716768	699.582636	8.161834	3.447017	-1.310682	-0.492725	1.166672
2.290	3.442466	2.557368	700.134519	8.398439	3.509246	-1.259290	-0.501225	1.199546
2.300	3.544275	2.485070	699.770027	8.672708	3.529154	-1.193823	-0.504331	1.239365
2.310	3.607874	2.588792	698.506050	9.011753	3.525618	-1.116843	-0.504737	1.290147
2.320	3.672094	2.933136	696.494401	9.427874	3.510131	-1.032022	-0.503971	1.353618
2.330	3.787084	3.537369	693.988918	9.914020	3.486823	-0.943853	-0.502432	1.428556
2.340	3.989139	4.364661	691.294729	10.446008	3.454153	-0.857621	-0.499664	1.511079
2.350	4.286658	5.326486	688.706317	10.989912	3.407611	-0.779255	-0.494784	1.595733
2.360	4.661078	6.301757	686.446413	11.510888	3.342794	-0.714588	-0.486971	1.676881
2.370	5.078369	7.164794	684.623617	11.979718	3.258310	-0.668033	-0.475927	1.749825
2.380	5.502433	7.812924	683.224007	12.375327	3.158055	-0.641189	-0.462228	1.811313
