Time[s]	Fx[N]	Fy[N]	Fz[N]	Mx[Nm]	My[Nm]	Mz[Nm]	COPx[cm]	COPy[cm]
0.010	2.421468	-1.008025	655.063252	-0.139037	-11.763260	0.211668	1.795744	-0.021225
0.020	2.308801	-1.146271	655.472232	-0.244918	-11.609476	0.218061	1.771162	-0.037365
0.030	2.198738	-1.275634	655.823581	-0.350633	-11.449502	0.225110	1.745820	-0.053465
0.040	2.092991	-1.389294	656.075942	-0.455314	-11.278586	0.233239	1.719098	-0.069400
0.050	1.991348	-1.483901	656.213874	-0.557614	-11.094471	0.242778	1.690679	-0.084974
0.060	1.891393	-1.559315	656.245117	-0.655725	-10.897649	0.254044	1.660607	-0.099921
0.070	1.789097	-1.617333	656.189508	-0.747675	-10.690610	0.267295	1.629196	-0.113942
0.080	1.680247	-1.660378	656.068282	-0.831928	-10.476375	0.282446	1.596842	-0.126805
0.090	1.562005	-1.690998	655.901040	-0.908092	-10.256978	0.298671	1.563800	-0.138450
0.100	1.433605	-1.712276	655.710317	-0.977335	-10.032632	0.314197	1.530040	-0.149050
0.110	1.295742	-1.728540	655.526690	-1.042176	-9.802015	0.326579	1.495289	-0.158983
0.120	1.149155	-1.745554	655.386484	-1.105690	-9.563535	0.333398	1.459221	-0.168708
0.130	0.993442	-1.769730	655.320233	-1.170399	-9.316874	0.333098	1.421728	-0.178600
0.140	0.826815	-1.806523	655.338101	-1.237283	-9.063919	0.325578	1.383091	-0.188801
0.150	0.646885	-1.858635	655.422311	-1.305293	-8.808523	0.312274	1.343946	-0.199153
0.160	0.452195	-1.924767	655.532953	-1.371677	-8.555170	0.295693	1.305071	-0.209246
0.170	0.243965	-1.999510	655.625102	-1.433108	-8.307312	0.278555	1.267083	-0.218587
0.180	0.027103	-2.074419	655.668117	-1.487147	-8.066280	0.262864	1.230238	-0.226814
0.190	-0.190528	-2.139862	655.656660	-1.533303	-7.831376	0.249289	1.194432	-0.233858
0.200	-0.400617	-2.187134	655.607649	-1.573119	-7.601054	0.237074	1.159391	-0.239948
0.210	-0.597348	-2.210493	655.545134	-1.609265	-7.374582	0.224542	1.124954	-0.245485
0.220	-0.778993	-2.208794	655.482151	-1.644170	-7.153336	0.210024	1.091309	-0.250834
0.230	-0.947287	-2.186059	655.410795	-1.678948	-6.941090	0.192855	1.059044	-0.256167
0.240	-1.105231	-2.150416	655.307093	-1.713087	-6.743220	0.173966	1.029017	-0.261417
0.250	-1.254765	-2.111587	655.148184	-1.744887	-6.565218	0.155774	1.002097	-0.266335
0.260	-1.395595	-2.077994	654.931780	-1.772293	-6.411171	0.141349	0.978907	-0.270607
0.270	-1.525536	-2.054789	654.686521	-1.793728	-6.282785	0.133249	0.959663	-0.273983
0.280	-1.641835	-2.043508	654.466901	-1.808671	-6.179204	0.132540	0.944158	-0.276358
0.290	-1.742514	-2.043125	654.334458	-1.817830	-6.097568	0.138428	0.931873	-0.277814
0.300	-1.827078	-2.051688	654.333805	-1.822865	-6.033996	0.148610	0.922159	-0.278583
0.310	-1.896607	-2.067670	654.474550	-1.825719	-5.984632	0.160140	0.914418	-0.278960
0.320	-1.953578	-2.090482	654.727109	-1.827896	-5.946504	0.170436	0.908242	-0.279184
0.330	-2.001522	-2.120097	655.033418	-1.829972	-5.918068	0.178017	0.903476	-0.279371
0.340	-2.044222	-2.156248	655.326764	-1.831569	-5.899487	0.182620	0.900236	-0.279489
0.350	-2.084256	-2.197796	655.552130	-1.831843	-5.892624	0.184709	0.898880	-0.279435
0.360	-2.121292	-2.242603	655.679939	-1.830388	-5.900814	0.184786	0.899953	-0.279159
0.370	-2.151009	-2.287854	655.709683	-1.828134	-5.928386	0.183043	0.904118	-0.278802
0.380	-2.165432	-2.330567	655.663772	-1.827611	-5.979965	0.179590	0.912047	-0.278742
0.390	-2.154829	-2.368096	655.574883	-1.832244	-6.059550	0.174943	0.924311	-0.279487
0.400	-2.110548	-2.398642	655.471896	-1.844945	-6.169495	0.170287	0.941230	-0.281468
0.410	-2.027704	-2.421827	655.370140	-1.866798	-6.309696	0.167201	0.962768	-0.284846
0.420	-1.906594	-2.439151	655.270248	-1.896590	-6.477431	0.166993	0.988513	-0.289436
0.430	-1.752159	-2.453823	655.165657	-1.931454	-6.668216	0.170065	1.017791	-0.294804
0.440	-1.571643	-2.469697	655.053739	-1.968167	-6.877547	0.175701	1.049921	-0.300459
0.450	-1.371590	-2.489655	654.943857	-2.004328	-7.102799	0.182403	1.084490	-0.306031
0.460	-1.155600	-2.514372	654.858342	-2.038858	-7.344278	0.188570	1.121506	-0.311343
0.470	-0.923797	-2.542321	654.825939	-2.071752	-7.604785	0.193155	1.161344	-0.316382
0.480	-0.674005	-2.571173	654.869511	-2.103471	-7.887833	0.196028	1.204489	-0.321205
0.490	-0.403961	-2.599688	654.991961	-2.134352	-8.195375	0.197937	1.251218	-0.325859
0.500	-0.113428	-2.628724	655.166901	-2.164248	-8.526030	0.200151	1.301352	-0.330335
0.510	0.194835	-2.660579	655.340809	-2.192277	-8.874450	0.203936	1.354173	-0.334525
0.520	0.515474	-2.697005	655.448859	-2.216560	-9.231943	0.210112	1.408492	-0.338174
0.530	0.841660	-2.737058	655.438953	-2.234021	-9.588019	0.218830	1.462839	-0.340843
0.540	1.166183	-2.776001	655.293113	-2.240574	-9.932317	0.229644	1.515706	-0.341919
0.550	1.482297	-2.805962	655.036200	-2.232034	-10.256365	0.241733	1.565771	-0.340750
0.560	1.784505	-2.818132	654.728272	-2.205706	-10.554829	0.254113	1.612093	-0.336889
0.570	2.069431	-2.805560	654.444655	-2.162035	-10.826080	0.265772	1.654239	-0.330362
0.580	2.336707	-2.765435	654.252858	-2.105356	-11.072121	0.275756	1.692331	-0.321796
0.590	2.589383	-2.700151	654.195294	-2.043149	-11.297896	0.283268	1.726991	-0.312315
0.600	2.833087	-2.616953	654.282107	-1.984050	-11.510030	0.287728	1.759185	-0.303241
0.610	3.073582	-2.526261	654.493228	-1.935517	-11.715065	0.288788	1.789944	-0.295728
0.620	3.313560	-2.438929	654.786370	-1.902013	-11.917495	0.286355	1.820058	-0.290478
0.630	3.550333	-2.363097	655.107447	-1.884082	-12.118172	0.280664	1.849799	-0.287599
0.640	3.775705	-2.301596	655.400761	-1.878286	-12.313646	0.272356	1.878796	-0.286586
0.650	3.978018	-2.250892	655.617854	-1.877840	-12.496736	0.262452	1.906101	-0.286423
0.660	4.145345	-2.202191	655.725374	-1.873814	-12.658251	0.252182	1.930420	-0.285762
0.670	4.268593	-2.144659	655.712126	-1.856812	-12.789367	0.242702	1.950455	-0.283175
0.680	4.343695	-2.069832	655.593433	-1.818962	-12.884016	0.234806	1.965245	-0.277453
0.690	4.372493	-1.975449	655.409194	-1.755809	-12.940539	0.228731	1.974421	-0.267895
0.700	4.362374	-1.866901	655.213466	-1.667459	-12.962118	0.224177	1.978305	-0.254491
0.710	4.324871	-1.755393	655.057944	-1.558392	-12.955818	0.220561	1.977812	-0.237901
0.720	4.273500	-1.653475	654.975858	-1.435872	-12.930592	0.217439	1.974209	-0.219225
0.730	4.221097	-1.569863	654.972778	-1.307589	-12.894907	0.214848	1.968770	-0.199640
0.740	4.177012	-1.505805	655.027179	-1.179520	-12.854764	0.213357	1.962478	-0.180072
0.750	4.144661	-1.454430	655.099752	-1.054827	-12.812712	0.213764	1.955841	-0.161018
0.760	4.120090	-1.403386	655.148041	-0.934017	-12.768009	0.216582	1.948874	-0.142566
0.770	4.092278	-1.339803	655.141425	-0.816082	-12.717647	0.221665	1.941206	-0.124566
0.780	4.045620	-1.255678	655.070712	-0.700048	-12.657666	0.228213	1.932260	-0.106866
0.790	3.964313	-1.151391	654.948794	-0.586266	-12.584265	0.235151	1.921412	-0.089513
0.800	3.837471	-1.035853	654.803221	-0.476996	-12.494510	0.241658	1.908132	-0.072846
0.810	3.663295	-0.923338	654.664927	-0.376055	-12.386756	0.247507	1.892076	-0.057442
0.820	3.450730	-0.828475	654.557810	-0.287753	-12.260888	0.252994	1.873156	-0.043961
0.830	3.217766	-0.761508	654.492836	-0.215540	-12.118402	0.258524	1.851571	-0.032932
0.840	2.986761	-0.725622	654.468258	-0.160831	-11.962274	0.264200	1.827785	-0.024574
0.850	2.778568	-0.717122	654.474732	-0.122349	-11.796593	0.269735	1.802452	-0.018694
0.860	2.607781	-0.727876	654.501623	-0.096216	-11.626018	0.274719	1.776316	-0.014701
0.870	2.480565	-0.748489	654.540600	-0.076907	-11.455089	0.278945	1.750096	-0.011750
0.880	2.394863	-0.770635	654.584748	-0.058847	-11.287489	0.282493	1.724374	-0.008990
0.890	2.341809	-0.787934	654.625082	-0.038137	-11.125432	0.285554	1.699512	-0.005826
0.900	2.307503	-0.795978	654.649210	-0.013728	-10.969309	0.288132	1.675601	-0.002097
0.910	2.275127	-0.792572	654.645869	0.012429	-10.817576	0.289860	1.652432	0.001899
0.920	2.227721	-0.778549	654.613720	0.036285	-10.666803	0.290034	1.629481	0.005543
0.930	2.151608	-0.758409	654.567874	0.053275	-10.512046	0.287865	1.605952	0.008139
0.940	2.039954	-0.739544	654.538161	0.059963	-10.347863	0.282866	1.580941	0.009161
0.950	1.895567	-0.729692	654.558631	0.055166	-10.170089	0.275216	1.553732	0.008428
0.960	1.731857	-0.733672	654.653385	0.040230	-9.977861	0.265921	1.524144	0.006145
0.970	1.570899	-0.751173	654.825668	0.018467	-9.774915	0.256605	1.492751	0.002820
0.980	1.438177	-0.776778	655.054903	-0.005955	-9.569285	0.248974	1.460837	-0.000909
0.990	1.354889	-0.802094	655.302107	-0.029260	-9.371233	0.244169	1.430063	-0.004465
1.000	1.330232	-0.818891	655.520666	-0.048968	-9.190027	0.242300	1.401943	-0.007470
1.010	1.356803	-0.821928	655.668351	-0.063999	-9.030760	0.242348	1.377337	-0.009761
1.020	1.411393	-0.810563	655.717352	-0.073902	-8.892425	0.242444	1.356137	-0.011270
1.030	1.461337	-0.788711	655.660545	-0.077785	-8.767954	0.240474	1.337270	-0.011864
1.040	1.474327	-0.763141	655.513249	-0.073767	-8.646247	0.234829	1.319004	-0.011253
1.050	1.428319	-0.740858	655.310171	-0.059498	-8.515519	0.225094	1.299464	-0.009079
1.060	1.318124	-0.726816	655.098027	-0.033454	-8.366857	0.212389	1.277192	-0.005107
1.070	1.156526	-0.722944	654.925559	0.003761	-8.196840	0.199188	1.251568	0.000574
1.080	0.969674	-0.728461	654.833173	0.048737	-8.008421	0.188632	1.222971	0.007443
1.090	0.788328	-0.740928	654.843853	0.095517	-7.809845	0.183545	1.192627	0.014586
1.100	0.637876	-0.757513	654.956850	0.136765	-7.611989	0.185446	1.162212	0.020881
1.110	0.530484	-0.776098	655.146635	0.165623	-7.424968	0.193924	1.133329	0.025280
1.120	0.462094	-0.795947	655.369449	0.177618	-7.255180	0.206681	1.107037	0.027102
1.130	0.415193	-0.817898	655.577144	0.171802	-7.103790	0.220263	1.083593	0.026206
1.140	0.366117	-0.844377	655.733674	0.150624	-6.967118	0.231202	1.062492	0.022970
1.150	0.294123	-0.879415	655.826741	0.118674	-6.838599	0.237052	1.042745	0.018095
1.160	0.188935	-0.928415	655.868109	0.080908	-6.711401	0.236895	1.023285	0.012336
1.170	0.053986	-0.997095	655.881761	0.041119	-6.580647	0.231226	1.003328	0.006269
1.180	-0.095774	-1.089381	655.886256	0.001057	-6.444570	0.221395	0.982574	0.000161
1.190	-0.240434	-1.204793	655.881361	-0.039705	-6.304407	0.208932	0.961212	-0.006054
1.200	-0.363257	-1.336717	655.846519	-0.083271	-6.163427	0.195023	0.939767	-0.012697
1.210	-0.457053	-1.473089	655.751570	-0.132393	-6.025780	0.180280	0.918912	-0.020189
1.220	-0.526408	-1.599923	655.573335	-0.189144	-5.895692	0.164772	0.899319	-0.028852
1.230	-0.585189	-1.706277	655.309601	-0.253778	-5.777085	0.148239	0.881581	-0.038726
1.240	-0.650752	-1.788219	654.984597	-0.324363	-5.673346	0.130388	0.866180	-0.049522
1.250	-0.737419	-1.849812	654.644319	-0.397497	-5.587095	0.111176	0.853455	-0.060720
1.260	-0.851700	-1.900750	654.344126	-0.469799	-5.520039	0.090991	0.843599	-0.071797
1.270	-0.990552	-1.951904	654.133977	-0.539465	-5.473101	0.070611	0.836694	-0.082470
1.280	-1.142686	-2.011022	654.046796	-0.607105	-5.446830	0.050976	0.832789	-0.092823
1.290	-1.292089	-2.080570	654.092786	-0.675423	-5.441847	0.032901	0.831969	-0.103261
1.300	-1.422512	-2.158395	654.259657	-0.747801	-5.459063	0.016980	0.834388	-0.114297
1.310	-1.521548	-2.240262	654.517516	-0.826427	-5.499590	0.003697	0.840251	-0.126265
1.320	-1.582975	-2.322558	654.826798	-0.910832	-5.564490	-0.006376	0.849765	-0.139095
1.330	-1.606479	-2.403805	655.146978	-0.997486	-5.654600	-0.012476	0.863104	-0.152254
1.340	-1.594795	-2.484540	655.443485	-1.080521	-5.770573	-0.013753	0.880407	-0.164853
1.350	-1.549536	-2.565893	655.691020	-1.153177	-5.913126	-0.009536	0.901816	-0.175872
1.360	-1.467797	-2.647555	655.873206	-1.209372	-6.083276	0.000283	0.927508	-0.184391
1.370	-1.341353	-2.725752	655.980121	-1.244971	-6.282307	0.014947	0.957698	-0.189788
1.380	-1.159205	-2.791993	656.006101	-1.258483	-6.511231	0.032792	0.992556	-0.191840
1.390	-0.912715	-2.833560	655.950032	-1.250999	-6.769773	0.051540	1.032056	-0.190716
1.400	-0.601323	-2.836369	655.818611	-1.225340	-7.055207	0.068835	1.075786	-0.186841
1.410	-0.236372	-2.789618	655.630256	-1.184734	-7.361665	0.082793	1.122838	-0.180702
1.420	0.158883	-2.690361	655.415469	-1.131713	-7.680400	0.092426	1.171837	-0.172671
1.430	0.553504	-2.545858	655.210856	-1.067817	-8.000974	0.097834	1.221130	-0.162973
1.440	0.916135	-2.372574	655.048080	-0.994164	-8.312919	0.100161	1.269055	-0.151770
1.450	1.222767	-2.192351	654.942747	-0.912389	-8.607332	0.101259	1.314211	-0.139308
1.460	1.462327	-2.027355	654.888960	-0.825332	-8.877998	0.103098	1.355649	-0.126026
1.470	1.638272	-1.895314	654.862640	-0.737006	-9.121835	0.107105	1.392939	-0.112544
1.480	1.765779	-1.805835	654.832206	-0.651731	-9.338587	0.113691	1.426104	-0.099526
1.490	1.865501	-1.758133	654.771074	-0.572773	-9.529903	0.122151	1.455456	-0.087477
1.500	1.956024	-1.740815	654.665914	-0.501190	-9.698082	0.130963	1.481379	-0.076557
1.510	2.047761	-1.734570	654.518353	-0.435524	-9.844933	0.138307	1.504149	-0.066541
1.520	2.140635	-1.717768	654.342421	-0.372577	-9.971135	0.142620	1.523840	-0.056939
1.530	2.226178	-1.673259	654.161192	-0.308920	-10.076328	0.142989	1.540343	-0.047224
1.540	2.292588	-1.593583	654.003438	-0.242422	-10.159784	0.139366	1.553476	-0.037067
1.550	2.330167	-1.482278	653.898571	-0.173112	-10.221289	0.132601	1.563131	-0.026474
1.560	2.335066	-1.350936	653.868753	-0.103025	-10.261873	0.124264	1.569409	-0.015756
1.570	2.310507	-1.213785	653.920282	-0.035183	-10.284109	0.116240	1.572685	-0.005380
1.580	2.265645	-1.082631	654.039194	0.027778	-10.291874	0.110190	1.573587	0.004247
1.590	2.212762	-0.964354	654.195407	0.084641	-10.289577	0.107093	1.572860	0.012938
1.600	2.163818	-0.861444	654.355055	0.135788	-10.281092	0.107059	1.571179	0.020751
1.610	2.127552	-0.774497	654.495049	0.182488	-10.268797	0.109464	1.568965	0.027882
1.620	2.108017	-0.704910	654.611701	0.225792	-10.253220	0.113328	1.566306	0.034492
1.630	2.104761	-0.656260	654.718445	0.265681	-10.233508	0.117801	1.563039	0.040579
1.640	2.114304	-0.633561	654.834283	0.300867	-10.208527	0.122530	1.558948	0.045945
1.650	2.132238	-0.640682	654.970160	0.329168	-10.177960	0.127705	1.553958	0.050257
1.660	2.155101	-0.677217	655.121126	0.348154	-10.142799	0.133742	1.548233	0.053143
1.670	2.181135	-0.736592	655.267531	0.355694	-10.105052	0.140821	1.542126	0.054282
1.680	2.209514	-0.806675	655.382919	0.350332	-10.066944	0.148636	1.536040	0.053455
1.690	2.238552	-0.872946	655.443834	0.331584	-10.030106	0.156592	1.530277	0.050589
1.700	2.264139	-0.923123	655.437618	0.300311	-9.995129	0.164325	1.524955	0.045818
1.710	2.279677	-0.951312	655.366166	0.259054	-9.961548	0.172134	1.519997	0.039528
1.720	2.277783	-0.959692	655.245322	0.212069	-9.928176	0.180970	1.515185	0.032365
1.730	2.252825	-0.956803	655.101143	0.164840	-9.893723	0.191966	1.510259	0.025162
1.740	2.202957	-0.953371	654.964756	0.123118	-9.857585	0.205800	1.505056	0.018798
1.750	2.130945	-0.957912	654.866705	0.091784	-9.820576	0.222254	1.499630	0.014016
1.760	2.043896	-0.974194	654.830884	0.073899	-9.785165	0.240133	1.494304	0.011285
1.770	1.952143	-1.001173	654.868632	0.070140	-9.754944	0.257594	1.489603	0.010711
1.780	1.867393	-1.034618	654.974835	0.078668	-9.733488	0.272749	1.486086	0.012011
1.790	1.800410	-1.069100	655.128349	0.095400	-9.723076	0.284275	1.484148	0.014562
1.800	1.758834	-1.099451	655.297724	0.114746	-9.723912	0.291740	1.483892	0.017511
1.810	1.745787	-1.121578	655.450290	0.130772	-9.734165	0.295517	1.485111	0.019951
1.820	1.759636	-1.133042	655.560721	0.138543	-9.750773	0.296375	1.487394	0.021134
1.830	1.795005	-1.133785	655.615984	0.135174	-9.770534	0.295064	1.490283	0.020618
1.840	1.844679	-1.126809	655.616205	0.120165	-9.790972	0.292152	1.493400	0.018329
1.850	1.901599	-1.118106	655.572280	0.095002	-9.810664	0.288140	1.496504	0.014491
1.860	1.960000	-1.115256	655.501023	0.062379	-9.829091	0.283691	1.499478	0.009516
1.870	2.015308	-1.124973	655.419192	0.025478	-9.846141	0.279726	1.502266	0.003887
1.880	2.063146	-1.150792	655.338701	-0.012512	-9.861434	0.277333	1.504784	-0.001909
1.890	2.098289	-1.192089	655.264772	-0.048739	-9.873716	0.277526	1.506828	-0.007438
1.900	2.114406	-1.244775	655.197328	-0.081041	-9.880639	0.280891	1.508040	-0.012369
1.910	2.105001	-1.303160	655.134731	-0.108280	-9.879164	0.287221	1.507959	-0.016528
1.920	2.065337	-1.362170	655.077889	-0.130472	-9.866467	0.295316	1.506152	-0.019917
1.930	1.994638	-1.419051	655.032266	-0.148632	-9.841013	0.303122	1.502371	-0.022691
1.940	1.897632	-1.473797	655.006491	-0.164414	-9.803316	0.308287	1.496675	-0.025101
1.950	1.784718	-1.528033	655.008477	-0.179754	-9.756082	0.308909	1.489459	-0.027443
1.960	1.670409	-1.583118	655.041253	-0.196639	-9.703671	0.304179	1.481383	-0.030019
1.970	1.570266	-1.638795	655.100411	-0.216901	-9.651113	0.294613	1.473226	-0.033110
1.980	1.497166	-1.693264	655.174138	-0.241864	-9.603007	0.281831	1.465718	-0.036916
1.990	1.458166	-1.744227	655.246085	-0.271758	-9.562619	0.267990	1.459394	-0.041474
2.000	1.452897	-1.789692	655.300455	-0.305156	-9.531328	0.255115	1.454497	-0.046567
2.010	1.473734	-1.827697	655.327426	-0.338836	-9.508533	0.244598	1.450959	-0.051705
2.020	1.507511	-1.855351	655.326221	-0.368304	-9.491993	0.237006	1.448438	-0.056202
2.030	1.538462	-1.868418	655.304210	-0.388867	-9.478493	0.232205	1.446426	-0.059341
2.040	1.551918	-1.862344	655.272879	-0.396831	-9.464592	0.229673	1.444374	-0.060560
2.050	1.537788	-1.834542	655.243174	-0.390394	-9.447263	0.228775	1.441795	-0.059580
2.060	1.492683	-1.786652	655.222366	-0.369996	-9.424325	0.228835	1.438340	-0.056469
2.070	1.419939	-1.725359	655.213026	-0.338076	-9.394603	0.229022	1.433824	-0.051598
2.080	1.327717	-1.661099	655.213651	-0.298310	-9.357799	0.228276	1.428206	-0.045529
2.090	1.226160	-1.604993	655.220228	-0.254648	-9.314210	0.225465	1.421539	-0.038864
2.100	1.124765	-1.565365	655.228056	-0.210579	-9.264419	0.219767	1.413923	-0.032138
2.110	1.030602	-1.545512	655.233182	-0.168834	-9.209116	0.211040	1.405472	-0.025767
2.120	0.947450	-1.543655	655.233174	-0.131421	-9.149051	0.199915	1.396305	-0.020057
2.130	0.875662	-1.554573	655.227739	-0.099709	-9.085055	0.187529	1.386549	-0.015217
2.140	0.812683	-1.571665	655.219886	-0.074356	-9.018082	0.175048	1.376344	-0.011348
2.150	0.754072	-1.588625	655.217165	-0.055089	-8.949214	0.163294	1.365839	-0.008408
2.160	0.694793	-1.600727	655.230926	-0.040509	-8.879686	0.152675	1.355200	-0.006182
2.170	0.630665	-1.605798	655.271952	-0.028175	-8.811029	0.143401	1.344637	-0.004300
2.180	0.559982	-1.604548	655.343580	-0.015122	-8.745364	0.135740	1.334470	-0.002308
2.190	0.485071	-1.599991	655.435919	0.001296	-8.685698	0.130087	1.325179	0.000198
2.200	0.413059	-1.596112	655.524713	0.022594	-8.635864	0.126834	1.317397	0.003447
2.210	0.354947	-1.596239	655.576285	0.048770	-8.599789	0.126184	1.311791	0.007439
2.220	0.322489	-1.601452	655.557277	0.078564	-8.580137	0.128110	1.308831	0.011984
2.230	0.323434	-1.609505	655.445751	0.110173	-8.576920	0.132461	1.308563	0.016809
2.240	0.356903	-1.614848	655.239437	0.142047	-8.586878	0.139125	1.310495	0.021679
2.250	0.411332	-1.610210	654.958272	0.173352	-8.604157	0.148065	1.313695	0.026468
2.260	0.466695	-1.589407	654.641119	0.203996	-8.622157	0.159194	1.317081	0.031162
2.270	0.500737	-1.550153	654.338584	0.234339	-8.635854	0.172198	1.319784	0.035813
2.280	0.496849	-1.495356	654.103698	0.264856	-8.643736	0.186412	1.321463	0.040491
2.290	0.450289	-1.432197	653.981369	0.295922	-8.648648	0.200809	1.322461	0.045249
2.300	0.370309	-1.369557	653.998076	0.327706	-8.657195	0.214081	1.323734	0.050108
2.310	0.277754	-1.315221	654.154720	0.360117	-8.677862	0.224861	1.326576	0.055051
2.320	0.199554	-1.274041	654.425713	0.392809	-8.718498	0.232095	1.332236	0.060023
2.330	0.162096	-1.247363	654.765407	0.425331	-8.784137	0.235487	1.341570	0.064959
2.340	0.185133	-1.233420	655.120022	0.457449	-8.875996	0.235794	1.354866	0.069827
2.350	0.277501	-1.228235	655.440874	0.489514	-8.991863	0.234761	1.371880	0.074685
2.360	0.435674	-1.226806	655.693986	0.522580	-9.127408	0.234603	1.392023	0.079699
2.370	0.645540	-1.224340	655.862650	0.558027	-9.277594	0.237220	1.414564	0.085083
