Time[s]	Fx[N]	Fy[N]	Fz[N]	Mx[Nm]	My[Nm]	Mz[Nm]	COPx[cm]	COPy[cm]
0.010	1.963414	-5.315455	718.750409	-5.864762	9.055840	0.785758	-1.259942	-0.815966
0.020	1.858805	-5.186266	718.611323	-5.774141	9.188628	0.763460	-1.278664	-0.803514
0.030	1.758619	-5.074879	718.525458	-5.688193	9.316502	0.743929	-1.296614	-0.791648
0.040	1.668078	-4.994527	718.522711	-5.610459	9.435187	0.729419	-1.313137	-0.780833
0.050	1.592013	-4.950143	718.597310	-5.542414	9.542040	0.721089	-1.327870	-0.771282
0.060	1.534249	-4.937588	718.714233	-5.483724	9.636537	0.719018	-1.340802	-0.762991
0.070	1.496831	-4.945849	718.827883	-5.433294	9.720147	0.722484	-1.352222	-0.755855
0.080	1.479224	-4.961365	718.902121	-5.390503	9.795506	0.730284	-1.362565	-0.749824
0.090	1.477798	-4.972760	718.921863	-5.355897	9.865186	0.740959	-1.372219	-0.744990
0.100	1.486060	-4.974251	718.892388	-5.330884	9.930689	0.752926	-1.381387	-0.741541
0.110	1.495877	-4.966694	718.829689	-5.316578	9.992108	0.764576	-1.390052	-0.739616
0.120	1.499365	-4.956151	718.749456	-5.312518	10.048519	0.774437	-1.398056	-0.739133
0.130	1.490861	-4.950634	718.661448	-5.316098	10.098764	0.781462	-1.405219	-0.739722
0.140	1.468545	-4.956405	718.571509	-5.323175	10.142223	0.785418	-1.411442	-0.740800
0.150	1.435383	-4.975460	718.488082	-5.329702	10.179200	0.787197	-1.416753	-0.741794
0.160	1.398903	-5.005292	718.426821	-5.333673	10.210753	0.788797	-1.421266	-0.742410
0.170	1.369326	-5.040659	718.408184	-5.336351	10.238061	0.792854	-1.425104	-0.742802
0.180	1.356254	-5.076055	718.448020	-5.341932	10.261769	0.801785	-1.428324	-0.743538
0.190	1.365121	-5.107548	718.546421	-5.355564	10.281783	0.816868	-1.430914	-0.745333
0.200	1.395062	-5.133427	718.682024	-5.380633	10.297628	0.837693	-1.432849	-0.748681
0.210	1.439164	-5.153895	718.816635	-5.416797	10.309080	0.862201	-1.434174	-0.753572
0.220	1.486861	-5.170458	718.909636	-5.459903	10.316636	0.887308	-1.435039	-0.759470
0.230	1.527317	-5.185520	718.935566	-5.503769	10.321609	0.909826	-1.435679	-0.765544
0.240	1.552512	-5.202126	718.895728	-5.542781	10.325926	0.927336	-1.436359	-0.771013
0.250	1.559045	-5.223401	718.817748	-5.573903	10.331824	0.938732	-1.437336	-0.775426
0.260	1.548177	-5.251562	718.743355	-5.597359	10.341553	0.944296	-1.438838	-0.778770
0.270	1.524307	-5.287063	718.710218	-5.616049	10.357080	0.945342	-1.441065	-0.781407
0.280	1.492647	-5.328577	718.736417	-5.634261	10.379774	0.943633	-1.444170	-0.783912
0.290	1.457106	-5.373912	718.814958	-5.656247	10.410152	0.940827	-1.448238	-0.786885
0.300	1.419196	-5.421249	718.920870	-5.685042	10.447744	0.938114	-1.453254	-0.790774
0.310	1.378348	-5.469913	719.026655	-5.721761	10.491077	0.936080	-1.459067	-0.795765
0.320	1.333407	-5.520273	719.117337	-5.765502	10.537739	0.934793	-1.465371	-0.801747
0.330	1.284493	-5.572966	719.196796	-5.813898	10.584560	0.934016	-1.471720	-0.808388
0.340	1.234182	-5.627880	719.282197	-5.864110	10.627978	0.933411	-1.477581	-0.815273
0.350	1.187338	-5.683379	719.389858	-5.913785	10.664614	0.932659	-1.482453	-0.822056
0.360	1.149681	-5.736110	719.520383	-5.961496	10.692022	0.931489	-1.485993	-0.828537
0.370	1.125832	-5.781665	719.651536	-6.006578	10.709365	0.929692	-1.488132	-0.834651
0.380	1.117758	-5.816049	719.743747	-6.048710	10.717680	0.927136	-1.489097	-0.840398
0.390	1.124274	-5.837393	719.756395	-6.087712	10.719425	0.923773	-1.489313	-0.845802
0.400	1.141657	-5.847025	719.666432	-6.123667	10.717368	0.919638	-1.489213	-0.850903
0.410	1.164759	-5.849307	719.479149	-6.157135	10.713288	0.914846	-1.489034	-0.855777
0.420	1.187964	-5.850283	719.225740	-6.189172	10.707151	0.909567	-1.488705	-0.860533
0.430	1.205710	-5.855676	718.950369	-6.221127	10.697186	0.903959	-1.487889	-0.865307
0.440	1.212873	-5.869014	718.694856	-6.254391	10.680807	0.898100	-1.486139	-0.870243
0.450	1.205516	-5.890646	718.488588	-6.290202	10.655891	0.891978	-1.483098	-0.875477
0.460	1.182246	-5.918084	718.346830	-6.329441	10.621778	0.885537	-1.478642	-0.881112
0.470	1.145835	-5.947489	718.275608	-6.372310	10.579530	0.878750	-1.472907	-0.887168
0.480	1.104169	-5.975532	718.277909	-6.417987	10.531361	0.871682	-1.466196	-0.893524
0.490	1.069569	-6.000702	718.355661	-6.464519	10.479497	0.864533	-1.458817	-0.899905
0.500	1.056272	-6.023461	718.505489	-6.509146	10.424950	0.857669	-1.450921	-0.905929
0.510	1.076827	-6.045244	718.711273	-6.549083	10.366721	0.851603	-1.442404	-0.911226
0.520	1.138530	-6.066990	718.939544	-6.582637	10.301867	0.846886	-1.432925	-0.915604
0.530	1.240993	-6.088021	719.142996	-6.610253	10.226473	0.843922	-1.422036	-0.919185
0.540	1.375774	-6.105653	719.273285	-6.634872	10.137135	0.842767	-1.409358	-0.922441
0.550	1.528654	-6.115538	719.298139	-6.661101	10.032183	0.843049	-1.394718	-0.926056
0.560	1.684015	-6.112634	719.213621	-6.693364	9.912090	0.844073	-1.378184	-0.930650
0.570	1.829538	-6.092748	719.044202	-6.733857	9.779039	0.845079	-1.360005	-0.936501
0.580	1.959105	-6.054267	718.831101	-6.781294	9.636177	0.845529	-1.340534	-0.943378
0.590	2.072851	-5.999401	718.616921	-6.831018	9.487133	0.845306	-1.320193	-0.950579
0.600	2.174722	-5.934310	718.435621	-6.876488	9.336027	0.844741	-1.299494	-0.957147
0.610	2.268895	-5.868001	718.310706	-6.911638	9.187720	0.844458	-1.279073	-0.962207
0.620	2.356773	-5.810315	718.257633	-6.933261	9.047847	0.845015	-1.259694	-0.965289
0.630	2.435865	-5.769570	718.285176	-6.942443	8.922228	0.846446	-1.242157	-0.966530
0.640	2.500875	-5.750484	718.394109	-6.944415	8.815620	0.847941	-1.227129	-0.966658
0.650	2.546082	-5.752912	718.574741	-6.946909	8.730203	0.847930	-1.214933	-0.966762
0.660	2.567726	-5.771740	718.804988	-6.957720	8.664585	0.844666	-1.205415	-0.967957
0.670	2.565483	-5.798056	719.049681	-6.982446	8.614043	0.837086	-1.197976	-0.971066
0.680	2.542743	-5.821552	719.262044	-7.023186	8.572079	0.825512	-1.191788	-0.976443
0.690	2.505709	-5.833722	719.389817	-7.078640	8.532656	0.811796	-1.186096	-0.983978
0.700	2.461590	-5.830913	719.388181	-7.145459	8.492076	0.798759	-1.180458	-0.993269
0.710	2.416577	-5.815957	719.237337	-7.220022	8.449722	0.789136	-1.174817	-1.003844
0.720	2.374556	-5.797517	718.956874	-7.299650	8.407543	0.784500	-1.169408	-1.015311
0.730	2.337083	-5.787215	718.607557	-7.382680	8.368721	0.784681	-1.164575	-1.027359
0.740	2.304150	-5.795590	718.276399	-7.467707	8.336284	0.787978	-1.160596	-1.039670
0.750	2.274815	-5.828358	718.049663	-7.552747	8.312196	0.792030	-1.157607	-1.051842
0.760	2.247233	-5.884259	717.985062	-7.634957	8.297102	0.794909	-1.155609	-1.063387
0.770	2.218446	-5.955177	718.094869	-7.711057	8.290554	0.795927	-1.154521	-1.073822
0.780	2.184641	-6.028521	718.346028	-7.778201	8.291405	0.795813	-1.154236	-1.082793
0.790	2.142189	-6.091128	718.675373	-7.834833	8.298057	0.796204	-1.154632	-1.090177
0.800	2.089110	-6.133314	719.012193	-7.881171	8.308418	0.798752	-1.155532	-1.096111
0.810	2.026367	-6.151578	719.298688	-7.919191	8.319654	0.804314	-1.156634	-1.100960
0.820	1.958570	-6.149097	719.501359	-7.952243	8.328038	0.812641	-1.157474	-1.105244
0.830	1.893880	-6.134118	719.611454	-7.984507	8.329250	0.822666	-1.157465	-1.109558
0.840	1.842813	-6.116998	719.637733	-8.020386	8.319257	0.833132	-1.156034	-1.114503
0.850	1.815725	-6.106834	719.597414	-8.063871	8.295507	0.843161	-1.152798	-1.120609
0.860	1.819325	-6.108746	719.510144	-8.117839	8.257870	0.852441	-1.147707	-1.128245
0.870	1.853554	-6.122799	719.396381	-8.183328	8.208813	0.861033	-1.141070	-1.137527
0.880	1.910541	-6.145061	719.278568	-8.258993	8.152711	0.868992	-1.133457	-1.148233
0.890	1.976599	-6.170183	719.182111	-8.341132	8.094544	0.876085	-1.125521	-1.159808
0.900	2.036702	-6.194053	719.133387	-8.424585	8.038416	0.881737	-1.117792	-1.171491
0.910	2.079607	-6.215346	719.153693	-8.504332	7.986269	0.885231	-1.110509	-1.182547
0.920	2.101563	-6.235819	719.250903	-8.577112	7.937217	0.886079	-1.103539	-1.192506
0.930	2.107313	-6.259826	719.412915	-8.642315	7.887718	0.884427	-1.096410	-1.201301
0.940	2.108376	-6.293245	719.606676	-8.701808	7.832555	0.881227	-1.088449	-1.209245
0.950	2.119350	-6.341644	719.784425	-8.758989	7.766274	0.878006	-1.078972	-1.216891
0.960	2.153225	-6.407862	719.896422	-8.817643	7.684617	0.876273	-1.067461	-1.224849
0.970	2.216900	-6.489957	719.907268	-8.881046	7.585558	0.876862	-1.053685	-1.233638
0.980	2.308496	-6.580718	719.810365	-8.951397	7.469698	0.879556	-1.037731	-1.243577
0.990	2.417792	-6.669299	719.633485	-9.029502	7.339944	0.883192	-1.019956	-1.254736
1.000	2.529910	-6.744525	719.430606	-9.114698	7.200598	0.886185	-1.000875	-1.266932
1.010	2.630828	-6.798561	719.261515	-9.205060	7.056121	0.887217	-0.981023	-1.279793
1.020	2.712354	-6.829429	719.167630	-9.297892	6.909998	0.885777	-0.960833	-1.292869
1.030	2.774473	-6.841408	719.155570	-9.390409	6.764078	0.882336	-0.940558	-1.305755
1.040	2.824278	-6.843238	719.196671	-9.480433	6.618642	0.878142	-0.920283	-1.318198
1.050	2.872430	-6.845005	719.242553	-9.566813	6.473151	0.874752	-0.899996	-1.330123
1.060	2.929018	-6.854894	719.248552	-9.649379	6.327257	0.873469	-0.879704	-1.341592
1.070	3.000517	-6.876900	719.193267	-9.728465	6.181487	0.874832	-0.859503	-1.352691
1.080	3.088575	-6.910092	719.085664	-9.804344	6.037274	0.878351	-0.839576	-1.363446
1.090	3.190446	-6.949576	718.958518	-9.876994	5.896353	0.882636	-0.820124	-1.373792
1.100	3.300429	-6.988691	718.853339	-9.946287	5.759875	0.885966	-0.801259	-1.383632
1.110	3.411588	-7.021500	718.803871	-10.012307	5.627678	0.887068	-0.782923	-1.392912
1.120	3.517255	-7.044532	718.823672	-10.075432	5.498156	0.885731	-0.764882	-1.401656
1.130	3.612141	-7.057290	718.900954	-10.136086	5.368940	0.882949	-0.746826	-1.409942
1.140	3.693114	-7.061724	719.002037	-10.194419	5.238224	0.880496	-0.728541	-1.417857
1.150	3.759530	-7.061244	719.082744	-10.250163	5.106219	0.880159	-0.710102	-1.425450
1.160	3.812816	-7.059706	719.104374	-10.302796	4.975980	0.882998	-0.691969	-1.432726
1.170	3.855235	-7.060500	719.048508	-10.351898	4.853084	0.888954	-0.674931	-1.439666
1.180	3.888372	-7.065733	718.924427	-10.397492	4.744154	0.896940	-0.659896	-1.446257
1.190	3.912240	-7.075743	718.765658	-10.440169	4.654800	0.905325	-0.647610	-1.452514
1.200	3.925613	-7.089263	718.617374	-10.480989	4.587811	0.912605	-0.638422	-1.458494
1.210	3.927449	-7.104194	718.520604	-10.521225	4.542182	0.917966	-0.632158	-1.464290
1.220	3.918628	-7.118618	718.499582	-10.562036	4.513220	0.921497	-0.628145	-1.470013
1.230	3.903031	-7.131714	718.555928	-10.604106	4.493667	0.923982	-0.625375	-1.475752
1.240	3.887214	-7.144380	718.670447	-10.647428	4.475556	0.926451	-0.622755	-1.481545
1.250	3.878629	-7.159172	718.810931	-10.691417	4.452268	0.929733	-0.619394	-1.487375
1.260	3.883190	-7.179170	718.942782	-10.735381	4.420107	0.934174	-0.614806	-1.493218
1.270	3.903464	-7.206098	719.038595	-10.779074	4.378845	0.939550	-0.608986	-1.499095
1.280	3.938371	-7.238872	719.083369	-10.822996	4.331183	0.945165	-0.602320	-1.505110
1.290	3.984318	-7.273672	719.074074	-10.868288	4.281556	0.950111	-0.595426	-1.511428
1.300	4.036755	-7.305667	719.015337	-10.916292	4.234849	0.953581	-0.588979	-1.518228
1.310	4.091057	-7.331387	718.914996	-10.967917	4.195372	0.955168	-0.583570	-1.525621
1.320	4.142461	-7.350311	718.782174	-11.023004	4.166200	0.955039	-0.579619	-1.533567
1.330	4.185779	-7.364624	718.627922	-11.079920	4.148942	0.953949	-0.577342	-1.541816
1.340	4.215759	-7.377222	718.466849	-11.135591	4.143945	0.953014	-0.576776	-1.549910
1.350	4.228288	-7.389191	718.317943	-11.186094	4.150772	0.953316	-0.577846	-1.557262
1.360	4.221789	-7.398430	718.202905	-11.227667	4.168663	0.955484	-0.580430	-1.563300
1.370	4.198036	-7.400388	718.141021	-11.257759	4.196732	0.959466	-0.584388	-1.567625
1.380	4.161870	-7.390622	718.141762	-11.275707	4.233975	0.964586	-0.589574	-1.570123
1.390	4.119758	-7.367751	718.198750	-11.282798	4.279310	0.969872	-0.595839	-1.570985
1.400	4.077556	-7.335071	718.289441	-11.281786	4.331818	0.974551	-0.603074	-1.570646
1.410	4.038359	-7.299817	718.382576	-11.276122	4.391064	0.978478	-0.611243	-1.569654
1.420	4.001527	-7.270364	718.450719	-11.269135	4.457206	0.982279	-0.620391	-1.568533
1.430	3.963533	-7.252886	718.481366	-11.263352	4.530679	0.987049	-0.630591	-1.567661
1.440	3.920216	-7.249249	718.480473	-11.260039	4.611553	0.993682	-0.641848	-1.567202
1.450	3.869022	-7.256973	718.467127	-11.259039	4.698978	1.002209	-0.654028	-1.567092
1.460	3.809924	-7.270760	718.463396	-11.258866	4.791193	1.011555	-0.666867	-1.567076
1.470	3.744678	-7.284434	718.485624	-11.257099	4.886198	1.019907	-0.680069	-1.566781
1.480	3.675154	-7.292487	718.541313	-11.251077	4.982706	1.025458	-0.693447	-1.565822
1.490	3.601800	-7.291212	718.631439	-11.238813	5.080685	1.027116	-0.706995	-1.563919
1.500	3.523137	-7.279606	718.754663	-11.219775	5.180999	1.024822	-0.720830	-1.561002
1.510	3.436744	-7.259789	718.909334	-11.195070	5.284297	1.019398	-0.735044	-1.557230
1.520	3.341511	-7.236422	719.091235	-11.166798	5.389768	1.012098	-0.749525	-1.552904
1.530	3.239981	-7.215070	719.288167	-11.136898	5.494547	1.004128	-0.763887	-1.548322
1.540	3.139106	-7.200317	719.475269	-11.106102	5.594163	0.996385	-0.777534	-1.543639
1.550	3.048535	-7.194568	719.615804	-11.073554	5.683899	0.989437	-0.789852	-1.538815
1.560	2.977002	-7.197828	719.670057	-11.037238	5.760433	0.983641	-0.800427	-1.533652
1.570	2.928634	-7.208070	719.610084	-10.994935	5.823078	0.979217	-0.809199	-1.527902
1.580	2.901070	-7.221771	719.433425	-10.945315	5.874154	0.976211	-0.816497	-1.521380
1.590	2.886240	-7.234510	719.168529	-10.888736	5.918407	0.974408	-0.822951	-1.514073
1.600	2.873265	-7.241792	718.869021	-10.827451	5.961665	0.973325	-0.829312	-1.506178
1.610	2.852025	-7.240124	718.599153	-10.765093	6.009092	0.972302	-0.836223	-1.498067
1.620	2.816041	-7.228029	718.415913	-10.705637	6.063570	0.970668	-0.844019	-1.490173
1.630	2.763934	-7.206597	718.353891	-10.652263	6.124738	0.967903	-0.852607	-1.482871
1.640	2.699487	-7.179303	718.417483	-10.606583	6.189010	0.963782	-0.861478	-1.476382
1.650	2.630599	-7.151221	718.581881	-10.568387	6.250479	0.958437	-0.869835	-1.470728
1.660	2.567498	-7.127828	718.801272	-10.535827	6.302420	0.952299	-0.876796	-1.465750
1.670	2.520572	-7.113601	719.021194	-10.505911	6.339004	0.945941	-0.881616	-1.461141
1.680	2.498331	-7.110668	719.192096	-10.475229	6.356805	0.939843	-0.883881	-1.456527
1.690	2.505904	-7.118049	719.281410	-10.440835	6.355636	0.934171	-0.883609	-1.451565
1.700	2.544163	-7.131863	719.281160	-10.401026	6.338383	0.928638	-0.881211	-1.446031
1.710	2.609466	-7.146453	719.208328	-10.355677	6.309886	0.922594	-0.877338	-1.439872
1.720	2.694167	-7.155884	719.097189	-10.305898	6.275384	0.915359	-0.872675	-1.433172
1.730	2.787949	-7.155245	718.985986	-10.253088	6.239235	0.906670	-0.867783	-1.426048
1.740	2.879695	-7.141450	718.902889	-10.197859	6.204438	0.896916	-0.863043	-1.418531
1.750	2.959438	-7.113581	718.857084	-10.139498	6.172976	0.886993	-0.858721	-1.410503
1.760	3.020063	-7.072884	718.839075	-10.076324	6.146527	0.877866	-0.855063	-1.401750
1.770	3.058573	-7.022437	718.829712	-10.006726	6.126895	0.870128	-0.852343	-1.392086
1.780	3.076662	-6.966345	718.812187	-9.930226	6.115807	0.863796	-0.850821	-1.381477
1.790	3.080275	-6.908543	718.779828	-9.848013	6.114328	0.858382	-0.850654	-1.370101
1.800	3.077992	-6.851636	718.736437	-9.762727	6.122470	0.853127	-0.851838	-1.358318
1.810	3.078480	-6.796376	718.691605	-9.677690	6.139392	0.847283	-0.854246	-1.346571
1.820	3.087817	-6.742113	718.655842	-9.595960	6.164044	0.840323	-0.857718	-1.335265
1.830	3.107690	-6.687852	718.637988	-9.519664	6.195740	0.832050	-0.862150	-1.324681
1.840	3.135085	-6.633114	718.643671	-9.449878	6.234296	0.822631	-0.867509	-1.314960
1.850	3.163335	-6.578026	718.673065	-9.386884	6.279751	0.812587	-0.873798	-1.306141
1.860	3.183947	-6.522828	718.718760	-9.330416	6.331994	0.802717	-0.881011	-1.298201
1.870	3.188703	-6.467552	718.766656	-9.279578	6.390624	0.793921	-0.889110	-1.291042
1.880	3.171835	-6.412323	718.801357	-9.232525	6.455084	0.786996	-0.898035	-1.284433
1.890	3.132129	-6.357822	718.813611	-9.186321	6.524918	0.782513	-0.907734	-1.277984
1.900	3.074283	-6.305050	718.804761	-9.137355	6.599830	0.780776	-0.918167	-1.271187
1.910	3.008518	-6.254329	718.784732	-9.082291	6.679384	0.781806	-0.929261	-1.263562
1.920	2.947857	-6.204381	718.764544	-9.019133	6.762512	0.785342	-0.940852	-1.254810
1.930	2.903707	-6.152439	718.747911	-8.947856	6.847322	0.790897	-0.952674	-1.244923
1.940	2.881608	-6.095504	718.727217	-8.870297	6.931581	0.797879	-0.964425	-1.234167
1.950	2.879207	-6.032079	718.687153	-8.789326	7.013782	0.805725	-0.975916	-1.222970
1.960	2.887417	-5.963357	718.614779	-8.707693	7.094133	0.813962	-0.987196	-1.211733
1.970	2.894114	-5.893047	718.509959	-8.627008	7.174837	0.822231	-0.998572	-1.200680
1.980	2.888579	-5.825794	718.389425	-8.547262	7.259428	0.830287	-1.010514	-1.189781
1.990	2.864889	-5.765113	718.282417	-8.467002	7.351462	0.837995	-1.023478	-1.178785
2.000	2.823205	-5.712164	718.221250	-8.384094	7.453099	0.845310	-1.037716	-1.167341
2.010	2.768865	-5.666093	718.231472	-8.296851	7.564043	0.852282	-1.053148	-1.155178
2.020	2.709934	-5.625528	718.324330	-8.205125	7.681135	0.859066	-1.069313	-1.142259
2.030	2.654425	-5.590198	718.492981	-8.110859	7.798773	0.865912	-1.085435	-1.128871
2.040	2.608415	-5.561655	718.713412	-8.017788	7.910181	0.873100	-1.100603	-1.115575
2.050	2.575569	-5.542663	718.949718	-7.930430	8.009255	0.880842	-1.114022	-1.103058
2.060	2.557568	-5.535428	719.161784	-7.852797	8.092364	0.889184	-1.125249	-1.091937
2.070	2.554454	-5.539537	719.313214	-7.787253	8.159405	0.897937	-1.134333	-1.082596
2.080	2.564361	-5.550742	719.378182	-7.733859	8.213605	0.906681	-1.141765	-1.075076
2.090	2.582997	-5.561477	719.345889	-7.690350	8.260242	0.914883	-1.148299	-1.069075
2.100	2.603674	-5.563325	719.221164	-7.652724	8.304940	0.922087	-1.154713	-1.064029
2.110	2.618226	-5.550494	719.021260	-7.616271	8.352342	0.928060	-1.161627	-1.059255
2.120	2.618581	-5.522587	718.771394	-7.576735	8.405588	0.932814	-1.169438	-1.054123
2.130	2.598481	-5.485120	718.501887	-7.531311	8.466544	0.936502	-1.178361	-1.048196
2.140	2.554927	-5.447591	718.246917	-7.479145	8.536418	0.939308	-1.188507	-1.041305
2.150	2.488905	-5.420160	718.042350	-7.421250	8.616287	0.941350	-1.199969	-1.033539
2.160	2.405084	-5.410284	717.920787	-7.360035	8.707149	0.942613	-1.212829	-1.025188
2.170	2.310542	-5.420243	717.904824	-7.298668	8.809320	0.942885	-1.227087	-1.016662
2.180	2.213055	-5.446171	718.001147	-7.240347	8.921449	0.941788	-1.242540	-1.008403
2.190	2.119512	-5.479089	718.197563	-7.187444	9.039832	0.938938	-1.258683	-1.000761
2.200	2.034805	-5.507930	718.463940	-7.140682	9.158674	0.934174	-1.274758	-0.993882
2.210	1.961414	-5.523494	718.757380	-7.098791	9.271470	0.927687	-1.289930	-0.987648
2.220	1.899776	-5.521509	719.030789	-7.058974	9.372993	0.919935	-1.303559	-0.981735
2.230	1.849205	-5.503319	719.242153	-7.018048	9.461009	0.911344	-1.315414	-0.975756
2.240	1.808768	-5.474186	719.361009	-6.973679	9.536911	0.901961	-1.325748	-0.969427
2.250	1.777527	-5.440413	719.370501	-6.925119	9.605068	0.891365	-1.335205	-0.962664
2.260	1.754021	-5.406903	719.266774	-6.873279	9.671274	0.878960	-1.344602	-0.955595
2.270	1.735440	-5.375970	719.058891	-6.820356	9.741063	0.864516	-1.354696	-0.948511
2.280	1.717178	-5.347232	718.770722	-6.769268	9.818582	0.848565	-1.366024	-0.941784
2.290	1.693193	-5.318015	718.442947	-6.722963	9.906242	0.832355	-1.378849	-0.935769
2.300	1.657170	-5.284135	718.131291	-6.683740	10.004931	0.817361	-1.393190	-0.930713
2.310	1.604277	-5.241389	717.898219	-6.652882	10.114352	0.804684	-1.408884	-0.926717
2.320	1.533085	-5.187762	717.798656	-6.630747	10.233121	0.794692	-1.425626	-0.923761
2.330	1.446875	-5.125412	717.863833	-6.617142	10.358571	0.787069	-1.442972	-0.921782
2.340	1.353432	-5.061176	718.089687	-6.611659	10.486561	0.781118	-1.460341	-0.920729
2.350	1.263025	-5.004960	718.435882	-6.613843	10.611694	0.776096	-1.477055	-0.920589
