Time[s]	Fx[N]	Fy[N]	Fz[N]	Mx[Nm]	My[Nm]	Mz[Nm]	COPx[cm]	COPy[cm]
0.010	9.706193	3.877919	727.756024	4.821600	-5.351584	-0.961453	0.735354	0.662530
0.020	10.158052	4.112300	726.337721	5.116125	-5.871444	-0.989789	0.808363	0.704373
0.030	10.588222	4.326618	725.098260	5.401208	-6.369552	-1.011959	0.878440	0.744893
0.040	10.985987	4.505592	724.216923	5.669798	-6.831872	-1.023126	0.943346	0.782887
0.050	11.356906	4.642048	723.843524	5.918405	-7.256154	-1.020677	1.002448	0.817636
0.060	11.720693	4.737531	724.068776	6.147009	-7.650595	-1.004804	1.056612	0.848954
0.070	12.101732	4.800600	724.891038	6.357876	-8.027817	-0.978407	1.107452	0.877080
0.080	12.516026	4.843577	726.193236	6.553894	-8.397103	-0.946219	1.156318	0.902500
0.090	12.960033	4.878653	727.744033	6.736983	-8.758274	-0.913367	1.203483	0.925735
0.100	13.406289	4.914434	729.230507	6.906908	-9.099548	-0.883831	1.247829	0.947150
0.110	13.808131	4.953949	730.318880	7.060747	-9.399880	-0.859366	1.287093	0.966803
0.120	14.112367	4.994642	730.729819	7.193214	-9.634571	-0.839222	1.318486	0.984388
0.130	14.275624	5.029981	730.308860	7.297885	-9.781992	-0.820698	1.339432	0.999287
0.140	14.278317	5.051726	729.071665	7.369109	-9.829233	-0.800299	1.348185	1.010752
0.150	14.130622	5.051979	727.209162	7.404072	-9.775111	-0.775114	1.344195	1.018149
0.160	13.867819	5.024682	725.049029	7.404256	-9.629938	-0.743982	1.328177	1.021208
0.170	13.537002	4.966610	722.983900	7.375552	-9.412444	-0.708009	1.301888	1.020154
0.180	13.181039	4.877924	721.386558	7.326759	-9.144992	-0.670230	1.267696	1.015649
0.190	12.826653	4.762089	720.534441	7.266927	-8.848572	-0.634516	1.228057	1.008547
0.200	12.481219	4.625063	720.560521	7.202668	-8.538970	-0.604142	1.185046	0.999592
0.210	12.138512	4.473856	721.438631	7.136610	-8.224909	-0.580639	1.140070	0.989219
0.220	11.789335	4.314885	723.002178	7.067591	-7.908186	-0.563410	1.093798	0.977534
0.230	11.430730	4.152712	724.988483	6.992329	-7.585168	-0.550232	1.046247	0.964474
0.240	11.068721	3.989851	727.097500	6.907689	-7.248792	-0.538340	0.996949	0.950036
0.250	10.713727	3.827757	729.052115	6.812643	-6.890492	-0.525569	0.945130	0.934452
0.260	10.372298	3.668315	730.647020	6.709167	-6.501838	-0.511028	0.889874	0.918250
0.270	10.040812	3.514807	731.774990	6.601694	-6.075829	-0.495141	0.830286	0.902148
0.280	9.705070	3.371783	732.424902	6.495301	-5.607841	-0.479190	0.765654	0.886821
0.290	9.345905	3.243978	732.654730	6.393568	-5.096173	-0.464706	0.695576	0.872658
0.300	8.947427	3.134869	732.551831	6.297312	-4.542112	-0.452972	0.620040	0.859640
0.310	8.503282	3.045418	732.197334	6.204783	-3.949391	-0.444679	0.539389	0.847419
0.320	8.017592	2.973314	731.648432	6.113021	-3.323033	-0.439689	0.454184	0.835513
0.330	7.500432	2.912888	730.943392	6.019527	-2.667862	-0.436893	0.364989	0.823528
0.340	6.960934	2.855803	730.123288	5.923462	-1.987410	-0.434284	0.272202	0.811296
0.350	6.402446	2.792530	729.256506	5.825941	-1.283960	-0.429325	0.176064	0.798888
0.360	5.822788	2.714349	728.450446	5.729388	-0.560029	-0.419561	0.076880	0.786517
0.370	5.219508	2.615503	727.840756	5.636275	0.179250	-0.403288	-0.024628	0.774383
0.380	4.597257	2.495115	727.559043	5.547851	0.924011	-0.380077	-0.127001	0.762529
0.390	3.973290	2.358365	727.690424	5.463543	1.659054	-0.351024	-0.227989	0.750806
0.400	3.378014	2.216170	728.238051	5.381430	2.365395	-0.318651	-0.324811	0.738966
0.410	2.849751	2.082657	729.110722	5.299573	3.023749	-0.286472	-0.414717	0.726854
0.420	2.425259	1.970678	730.141839	5.217366	3.618867	-0.258273	-0.495639	0.714569
0.430	2.129182	1.887159	731.135472	5.136046	4.143161	-0.237284	-0.566675	0.702475
0.440	1.965988	1.830787	731.923486	5.057977	4.598138	-0.225448	-0.628227	0.691053
0.450	1.917462	1.793311	732.412511	4.985205	4.992955	-0.223038	-0.681713	0.680655
0.460	1.947369	1.763492	732.604380	4.918216	5.340584	-0.228782	-0.728986	0.671333
0.470	2.012353	1.731366	732.585179	4.855711	5.653102	-0.240444	-0.771665	0.662819
0.480	2.075137	1.690927	732.489203	4.795437	5.938053	-0.255583	-0.810668	0.654677
0.490	2.114249	1.640745	732.449918	4.735440	6.197457	-0.272140	-0.846127	0.646521
0.500	2.125508	1.583057	732.550917	4.674892	6.429910	-0.288685	-0.877742	0.638166
0.510	2.114430	1.522180	732.788494	4.614078	6.634729	-0.304360	-0.905408	0.629660
0.520	2.083523	1.462861	733.055980	4.553719	6.816132	-0.318670	-0.929824	0.621197
0.530	2.021442	1.408872	733.157716	4.494227	6.985350	-0.331343	-0.952776	0.612996
0.540	1.900368	1.362012	732.855611	4.435415	7.159524	-0.342313	-0.976935	0.605224
0.550	1.684015	1.321660	731.942080	4.376857	7.357634	-0.351805	-1.005221	0.597979
0.560	1.343211	1.284961	730.321132	4.318695	7.595094	-0.360406	-1.039966	0.591342
0.570	0.871787	1.247700	728.070105	4.262358	7.879199	-0.369045	-1.082203	0.585432
0.580	0.295057	1.205760	725.455364	4.210713	8.207067	-0.378849	-1.131299	0.580423
0.590	-0.333122	1.156883	722.889456	4.167491	8.566502	-0.390859	-1.185036	0.576505
0.600	-0.942852	1.102179	720.838624	4.136299	8.939077	-0.405670	-1.240094	0.573818
0.610	-1.464462	1.046679	719.707099	4.119618	9.304263	-0.423157	-1.292785	0.572402
0.620	-1.842777	0.998410	719.731335	4.118082	9.643434	-0.442516	-1.339866	0.572169
0.630	-2.046414	0.966032	720.914346	4.130191	9.942885	-0.462670	-1.379205	0.572910
0.640	-2.071575	0.955740	723.020757	4.152411	10.195340	-0.482875	-1.410103	0.574314
0.650	-1.940470	0.968514	725.637421	4.179550	10.399720	-0.503098	-1.433184	0.575983
0.660	-1.694500	0.998801	728.283564	4.205414	10.559326	-0.523888	-1.449892	0.577442
0.670	-1.383130	1.035486	730.535702	4.223908	10.679031	-0.545803	-1.461808	0.578193
0.680	-1.050897	1.065050	732.126326	4.230590	10.762492	-0.568767	-1.470032	0.577850
0.690	-0.726360	1.075603	732.986431	4.224165	10.810428	-0.591801	-1.474847	0.576295
0.700	-0.416965	1.059922	733.225305	4.207067	10.820572	-0.613294	-1.475750	0.573775
0.710	-0.112184	1.016253	733.064313	4.184577	10.789199	-0.631625	-1.471794	0.570834
0.720	0.205829	0.946907	732.753563	4.162729	10.713545	-0.645723	-1.462094	0.568094
0.730	0.548311	0.855737	732.498400	4.145906	10.594106	-0.655254	-1.446297	0.565995
0.740	0.909107	0.746036	732.411919	4.135177	10.435783	-0.660422	-1.424852	0.564597
0.750	1.262759	0.620251	732.497897	4.128076	10.247249	-0.661671	-1.398946	0.563562
0.760	1.573349	0.481805	732.660741	4.119880	10.038682	-0.659556	-1.370168	0.562318
0.770	1.810232	0.337924	732.735985	4.105741	9.818968	-0.654829	-1.340042	0.560330
0.780	1.962417	0.201333	732.534280	4.082716	9.593964	-0.648541	-1.309695	0.557341
0.790	2.043615	0.088911	731.891073	4.050929	9.366933	-0.641925	-1.279826	0.553488
0.800	2.085259	0.016915	730.712466	4.013539	9.140875	-0.636061	-1.250954	0.549264
0.810	2.121681	-0.005386	729.006824	3.975719	8.921214	-0.631557	-1.223749	0.545361
0.820	2.175790	0.019654	726.894105	3.943094	8.717010	-0.628473	-1.199213	0.542458
0.830	2.252683	0.077973	724.590781	3.920289	8.539777	-0.626477	-1.178565	0.541035
0.840	2.343549	0.148583	722.374756	3.909997	8.400419	-0.625047	-1.162889	0.541270
0.850	2.436023	0.210919	720.538626	3.912775	8.305879	-0.623577	-1.152732	0.543035
0.860	2.523864	0.251403	719.340122	3.927512	8.257167	-0.621428	-1.147881	0.545988
0.870	2.610339	0.266829	718.957246	3.952441	8.249617	-0.618028	-1.147442	0.549746
0.880	2.704590	0.263952	719.454603	3.986273	8.274962	-0.613015	-1.150171	0.554069
0.890	2.814693	0.256031	720.767502	4.028908	8.324026	-0.606326	-1.154884	0.558975
0.900	2.942336	0.257666	722.709475	4.081358	8.388895	-0.598157	-1.160756	0.564730
0.910	3.081917	0.279662	725.004609	4.144951	8.463979	-0.588825	-1.167438	0.571714
0.920	3.223574	0.325722	727.339498	4.220224	8.545994	-0.578667	-1.174966	0.580228
0.930	3.357609	0.392211	729.424165	4.306027	8.633194	-0.568052	-1.183563	0.590332
0.940	3.477885	0.470724	731.048338	4.399263	8.724283	-0.557435	-1.193393	0.601775
0.950	3.583397	0.551747	732.118854	4.495457	8.817428	-0.547390	-1.204371	0.614034
0.960	3.678258	0.627540	732.667160	4.589963	8.909673	-0.538572	-1.216060	0.626473
0.970	3.770381	0.693421	732.824148	4.679319	8.996958	-0.531642	-1.227710	0.638532
0.980	3.868808	0.747798	732.770342	4.762257	9.074771	-0.527200	-1.238420	0.649898
0.990	3.979943	0.791626	732.677006	4.840033	9.139289	-0.525749	-1.247383	0.660596
1.000	4.103603	0.827688	732.654876	4.916009	9.188720	-0.527642	-1.254168	0.670986
1.010	4.230300	0.859899	732.723185	4.994584	9.224422	-0.532946	-1.258923	0.681647
1.020	4.340975	0.892738	732.805670	5.079775	9.251385	-0.541267	-1.262461	0.693195
1.030	4.409713	0.931024	732.754370	5.173929	9.277843	-0.551661	-1.266160	0.706093
1.040	4.409061	0.980140	732.396234	5.277132	9.314088	-0.562720	-1.271728	0.720530
1.050	4.316705	1.046539	731.591658	5.387684	9.370816	-0.572846	-1.280881	0.736433
1.060	4.121668	1.137867	730.288657	5.503470	9.457455	-0.580639	-1.295030	0.753602
1.070	3.828016	1.261974	728.554404	5.623595	9.580865	-0.585287	-1.315051	0.771884
1.080	3.454634	1.424517	726.570664	5.749471	9.744742	-0.586823	-1.341197	0.791316
1.090	3.030822	1.625917	724.592008	5.884814	9.949824	-0.586124	-1.373162	0.812155
1.100	2.588982	1.859250	722.880875	6.034557	10.194812	-0.584616	-1.410303	0.834793
1.110	2.156632	2.110649	721.643218	6.203102	10.477607	-0.583802	-1.451910	0.859580
1.120	1.749945	2.362726	720.987262	6.392487	10.796367	-0.584811	-1.497442	0.886630
1.130	1.370369	2.599961	720.916841	6.601086	11.149991	-0.588181	-1.546640	0.915651
1.140	1.005023	2.813912	721.355563	6.823371	11.537993	-0.593876	-1.599488	0.945909
1.150	0.630758	3.005864	722.186341	7.051131	11.960069	-0.601443	-1.656092	0.976359
1.160	0.220963	3.185554	723.288011	7.275976	12.415631	-0.610199	-1.716554	1.005958
1.170	-0.246481	3.366301	724.556792	7.492243	12.903403	-0.619474	-1.780868	1.034045
1.180	-0.781927	3.558642	725.910339	7.698920	13.420863	-0.628825	-1.848832	1.060588
1.190	-1.379162	3.765248	727.280310	7.899408	13.963326	-0.638099	-1.919937	1.086157
1.200	-2.014361	3.979289	728.602738	8.098995	14.522734	-0.647228	-1.993231	1.111579
1.210	-2.649008	4.186692	729.813917	8.301245	15.086710	-0.655877	-2.067200	1.137447
1.220	-3.235975	4.371036	730.854656	8.505141	15.638649	-0.663237	-2.139775	1.163725
1.230	-3.727485	4.519006	731.680319	8.704416	16.159412	-0.668155	-2.208534	1.189647
1.240	-4.083986	4.624516	732.271027	8.889356	16.630522	-0.669560	-2.271088	1.213943
1.250	-4.282941	4.690370	732.636659	9.050167	17.038013	-0.666929	-2.325575	1.235287
1.260	-4.325760	4.727146	732.813957	9.180314	17.375562	-0.660578	-2.371074	1.252748
1.270	-4.240181	4.749850	732.856580	9.278300	17.645498	-0.651721	-2.407770	1.266046
1.280	-4.075571	4.773542	732.821956	9.347260	17.856918	-0.642306	-2.436734	1.275516
1.290	-3.890802	4.809332	732.759715	9.392895	18.021384	-0.634574	-2.459385	1.281852
1.300	-3.737794	4.861855	732.704970	9.421056	18.147866	-0.630348	-2.476831	1.285791
1.310	-3.646745	4.928766	732.677004	9.436104	18.239080	-0.630306	-2.489375	1.287894
1.320	-3.619098	5.002181	732.681573	9.440377	18.290720	-0.633625	-2.496408	1.288469
1.330	-3.631193	5.071282	732.714264	9.434415	18.293767	-0.638225	-2.496712	1.287598
1.340	-3.646688	5.124872	732.762936	9.417464	18.238625	-0.641525	-2.489021	1.285199
1.350	-3.631843	5.152929	732.808662	9.387911	18.119114	-0.641318	-2.472557	1.281086
1.360	-3.566647	5.147001	732.825996	9.343497	17.934612	-0.636374	-2.447322	1.274995
1.370	-3.447389	5.100170	732.784059	9.281355	17.689844	-0.626581	-2.414060	1.266588
1.380	-3.281247	5.007498	732.649723	9.198134	17.393131	-0.612697	-2.374004	1.255461
1.390	-3.077881	4.867328	732.393080	9.090500	17.054522	-0.595897	-2.328602	1.241205
1.400	-2.843913	4.683000	731.994209	8.956051	16.684865	-0.577354	-2.279371	1.223514
1.410	-2.583257	4.463915	731.449645	8.794378	16.295825	-0.558022	-2.227881	1.202322
1.420	-2.301752	4.224917	730.777375	8.607842	15.900009	-0.538654	-2.175766	1.177902
1.430	-2.011648	3.983540	730.019929	8.401665	15.510277	-0.519972	-2.124637	1.150882
1.440	-1.731867	3.755917	729.244933	8.183122	15.138047	-0.502796	-2.075852	1.122136
1.450	-1.483034	3.553076	728.541457	7.959955	14.791130	-0.488060	-2.030239	1.092588
1.460	-1.279850	3.379314	728.009863	7.738450	14.471946	-0.476708	-1.987878	1.062959
1.470	-1.124941	3.233178	727.744215	7.521860	14.176764	-0.469542	-1.948042	1.033586
1.480	-1.007230	3.110185	727.809427	7.309848	13.896304	-0.467015	-1.909333	1.004363
1.490	-0.905305	3.005639	728.219038	7.099206	13.617778	-0.469007	-1.870011	0.974872
1.500	-0.794298	2.916134	728.922267	6.885603	13.328081	-0.474675	-1.828464	0.944628
1.510	-0.654010	2.839229	729.808758	6.665593	13.017382	-0.482520	-1.783670	0.913334
1.520	-0.475842	2.771776	730.734045	6.437940	12.681950	-0.490750	-1.735508	0.881024
1.530	-0.266077	2.708207	731.558756	6.203782	12.325027	-0.497792	-1.684762	0.848022
1.540	-0.043814	2.640220	732.186193	5.965806	11.955176	-0.502671	-1.632805	0.814794
1.550	0.166130	2.558555	732.582821	5.727044	11.582646	-0.505028	-1.581070	0.781761
1.560	0.342607	2.456240	732.774542	5.489929	11.215234	-0.504842	-1.530516	0.749197
1.570	0.475852	2.331630	732.822614	5.256010	10.855437	-0.502124	-1.481318	0.717228
1.580	0.570472	2.189514	732.790622	5.026368	10.500025	-0.496810	-1.432882	0.685921
1.590	0.642871	2.039424	732.715847	4.802331	10.142092	-0.488869	-1.384178	0.655415
1.600	0.714472	1.891629	732.595193	4.585859	9.774513	-0.478477	-1.334231	0.625975
1.610	0.803374	1.752625	732.389922	4.379120	9.393285	-0.466127	-1.282552	0.597922
1.620	0.917572	1.622431	732.046960	4.183383	8.999302	-0.452621	-1.229334	0.571464
1.630	1.052400	1.495128	731.528893	3.997845	8.597926	-0.438903	-1.175336	0.546505
1.640	1.193416	1.362105	730.841412	3.819088	8.196704	-0.425793	-1.121544	0.522560
1.650	1.323635	1.215910	730.047024	3.641543	7.802437	-0.413687	-1.068758	0.498809
1.660	1.432047	1.052585	729.258530	3.458832	7.418918	-0.402412	-1.017323	0.474294
1.670	1.519550	0.871760	728.613336	3.265412	7.046227	-0.391380	-0.967074	0.448168
1.680	1.599444	0.675278	728.236864	3.057818	6.681568	-0.380030	-0.917499	0.419893
1.690	1.692157	0.465703	728.207062	2.835036	6.320862	-0.368325	-0.868003	0.389317
1.700	1.816812	0.245727	728.531489	2.597951	5.960082	-0.356991	-0.818095	0.356601
1.710	1.983860	0.018657	729.144344	2.348249	5.595668	-0.347289	-0.767429	0.322055
1.720	2.192435	-0.210495	729.924420	2.087425	5.224070	-0.340380	-0.715700	0.285978
1.730	2.433458	-0.434114	730.728016	1.816472	4.840992	-0.336615	-0.662489	0.248584
1.740	2.696367	-0.642091	731.425840	1.536399	4.441087	-0.335152	-0.607182	0.210055
1.750	2.975487	-0.823546	731.932466	1.249102	4.018520	-0.334163	-0.549029	0.170658
1.760	3.272520	-0.970123	732.220834	0.957857	3.568344	-0.331559	-0.487332	0.130815
1.770	3.594033	-1.079895	732.320073	0.666903	3.088035	-0.325836	-0.421678	0.091067
1.780	3.945683	-1.160126	732.299606	0.380263	2.578449	-0.316594	-0.352103	0.051927
1.790	4.326599	-1.227216	732.244797	0.100468	2.043714	-0.304458	-0.279103	0.013721
1.800	4.726907	-1.303117	732.229742	-0.172026	1.490207	-0.290530	-0.203516	-0.023493
1.810	5.129567	-1.409058	732.292389	-0.438330	0.925236	-0.275775	-0.126348	-0.059857
1.820	5.515532	-1.558842	732.416876	-0.699746	0.356151	-0.260719	-0.048627	-0.095539
1.830	5.869579	-1.754450	732.527849	-0.956270	-0.209790	-0.245615	0.028639	-0.130544
1.840	6.183747	-1.985872	732.500900	-1.205794	-0.765029	-0.230924	0.104441	-0.164613
1.850	6.456590	-2.235306	732.190758	-1.444347	-1.301390	-0.217703	0.177739	-0.197264
1.860	6.689010	-2.483881	731.473920	-1.667120	-1.810367	-0.207599	0.247496	-0.227912
1.870	6.879795	-2.717789	730.295785	-1.869720	-2.284184	-0.202408	0.312775	-0.256022
1.880	7.024309	-2.931073	728.706880	-2.049194	-2.717463	-0.203436	0.372916	-0.281210
1.890	7.117603	-3.124077	726.872541	-2.204547	-3.109024	-0.210976	0.427726	-0.303292
1.900	7.160152	-3.299019	725.047725	-2.336554	-3.463024	-0.224050	0.477627	-0.322262
1.910	7.162567	-3.455588	723.521635	-2.446768	-3.788484	-0.240488	0.523617	-0.338175
1.920	7.146071	-3.589124	722.549072	-2.535982	-4.096772	-0.257373	0.566989	-0.350977
1.930	7.137882	-3.692040	722.290169	-2.602786	-4.397811	-0.271832	0.608870	-0.360352
1.940	7.163273	-3.757194	722.775453	-2.642923	-4.696628	-0.282014	0.649805	-0.365663
1.950	7.237687	-3.781062	723.902927	-2.649835	-4.991747	-0.287875	0.689560	-0.366048
1.960	7.362051	-3.765247	725.464191	-2.616253	-5.275863	-0.291400	0.727240	-0.360632
1.970	7.522839	-3.715996	727.190875	-2.536293	-5.538254	-0.296081	0.761596	-0.348779
1.980	7.696440	-3.642065	728.810338	-2.407341	-5.767785	-0.305864	0.791397	-0.330311
1.990	7.855991	-3.551510	730.098925	-2.231084	-5.955460	-0.323911	0.815706	-0.305587
2.000	7.978381	-3.448315	730.921356	-2.013332	-6.095891	-0.351617	0.834001	-0.275451
2.010	8.049429	-3.330227	731.247579	-1.762767	-6.187684	-0.388181	0.846182	-0.241063
2.020	8.066006	-3.189102	731.144383	-1.489153	-6.233111	-0.430858	0.852514	-0.203674
2.030	8.034803	-3.014203	730.746731	-1.201661	-6.237429	-0.475803	0.853569	-0.164443
2.040	7.968480	-2.797477	730.219060	-0.907676	-6.208008	-0.519276	0.850157	-0.124302
2.050	7.880639	-2.538665	729.717519	-0.612144	-6.153266	-0.558801	0.843239	-0.083888
2.060	7.781296	-2.247783	729.361031	-0.317438	-6.081422	-0.593829	0.833801	-0.043523
2.070	7.674174	-1.943490	729.215233	-0.023802	-5.999317	-0.625587	0.822709	-0.003264
2.080	7.556490	-1.647740	729.290274	0.269615	-5.911651	-0.656207	0.810603	0.036970
2.090	7.421163	-1.378907	729.550769	0.563240	-5.820937	-0.687602	0.797880	0.077204
2.100	7.260662	-1.146290	729.933696	0.855507	-5.728166	-0.720621	0.784751	0.117203
2.110	7.071261	-0.948143	730.368423	1.141908	-5.633849	-0.754794	0.771371	0.156347
2.120	6.856281	-0.773631	730.793387	1.415313	-5.539016	-0.788650	0.757946	0.193668
2.130	6.627222	-0.607422	731.166064	1.667690	-5.445805	-0.820340	0.744811	0.228086
2.140	6.402479	-0.434846	731.465703	1.892672	-5.357571	-0.848244	0.732443	0.258751
2.150	6.203983	-0.245986	731.690374	2.087879	-5.278514	-0.871275	0.721414	0.285350
2.160	6.052289	-0.037845	731.850760	2.256088	-5.212936	-0.888809	0.712295	0.308272
2.170	5.960990	0.185573	731.963159	2.404907	-5.164298	-0.900433	0.705541	0.328556
2.180	5.932047	0.415047	732.043912	2.545250	-5.134479	-0.905873	0.701390	0.347691
2.190	5.954300	0.639118	732.106551	2.689132	-5.123647	-0.905303	0.699850	0.367314
2.200	6.006814	0.847265	732.161245	2.847245	-5.130832	-0.899808	0.700779	0.388882
2.210	6.066485	1.032247	732.214764	3.026701	-5.154740	-0.891585	0.703993	0.413362
2.220	6.116510	1.191118	732.269272	3.229405	-5.194136	-0.883584	0.709321	0.441013
2.230	6.151167	1.325121	732.319850	3.451637	-5.247533	-0.878627	0.716563	0.471329
2.240	6.174290	1.439086	732.352430	3.685193	-5.312501	-0.878370	0.725402	0.503199
2.250	6.192794	1.540766	732.344742	3.919958	-5.385319	-0.882484	0.735353	0.535261
2.260	6.209827	1.640125	732.272191	4.147150	-5.461526	-0.888414	0.745833	0.566340
2.270	6.222209	1.748264	732.118380	4.362083	-5.537447	-0.891844	0.756359	0.595817
2.280	6.223739	1.875694	731.886902	4.565447	-5.612074	-0.887819	0.766795	0.623791
2.290	6.212012	2.030098	731.608642	4.762762	-5.688269	-0.872186	0.777502	0.650999
2.300	6.194237	2.214185	731.338982	4.962365	-5.772382	-0.842960	0.789290	0.678531
2.310	6.188142	2.424476	731.142850	5.172719	-5.872124	-0.801124	0.803143	0.707484
2.320	6.216734	2.651695	731.071392	5.399867	-5.993387	-0.750567	0.819809	0.738624
2.330	6.298908	2.882881	731.138993	5.645669	-6.137285	-0.697104	0.839414	0.772174
2.340	6.440190	3.104599	731.310491	5.907185	-6.298556	-0.646913	0.861270	0.807753
2.350	6.628105	3.306129	731.504584	6.177253	-6.465902	-0.604935	0.883918	0.844458
2.360	6.834513	3.481611	731.612958	6.446002	-6.624105	-0.573776	0.905411	0.881067
2.370	7.024071	3.630736	731.529107	6.702877	-6.757340	-0.553376	0.923728	0.916283
2.380	7.165320	3.758076	731.178535	6.938615	-6.852785	-0.541410	0.937225	0.948963
2.390	7.240147	3.871278	730.542127	7.146710	-6.903530	-0.534191	0.944987	0.978275
2.400	7.248393	3.978492	729.665836	7.324115	-6.909804	-0.527779	0.946982	1.003763
