Time[s]	Fx[N]	Fy[N]	Fz[N]	Mx[Nm]	My[Nm]	Mz[Nm]	COPx[cm]	COPy[cm]
0.010	3.047728	-0.835792	537.947415	4.314939	-1.350258	-0.075943	0.251002	0.802112
0.020	3.194681	-0.834534	537.633564	4.370853	-1.494754	-0.088291	0.278025	0.812980
0.030	3.329512	-0.826402	537.389245	4.423010	-1.631089	-0.099685	0.303521	0.823055
0.040	3.440747	-0.807722	537.266532	4.469087	-1.753161	-0.109002	0.326311	0.831819
0.050	3.518950	-0.778742	537.282511	4.508669	-1.858392	-0.115269	0.345887	0.839162
0.060	3.559632	-0.743086	537.419059	4.542882	-1.947911	-0.118044	0.362457	0.845315
0.070	3.565926	-0.706158	537.633271	4.573615	-2.025766	-0.117762	0.376793	0.850694
0.080	3.549093	-0.673394	537.872731	4.602893	-2.097601	-0.115783	0.389981	0.855759
0.090	3.525899	-0.648797	538.089770	4.632493	-2.169219	-0.114026	0.403133	0.860915
0.100	3.513627	-0.633849	538.250472	4.663637	-2.245322	-0.114348	0.417152	0.866444
0.110	3.524650	-0.626978	538.336987	4.696667	-2.328463	-0.117919	0.432529	0.872440
0.120	3.562715	-0.623897	538.345008	4.730924	-2.418307	-0.124812	0.449211	0.878790
0.130	3.622270	-0.618880	538.280304	4.764983	-2.511422	-0.133973	0.466564	0.885223
0.140	3.690888	-0.606569	538.156922	4.797206	-2.601940	-0.143600	0.483491	0.891414
0.150	3.753660	-0.583690	537.996666	4.826347	-2.683123	-0.151820	0.498725	0.897096
0.160	3.797838	-0.550065	537.827523	4.852018	-2.749418	-0.157334	0.511208	0.902151
0.170	3.816185	-0.508532	537.679182	4.874919	-2.798215	-0.159747	0.520425	0.906659
0.180	3.808192	-0.463750	537.575563	4.896705	-2.830582	-0.159454	0.526546	0.910887
0.190	3.779351	-0.420441	537.527045	4.919424	-2.850684	-0.157262	0.530333	0.915196
0.200	3.739308	-0.382002	537.526976	4.944667	-2.864154	-0.154006	0.532839	0.919892
0.210	3.699598	-0.350128	537.555729	4.972855	-2.876116	-0.150373	0.535036	0.925086
0.220	3.671155	-0.325294	537.590947	5.003111	-2.889684	-0.146959	0.537525	0.930654
0.230	3.661585	-0.307550	537.618546	5.033801	-2.905530	-0.144364	0.540445	0.936315
0.240	3.672704	-0.297038	537.638813	5.063447	-2.922573	-0.143148	0.543594	0.941793
0.250	3.699565	-0.294014	537.664780	5.091487	-2.939357	-0.143658	0.546690	0.946963
0.260	3.732043	-0.298425	537.713547	5.118408	-2.955372	-0.145855	0.549618	0.951884
0.270	3.758766	-0.309355	537.794227	5.145088	-2.971713	-0.149261	0.552574	0.956702
0.280	3.771591	-0.324638	537.898353	5.171683	-2.990865	-0.153054	0.556028	0.961461
0.290	3.768456	-0.340879	537.998737	5.196869	-3.015857	-0.156262	0.560570	0.965963
0.300	3.753499	-0.353980	538.059312	5.218107	-3.049202	-0.158001	0.566704	0.969801
0.310	3.735021	-0.360121	538.052287	5.232896	-3.092075	-0.157706	0.574679	0.972563
0.320	3.722643	-0.356971	537.973526	5.240216	-3.144025	-0.155290	0.584420	0.974066
0.330	3.724844	-0.344673	537.847173	5.241182	-3.203323	-0.151202	0.595582	0.974474
0.340	3.747207	-0.326001	537.716743	5.238466	-3.267749	-0.146360	0.607708	0.974206
0.350	3.791351	-0.305538	537.627608	5.234847	-3.335445	-0.141933	0.620401	0.973694
0.360	3.854570	-0.288309	537.609882	5.231823	-3.405482	-0.138996	0.633448	0.973163
0.370	3.930402	-0.278493	537.669503	5.229052	-3.477936	-0.138131	0.646854	0.972540
0.380	4.010211	-0.278509	537.790315	5.224820	-3.553519	-0.139146	0.660763	0.971535
0.390	4.085477	-0.288566	537.943755	5.217097	-3.632937	-0.141080	0.675338	0.969822
0.400	4.150224	-0.306806	538.098944	5.204604	-3.716323	-0.142568	0.690639	0.967221
0.410	4.202989	-0.330035	538.227577	5.187428	-3.803005	-0.142467	0.706579	0.963798
0.420	4.247627	-0.354633	538.304042	5.167011	-3.891664	-0.140416	0.722949	0.959869
0.430	4.292264	-0.377133	538.306167	5.145565	-3.980695	-0.136992	0.739485	0.955881
0.440	4.346186	-0.394444	538.220790	5.125121	-4.068552	-0.133360	0.755926	0.952234
0.450	4.415636	-0.404186	538.051921	5.106610	-4.153886	-0.130642	0.772023	0.949092
0.460	4.500473	-0.405413	537.824524	5.089448	-4.235456	-0.129418	0.787516	0.946303
0.470	4.593506	-0.399398	537.578783	5.071933	-4.311892	-0.129563	0.802095	0.943477
0.480	4.683007	-0.389941	537.356688	5.052336	-4.381477	-0.130387	0.815376	0.940220
0.490	4.757169	-0.382914	537.188359	5.030140	-4.442021	-0.130925	0.826902	0.936383
0.500	4.808359	-0.385008	537.085608	5.006766	-4.490921	-0.130278	0.836165	0.932210
0.510	4.835358	-0.401862	537.044940	4.985279	-4.525410	-0.127903	0.842650	0.928280
0.520	4.842828	-0.435999	537.055911	4.969070	-4.543038	-0.123796	0.845915	0.925243
0.530	4.838414	-0.485416	537.108358	4.960121	-4.542325	-0.118466	0.845700	0.923486
0.540	4.828798	-0.543679	537.194410	4.957850	-4.523441	-0.112722	0.842049	0.922915
0.550	4.816516	-0.601791	537.305391	4.959272	-4.488553	-0.107420	0.835382	0.922989
0.560	4.799013	-0.651058	537.426840	4.960352	-4.441502	-0.103285	0.826438	0.922982
0.570	4.770258	-0.685613	537.536402	4.957681	-4.386802	-0.100831	0.816094	0.922297
0.580	4.723917	-0.703474	537.608241	4.949537	-4.328421	-0.100310	0.805125	0.920659
0.590	4.656471	-0.705878	537.623025	4.935988	-4.268923	-0.101640	0.794037	0.918113
0.600	4.568972	-0.695639	537.577345	4.918391	-4.209297	-0.104347	0.783012	0.914918
0.610	4.467031	-0.675845	537.485775	4.898744	-4.149305	-0.107624	0.771984	0.911418
0.620	4.359235	-0.649767	537.374365	4.879160	-4.088020	-0.110551	0.760740	0.907963
0.630	4.254576	-0.621645	537.270822	4.861429	-4.024286	-0.112430	0.749024	0.904838
0.640	4.159748	-0.597114	537.197629	4.846711	-3.957111	-0.113065	0.736621	0.902221
0.650	4.077353	-0.582365	537.169625	4.835376	-3.886000	-0.112821	0.723421	0.900158
0.660	4.005759	-0.582194	537.193292	4.827088	-3.811145	-0.112442	0.709455	0.898576
0.670	3.940522	-0.598000	537.265602	4.821081	-3.733356	-0.112736	0.694881	0.897337
0.680	3.876454	-0.626894	537.373539	4.816483	-3.653749	-0.114313	0.679927	0.896301
0.690	3.809191	-0.662427	537.496856	4.812502	-3.573343	-0.117459	0.664812	0.895355
0.700	3.735843	-0.696575	537.614560	4.808531	-3.492774	-0.122081	0.649680	0.894420
0.710	3.655221	-0.722203	537.712082	4.804271	-3.412274	-0.127685	0.634591	0.893465
0.720	3.568244	-0.735263	537.784358	4.799898	-3.331917	-0.133427	0.619564	0.892532
0.730	3.478327	-0.736113	537.832660	4.796033	-3.251988	-0.138331	0.604647	0.891733
0.740	3.390885	-0.729408	537.858418	4.793361	-3.173237	-0.141627	0.589976	0.891194
0.750	3.311542	-0.722363	537.859934	4.792031	-3.096851	-0.143068	0.575773	0.890944
0.760	3.243851	-0.721874	537.834825	4.791289	-3.024146	-0.143045	0.562282	0.890848
0.770	3.188091	-0.731575	537.785562	4.789700	-2.956165	-0.142458	0.549692	0.890634
0.780	3.142127	-0.750128	537.723043	4.785902	-2.893399	-0.142388	0.538083	0.890031
0.790	3.103792	-0.771628	537.664949	4.779440	-2.835743	-0.143717	0.527418	0.888925
0.800	3.073142	-0.788147	537.629376	4.771189	-2.782632	-0.146816	0.517574	0.887450
0.810	3.053086	-0.793367	537.627205	4.763253	-2.733239	-0.151414	0.508389	0.885977
0.820	3.047943	-0.785636	537.657239	4.758451	-2.686642	-0.156666	0.499694	0.885034
0.830	3.060644	-0.768977	537.706419	4.759600	-2.641912	-0.161417	0.491330	0.885167
0.840	3.089929	-0.751476	537.754588	4.768615	-2.598179	-0.164592	0.483153	0.886764
0.850	3.129079	-0.741675	537.781334	4.785598	-2.554734	-0.165588	0.475051	0.889878
0.860	3.167212	-0.744563	537.772324	4.808416	-2.511140	-0.164472	0.466952	0.894136
0.870	3.192865	-0.759109	537.723457	4.833258	-2.467286	-0.161924	0.458839	0.898837
0.880	3.198165	-0.778620	537.641688	4.856097	-2.423321	-0.158896	0.450732	0.903222
0.890	3.181363	-0.793754	537.541984	4.874312	-2.379468	-0.156150	0.442657	0.906778
0.900	3.146436	-0.796695	537.441769	4.887616	-2.335765	-0.153880	0.434608	0.909422
0.910	3.100254	-0.784501	537.356138	4.897894	-2.291854	-0.151645	0.426506	0.911480
0.920	3.049117	-0.760145	537.296305	4.908215	-2.246987	-0.148689	0.418203	0.913502
0.930	2.996454	-0.730949	537.270653	4.921589	-2.200385	-0.144484	0.409549	0.916035
0.940	2.942651	-0.705328	537.285471	4.940014	-2.151825	-0.139157	0.400499	0.919439
0.950	2.886840	-0.689448	537.343066	4.964024	-2.102113	-0.133520	0.391205	0.923809
0.960	2.829476	-0.685180	537.437693	4.992744	-2.053161	-0.128682	0.382028	0.928990
0.970	2.774041	-0.689863	537.552539	5.024350	-2.007670	-0.125498	0.373484	0.934671
0.980	2.726693	-0.697552	537.661407	5.056822	-1.968556	-0.124201	0.366133	0.940522
0.990	2.694014	-0.701113	537.736046	5.088725	-1.938252	-0.124391	0.360447	0.946324
1.000	2.680269	-0.694561	537.756239	5.119732	-1.917963	-0.125318	0.356660	0.952054
1.010	2.685738	-0.675035	537.717834	5.150663	-1.907081	-0.126285	0.354662	0.957875
1.020	2.706834	-0.643686	537.635023	5.182971	-1.903033	-0.126928	0.353964	0.964032
1.030	2.737543	-0.604993	537.536040	5.217796	-1.901756	-0.127257	0.353791	0.970688
1.040	2.771101	-0.564801	537.454224	5.254917	-1.898674	-0.127476	0.353272	0.977742
1.050	2.801019	-0.528149	537.417749	5.292123	-1.889873	-0.127726	0.351658	0.984732
1.060	2.821443	-0.497974	537.441184	5.325479	-1.873106	-0.127938	0.348523	0.990895
1.070	2.827586	-0.475104	537.520974	5.350563	-1.848390	-0.127860	0.343873	0.995415
1.080	2.816905	-0.459102	537.635946	5.364273	-1.818049	-0.127202	0.338156	0.997752
1.090	2.790704	-0.449157	537.753169	5.366484	-1.786130	-0.125796	0.332147	0.997946
1.100	2.754877	-0.444469	537.838298	5.360798	-1.757293	-0.123709	0.326733	0.996730
1.110	2.718698	-0.444163	537.867651	5.353827	-1.735503	-0.121253	0.322664	0.995380
1.120	2.691947	-0.447005	537.837521	5.353053	-1.722935	-0.118856	0.320345	0.995292
1.130	2.681945	-0.451230	537.766250	5.364027	-1.719439	-0.116820	0.319737	0.997464
1.140	2.691876	-0.454678	537.687260	5.388234	-1.722707	-0.115098	0.320392	1.002113
1.150	2.720619	-0.455347	537.635116	5.422663	-1.729099	-0.113215	0.321612	1.008614
1.160	2.763525	-0.452140	537.630055	5.461251	-1.734866	-0.110384	0.322688	1.015801
1.170	2.813858	-0.445315	537.667832	5.497390	-1.737335	-0.105807	0.323124	1.022451
1.180	2.864890	-0.436095	537.720286	5.526259	-1.735600	-0.099118	0.322770	1.027720
1.190	2.912100	-0.425513	537.747465	5.545974	-1.730432	-0.090785	0.321793	1.031334
1.200	2.954302	-0.413346	537.716328	5.557253	-1.723460	-0.082164	0.320515	1.033492
1.210	2.992842	-0.397989	537.617041	5.562172	-1.716061	-0.075063	0.319198	1.034598
1.220	3.029300	-0.377322	537.468753	5.562922	-1.708543	-0.070962	0.317887	1.035022
1.230	3.063177	-0.349973	537.312548	5.561231	-1.700043	-0.070318	0.316397	1.035009
1.240	3.090987	-0.316430	537.196196	5.558536	-1.689101	-0.072379	0.314429	1.034731
1.250	3.107197	-0.279606	537.158358	5.556543	-1.674463	-0.075569	0.311726	1.034433
1.260	3.106519	-0.244448	537.218047	5.557652	-1.655621	-0.078214	0.308184	1.034525
1.270	3.086402	-0.216404	537.370987	5.564794	-1.632921	-0.079188	0.303872	1.035559
1.280	3.048540	-0.199293	537.591702	5.580546	-1.607292	-0.078187	0.298980	1.038064
1.290	2.998720	-0.193729	537.839584	5.605891	-1.579827	-0.075606	0.293736	1.042298
1.300	2.945110	-0.197038	538.067847	5.639315	-1.551404	-0.072183	0.288329	1.048068
1.310	2.895780	-0.204562	538.234120	5.676776	-1.522511	-0.068657	0.282871	1.054704
1.320	2.856542	-0.211389	538.310287	5.712577	-1.493326	-0.065565	0.277410	1.061205
1.330	2.829953	-0.213500	538.288413	5.740752	-1.464015	-0.063194	0.271976	1.066483
1.340	2.815701	-0.208140	538.180695	5.756555	-1.435092	-0.061580	0.266656	1.069632
1.350	2.811832	-0.193973	538.014053	5.757734	-1.407672	-0.060560	0.261642	1.070183
1.360	2.816024	-0.171538	537.822295	5.745240	-1.383414	-0.059944	0.257225	1.068241
1.370	2.826350	-0.143810	537.638873	5.723019	-1.364080	-0.059749	0.253717	1.064473
1.380	2.841413	-0.116158	537.491624	5.696753	-1.350824	-0.060324	0.251320	1.059878
1.390	2.860021	-0.095183	537.399394	5.671995	-1.343490	-0.062201	0.249998	1.055452
1.400	2.880679	-0.086586	537.370023	5.652472	-1.340267	-0.065758	0.249412	1.051877
1.410	2.901238	-0.092864	537.399646	5.639208	-1.337945	-0.070951	0.248966	1.049351
1.420	2.918941	-0.112013	537.473964	5.630643	-1.332810	-0.077261	0.247977	1.047612
1.430	2.930971	-0.138129	537.571909	5.623434	-1.321929	-0.083869	0.245907	1.046080
1.440	2.935364	-0.163812	537.670890	5.613602	-1.304295	-0.089900	0.242582	1.044059
1.450	2.931862	-0.183246	537.751567	5.597800	-1.281272	-0.094625	0.238265	1.040964
1.460	2.922152	-0.194565	537.800244	5.574482	-1.256065	-0.097576	0.233556	1.036534
1.470	2.909235	-0.200578	537.808631	5.544568	-1.232446	-0.098592	0.229161	1.030956
1.480	2.896217	-0.207553	537.772733	5.511086	-1.213365	-0.097858	0.225628	1.024798
1.490	2.885077	-0.222439	537.693146	5.477764	-1.200031	-0.095918	0.223181	1.018753
1.500	2.875925	-0.249717	537.577467	5.447284	-1.191765	-0.093613	0.221692	1.013302
1.510	2.867098	-0.289463	537.442761	5.420198	-1.186521	-0.091879	0.220772	1.008516
1.520	2.856204	-0.337576	537.314523	5.395064	-1.181730	-0.091460	0.219933	1.004079
1.530	2.841741	-0.387736	537.220045	5.369540	-1.175122	-0.092647	0.218741	0.999505
1.540	2.824403	-0.433752	537.178006	5.341672	-1.165353	-0.095193	0.216940	0.994395
1.550	2.807259	-0.471217	537.189798	5.310699	-1.152365	-0.098448	0.214517	0.988608
1.560	2.794636	-0.498207	537.238560	5.277195	-1.137421	-0.101710	0.211716	0.982282
1.570	2.790316	-0.515259	537.297890	5.242724	-1.122693	-0.104583	0.208952	0.975757
1.580	2.795859	-0.524804	537.346205	5.209296	-1.110493	-0.107140	0.206662	0.969449
1.590	2.809685	-0.530160	537.378758	5.178871	-1.102425	-0.109772	0.205149	0.963728
1.600	2.827257	-0.534340	537.410399	5.153015	-1.098872	-0.112851	0.204475	0.958860
1.610	2.842456	-0.539125	537.467318	5.132718	-1.098971	-0.116446	0.204472	0.954982
1.620	2.849772	-0.544768	537.572046	5.118280	-1.100919	-0.120229	0.204795	0.952111
1.630	2.846492	-0.550311	537.729327	5.109206	-1.102387	-0.123619	0.205008	0.950145
1.640	2.833961	-0.554099	537.919598	5.104166	-1.100996	-0.126029	0.204677	0.948872
1.650	2.817312	-0.554126	538.102951	5.101144	-1.094925	-0.127081	0.203479	0.947987
1.660	2.803718	-0.548267	538.231727	5.097881	-1.083559	-0.126703	0.201318	0.947154
1.670	2.799803	-0.534851	538.266691	5.092494	-1.067865	-0.125110	0.198390	0.946091
1.680	2.809199	-0.513737	538.190831	5.084022	-1.050209	-0.122733	0.195137	0.944650
1.690	2.831221	-0.487390	538.016015	5.072609	-1.033629	-0.120153	0.192119	0.942836
1.700	2.861143	-0.461079	537.780054	5.059179	-1.020931	-0.118018	0.189842	0.940753
1.710	2.891865	-0.441651	537.534863	5.044738	-1.014055	-0.116956	0.188649	0.938495
1.720	2.916175	-0.435127	537.330306	5.029685	-1.013894	-0.117425	0.188691	0.936051
1.730	2.928763	-0.444196	537.200365	5.013539	-1.020431	-0.119523	0.189953	0.933272
1.740	2.927570	-0.466921	537.156391	4.995276	-1.032930	-0.122851	0.192296	0.929948
1.750	2.914384	-0.497518	537.188123	4.974179	-1.050002	-0.126598	0.195463	0.925966
1.760	2.894564	-0.528921	537.270633	4.950752	-1.069597	-0.129876	0.199080	0.921463
1.770	2.875737	-0.555901	537.374593	4.927044	-1.089124	-0.132128	0.202675	0.916873
1.780	2.865659	-0.577043	537.476355	4.905927	-1.105855	-0.133311	0.205749	0.912771
1.790	2.869864	-0.594540	537.563972	4.889578	-1.117578	-0.133724	0.207897	0.909581
1.800	2.889952	-0.611992	537.637286	4.878164	-1.123262	-0.133614	0.208926	0.907334
1.810	2.923271	-0.631640	537.703469	4.869654	-1.123452	-0.132894	0.208935	0.905639
1.820	2.964260	-0.652719	537.770958	4.860832	-1.120232	-0.131177	0.208310	0.903885
1.830	3.006949	-0.671816	537.843796	4.848754	-1.116730	-0.128069	0.207631	0.901517
1.840	3.047370	-0.684734	537.917305	4.831814	-1.116315	-0.123451	0.207525	0.898245
1.850	3.084602	-0.688592	537.976599	4.810033	-1.121681	-0.117533	0.208500	0.894097
1.860	3.119956	-0.683011	538.000115	4.784752	-1.134080	-0.110678	0.210795	0.889359
1.870	3.154937	-0.669988	537.968764	4.758070	-1.152925	-0.103199	0.214311	0.884451
1.880	3.189310	-0.652790	537.877232	4.732278	-1.175941	-0.095344	0.218626	0.879806
1.890	3.220403	-0.634540	537.740745	4.709373	-1.199801	-0.087506	0.223119	0.875770
1.900	3.244135	-0.617250	537.591934	4.690664	-1.221036	-0.080454	0.227131	0.872532
1.910	3.257299	-0.601829	537.468249	4.676514	-1.236878	-0.075337	0.230130	0.870101
1.920	3.259828	-0.588935	537.396399	4.666368	-1.245891	-0.073318	0.231838	0.868329
1.930	3.255679	-0.579875	537.382008	4.659106	-1.248266	-0.075026	0.232286	0.867001
1.940	3.251778	-0.576674	537.409495	4.653525	-1.245766	-0.080132	0.231810	0.865918
1.950	3.255594	-0.581099	537.451739	4.648618	-1.241325	-0.087373	0.230965	0.864937
1.960	3.272495	-0.593277	537.484503	4.643530	-1.238326	-0.094997	0.230393	0.863937
1.970	3.303990	-0.610793	537.498530	4.637416	-1.239696	-0.101388	0.230642	0.862777
1.980	3.347371	-0.628936	537.503401	4.629566	-1.246973	-0.105517	0.231994	0.861309
1.990	3.396608	-0.642255	537.521099	4.619851	-1.259643	-0.107070	0.234343	0.859474
2.000	3.443819	-0.646819	537.572755	4.609117	-1.275051	-0.106298	0.237187	0.857394
2.010	3.480836	-0.641880	537.666071	4.599026	-1.289031	-0.103749	0.239746	0.855369
2.020	3.500859	-0.629760	537.790418	4.591259	-1.297198	-0.100041	0.241209	0.853727
2.030	3.500321	-0.614121	537.921799	4.586519	-1.296523	-0.095761	0.241024	0.852637
2.040	3.480477	-0.597994	538.034042	4.584094	-1.286638	-0.091494	0.239137	0.852008
2.050	3.447761	-0.582952	538.109660	4.582336	-1.270310	-0.087884	0.236069	0.851562
2.060	3.412324	-0.569741	538.145106	4.579722	-1.252835	-0.085636	0.232806	0.851020
2.070	3.385221	-0.559507	538.149289	4.575698	-1.240560	-0.085439	0.230523	0.850266
2.080	3.375481	-0.554407	538.137625	4.570820	-1.239056	-0.087789	0.230249	0.849378
2.090	3.388242	-0.556849	538.124634	4.566245	-1.251567	-0.092794	0.232579	0.848548
2.100	3.424434	-0.567695	538.117536	4.562996	-1.278257	-0.100026	0.237542	0.847955
2.110	3.481777	-0.584667	538.112793	4.561341	-1.316451	-0.108517	0.244642	0.847655
2.120	3.556286	-0.602184	538.096688	4.560439	-1.361713	-0.116946	0.253061	0.847513
2.130	3.643289	-0.612988	538.049597	4.558429	-1.409316	-0.123963	0.261930	0.847214
2.140	3.737377	-0.610838	537.952966	4.553079	-1.455515	-0.128550	0.270566	0.846371
2.150	3.831628	-0.592999	537.798235	4.542892	-1.498114	-0.130297	0.278564	0.844721
2.160	3.917146	-0.561377	537.595406	4.528152	-1.536094	-0.129488	0.285734	0.842297
2.170	3.983930	-0.521822	537.376195	4.511239	-1.568614	-0.126975	0.291902	0.839494
2.180	4.023200	-0.482037	537.187194	4.495885	-1.594024	-0.123876	0.296735	0.836931
2.190	4.030284	-0.449065	537.074306	4.485698	-1.609611	-0.121237	0.299700	0.835210
2.200	4.006612	-0.427411	537.066168	4.482732	-1.612276	-0.119777	0.300201	0.834670
2.210	3.959764	-0.418361	537.165142	4.486796	-1.599769	-0.119774	0.297817	0.835273
2.220	3.901490	-0.420377	537.349428	4.495707	-1.571834	-0.121085	0.292516	0.836645
2.230	3.844533	-0.429974	537.583249	4.506240	-1.530668	-0.123280	0.284731	0.838240
2.240	3.799470	-0.442556	537.828571	4.515289	-1.480421	-0.125821	0.275259	0.839541
2.250	3.772541	-0.453186	538.053361	4.520748	-1.425869	-0.128174	0.265005	0.840204
2.260	3.764939	-0.457502	538.235732	4.521817	-1.370792	-0.129865	0.254682	0.840118
2.270	3.773586	-0.452877	538.365923	4.518810	-1.316781	-0.130488	0.244588	0.839357
2.280	3.792972	-0.439436	538.447153	4.512744	-1.262979	-0.129733	0.234560	0.838103
2.290	3.817135	-0.420294	538.494337	4.504978	-1.206844	-0.127436	0.224115	0.836588
2.300	3.840851	-0.400481	538.529205	4.496969	-1.145558	-0.123650	0.212720	0.835046
2.310	3.859774	-0.384814	538.571800	4.490080	-1.077445	-0.118703	0.200056	0.833701
2.320	3.870081	-0.375780	538.630664	4.485330	-1.002771	-0.113166	0.186171	0.832728
2.330	3.868511	-0.372571	538.695836	4.483078	-0.923598	-0.107697	0.171451	0.832210
2.340	3.853196	-0.371735	538.738771	4.482808	-0.842856	-0.102834	0.156450	0.832093
2.350	3.824823	-0.368910	538.720762	4.483278	-0.763151	-0.098901	0.141660	0.832208
2.360	3.787113	-0.360566	538.607505	4.483102	-0.685844	-0.096062	0.127336	0.832351
2.370	3.745932	-0.344816	538.383975	4.481468	-0.610744	-0.094424	0.113440	0.832392
2.380	3.707253	-0.321110	538.063125	4.478513	-0.536438	-0.094086	0.099698	0.832340
2.390	3.674968	-0.289324	537.684635	4.475122	-0.461021	-0.095085	0.085742	0.832295
2.400	3.649449	-0.249113	537.304463	4.472267	-0.382836	-0.097277	0.071251	0.832353
