Time[s]	Fx[N]	Fy[N]	Fz[N]	Mx[Nm]	My[Nm]	Mz[Nm]	COPx[cm]	COPy[cm]
0.010	1.706394	-0.706103	717.065336	6.320053	5.527148	0.470679	-0.770801	0.881378
0.020	1.470475	-0.540531	717.164613	6.381004	5.710690	0.466190	-0.796287	0.889754
0.030	1.257432	-0.395174	717.279938	6.439337	5.896126	0.464733	-0.822012	0.897744
0.040	1.079760	-0.286379	717.414863	6.491834	6.085924	0.468426	-0.848313	0.904893
0.050	0.935881	-0.222324	717.554778	6.535318	6.282962	0.477760	-0.875607	0.910776
0.060	0.811882	-0.201703	717.674668	6.567317	6.489421	0.491328	-0.904229	0.915083
0.070	0.688579	-0.215066	717.754092	6.587070	6.704959	0.506160	-0.934158	0.917734
0.080	0.550892	-0.248236	717.789220	6.596461	6.925042	0.518586	-0.964774	0.918997
0.090	0.395747	-0.286399	717.794047	6.600224	7.140366	0.525321	-0.994765	0.919515
0.100	0.235120	-0.317342	717.790707	6.604954	7.337935	0.524389	-1.022294	0.920178
0.110	0.092587	-0.332945	717.796093	6.617081	7.503727	0.515617	-1.045384	0.921861
0.120	-0.005436	-0.329193	717.813311	6.640624	7.626216	0.500648	-1.062423	0.925119
0.130	-0.040189	-0.305652	717.832294	6.675717	7.699632	0.482563	-1.072623	0.929983
0.140	-0.008407	-0.265217	717.838281	6.718474	7.725826	0.465189	-1.076263	0.935931
0.150	0.075668	-0.213994	717.823389	6.762054	7.714045	0.452166	-1.074644	0.942022
0.160	0.184757	-0.160575	717.795375	6.798424	7.678671	0.445936	-1.069758	0.947126
0.170	0.287429	-0.114199	717.778512	6.820350	7.635657	0.447020	-1.063790	0.950203
0.180	0.357700	-0.082300	717.804536	6.823290	7.598836	0.453936	-1.058622	0.950578
0.190	0.381778	-0.068783	717.896269	6.806797	7.577266	0.463856	-1.055482	0.948159
0.200	0.359931	-0.074100	718.051014	6.774876	7.574296	0.473724	-1.054841	0.943509
0.210	0.303608	-0.096777	718.232653	6.734865	7.588445	0.481329	-1.056544	0.937700
0.220	0.229562	-0.134873	718.378745	6.694993	7.615522	0.485868	-1.060098	0.931959
0.230	0.153348	-0.186080	718.422090	6.661465	7.650961	0.487863	-1.064967	0.927236
0.240	0.084443	-0.246689	718.318345	6.636235	7.691375	0.488564	-1.070747	0.923857
0.250	0.024496	-0.310771	718.067246	6.616297	7.734829	0.489235	-1.077173	0.921404
0.260	-0.030890	-0.370691	717.717270	6.594784	7.780078	0.490670	-1.084003	0.918855
0.270	-0.087869	-0.418897	717.350741	6.563497	7.825451	0.493130	-1.090882	0.914963
0.280	-0.149671	-0.450079	717.054418	6.515983	7.868044	0.496564	-1.097273	0.908715
0.290	-0.213851	-0.462710	716.886506	6.449993	7.903551	0.500906	-1.102483	0.899723
0.300	-0.272733	-0.459461	716.853398	6.368428	7.926762	0.506220	-1.105772	0.888386
0.310	-0.316702	-0.446454	716.906870	6.278535	7.932519	0.512671	-1.106492	0.875781
0.320	-0.338515	-0.431696	716.964804	6.189710	7.916778	0.520376	-1.104207	0.863321
0.330	-0.336359	-0.423276	716.948115	6.110624	7.877415	0.529279	-1.098743	0.852311
0.340	-0.314140	-0.427908	716.818366	6.046533	7.814525	0.539083	-1.090168	0.843524
0.350	-0.279121	-0.450234	716.599107	5.997683	7.730152	0.549310	-1.078728	0.836965
0.360	-0.238324	-0.492813	716.370303	5.959425	7.627496	0.559425	-1.064742	0.831892
0.370	-0.195453	-0.556267	716.237037	5.924042	7.509804	0.568953	-1.048508	0.827106
0.380	-0.149575	-0.639055	716.285547	5.883583	7.379363	0.577463	-1.030226	0.821402
0.390	-0.096015	-0.736821	716.545676	5.832650	7.237041	0.584446	-1.009990	0.813996
0.400	-0.029063	-0.841913	716.975568	5.770182	7.082604	0.589188	-0.987844	0.804795
0.410	0.054803	-0.943809	717.474339	5.699812	6.915578	0.590805	-0.963878	0.794427
0.420	0.154896	-1.030857	717.916886	5.628806	6.736188	0.588513	-0.938296	0.784047
0.430	0.266587	-1.093074	718.196488	5.565966	6.545920	0.581993	-0.911439	0.774992
0.440	0.383717	-1.124978	718.258336	5.519130	6.347564	0.571634	-0.883744	0.768405
0.450	0.501688	-1.127185	718.111811	5.493053	6.144850	0.558458	-0.855695	0.764930
0.460	0.619467	-1.105905	717.819312	5.488374	5.941940	0.543793	-0.827776	0.764590
0.470	0.739299	-1.070457	717.469654	5.501948	5.743063	0.528875	-0.800461	0.766855
0.480	0.864215	-1.029832	717.148979	5.528288	5.552497	0.514616	-0.774246	0.770870
0.490	0.994582	-0.989655	716.919983	5.561391	5.374785	0.501577	-0.749705	0.775734
0.500	1.125609	-0.950690	716.813745	5.596167	5.214789	0.490095	-0.727496	0.780700
0.510	1.247437	-0.909406	716.832294	5.628994	5.076992	0.480446	-0.708254	0.785260
0.520	1.348294	-0.860416	716.956780	5.657463	4.964013	0.472967	-0.692373	0.789094
0.530	1.419524	-0.799856	717.156185	5.679749	4.875045	0.468063	-0.679774	0.791982
0.540	1.460060	-0.728300	717.393734	5.694101	4.805221	0.466082	-0.669816	0.793720
0.550	1.477854	-0.651785	717.630543	5.698706	4.746505	0.467123	-0.661413	0.794100
0.560	1.487207	-0.580337	717.827753	5.691916	4.689885	0.470849	-0.653344	0.792936
0.570	1.503057	-0.524532	717.949652	5.672674	4.628068	0.476409	-0.644623	0.790121
0.580	1.534890	-0.491714	717.970079	5.640888	4.557698	0.482537	-0.634803	0.785672
0.590	1.583056	-0.483689	717.881537	5.597426	4.480313	0.487867	-0.624102	0.779714
0.600	1.639054	-0.496919	717.702433	5.543583	4.401718	0.491345	-0.613307	0.772407
0.610	1.689423	-0.524872	717.476396	5.480259	4.330039	0.492552	-0.603510	0.763824
0.620	1.721230	-0.561270	717.260931	5.407348	4.273270	0.491762	-0.595776	0.753889
0.630	1.726550	-0.602800	717.109165	5.323774	4.237268	0.489734	-0.590882	0.742394
0.640	1.704125	-0.650344	717.053303	5.228157	4.224855	0.487304	-0.589197	0.729117
0.650	1.658025	-0.708423	717.097337	5.119661	4.236076	0.484931	-0.590725	0.713942
0.660	1.594563	-0.783017	717.220658	4.998530	4.269098	0.482383	-0.595228	0.696931
0.670	1.519274	-0.878375	717.388624	4.866118	4.321060	0.478724	-0.602332	0.678310
0.680	1.435326	-0.993934	717.564425	4.724607	4.388449	0.472655	-0.611576	0.658423
0.690	1.343903	-1.122760	717.718298	4.576734	4.467049	0.463074	-0.622396	0.637678
0.700	1.246153	-1.252449	717.832484	4.425729	4.551796	0.449595	-0.634103	0.616541
0.710	1.145652	-1.368377	717.901946	4.275408	4.636747	0.432822	-0.645875	0.595542
0.720	1.050131	-1.458105	717.931735	4.130167	4.715184	0.414321	-0.656773	0.575287
0.730	0.971330	-1.515226	717.932307	3.994625	4.779908	0.396372	-0.665788	0.556407
0.740	0.922362	-1.541196	717.914143	3.872787	4.823920	0.381541	-0.671936	0.539450
0.750	0.912981	-1.544574	717.883348	3.766916	4.841682	0.372166	-0.674438	0.524725
0.760	0.944432	-1.538122	717.840153	3.676551	4.830751	0.369856	-0.672956	0.512168
0.770	1.006448	-1.535026	717.781187	3.598238	4.793184	0.375170	-0.667778	0.501300
0.780	1.078442	-1.545654	717.703946	3.526293	4.735866	0.387536	-0.659863	0.491330
0.790	1.135218	-1.575707	717.610343	3.454434	4.669283	0.405360	-0.650671	0.481380
0.800	1.155295	-1.625655	717.507392	3.377597	4.604894	0.426267	-0.641791	0.470740
0.810	1.128575	-1.690802	717.405574	3.293153	4.551968	0.447501	-0.634504	0.459036
0.820	1.060361	-1.761803	717.316918	3.201174	4.515011	0.466469	-0.629430	0.446271
0.830	0.970127	-1.826269	717.254478	3.103998	4.492658	0.481314	-0.626369	0.432761
0.840	0.885414	-1.872119	717.233286	3.005592	4.478414	0.491281	-0.624401	0.419054
0.850	0.832813	-1.892139	717.271171	2.910901	4.462974	0.496739	-0.622216	0.405830
0.860	0.829104	-1.887811	717.386883	2.824965	4.437311	0.498924	-0.618538	0.393785
0.870	0.875672	-1.870112	717.593701	2.751642	4.395325	0.499565	-0.612509	0.383454
0.880	0.958402	-1.856238	717.889846	2.692272	4.334985	0.500497	-0.603851	0.375026
0.890	1.053394	-1.863288	718.250441	2.645000	4.257585	0.503294	-0.592772	0.368256
0.900	1.136567	-1.901502	718.626333	2.605316	4.165739	0.508892	-0.579681	0.362541
0.910	1.193431	-1.969779	718.951812	2.567720	4.061295	0.517316	-0.564891	0.357148
0.920	1.224927	-2.055033	719.158950	2.527828	3.944321	0.527603	-0.548463	0.351498
0.930	1.246754	-2.135516	719.193353	2.484031	3.813551	0.538038	-0.530254	0.345391
0.940	1.282330	-2.187051	719.025363	2.438097	3.667869	0.546683	-0.510117	0.339084
0.950	1.352416	-2.190329	718.652943	2.394603	3.507874	0.552027	-0.488118	0.333207
0.960	1.465943	-2.136987	718.097776	2.359533	3.336800	0.553488	-0.464672	0.328581
0.970	1.615929	-2.032445	717.400701	2.338618	3.160573	0.551569	-0.440559	0.325985
0.980	1.781819	-1.894615	716.621585	2.335972	2.987160	0.547604	-0.416839	0.325970
0.990	1.936742	-1.748989	715.842242	2.353240	2.825357	0.543240	-0.394690	0.328737
1.000	2.056510	-1.621827	715.165355	2.389270	2.683171	0.539894	-0.375182	0.334086
1.010	2.127234	-1.533632	714.702669	2.440280	2.566109	0.538458	-0.359046	0.341440
1.020	2.149354	-1.494794	714.551534	2.500553	2.475879	0.539323	-0.346494	0.349947
1.030	2.137119	-1.504291	714.766124	2.563532	2.409849	0.542648	-0.337152	0.358653
1.040	2.113925	-1.551304	715.334412	2.622964	2.361395	0.548649	-0.330111	0.366677
1.050	2.105280	-1.618860	716.171488	2.673678	2.321125	0.557673	-0.324102	0.373329
1.060	2.131707	-1.688300	717.133779	2.711873	2.278901	0.569950	-0.317779	0.378154
1.070	2.203556	-1.743375	718.050487	2.735135	2.226387	0.585105	-0.310060	0.380911
1.080	2.318768	-1.773174	718.762593	2.742508	2.159550	0.601753	-0.300454	0.381560
1.090	2.463731	-1.773511	719.158208	2.734789	2.080311	0.617512	-0.289270	0.380276
1.100	2.616818	-1.746683	719.195269	2.714912	1.996649	0.629540	-0.277623	0.377493
1.110	2.753709	-1.699607	718.907029	2.688137	1.920887	0.635385	-0.267195	0.373920
1.120	2.853205	-1.640644	718.390656	2.661697	1.866591	0.633781	-0.259830	0.370508
1.130	2.901929	-1.576041	717.782693	2.643722	1.845049	0.625081	-0.257048	0.368318
1.140	2.896584	-1.507520	717.227064	2.641543	1.862472	0.611189	-0.259677	0.368299
1.150	2.843228	-1.432285	716.842631	2.659854	1.918739	0.595018	-0.267665	0.371051
1.160	2.754103	-1.345495	716.698081	2.699417	2.007828	0.579629	-0.280150	0.376646
1.170	2.643458	-1.243879	716.800298	2.756778	2.119527	0.567396	-0.295693	0.384595
1.180	2.524087	-1.128689	717.098259	2.824956	2.241755	0.559544	-0.312615	0.393943
1.190	2.405819	-1.006718	717.500002	2.894778	2.362922	0.556211	-0.329327	0.403453
1.200	2.295898	-0.888999	717.897392	2.956517	2.473932	0.556885	-0.344608	0.411830
1.210	2.199894	-0.787749	718.192544	3.001505	2.569534	0.560862	-0.357778	0.417925
1.220	2.121598	-0.712818	718.319746	3.023408	2.648833	0.567420	-0.368754	0.420900
1.230	2.061594	-0.669063	718.257802	3.018978	2.714844	0.575717	-0.377976	0.420320
1.240	2.015787	-0.655580	718.030237	2.988220	2.773235	0.584619	-0.386228	0.416169
1.250	1.975678	-0.666834	717.694432	2.934020	2.830597	0.592729	-0.394401	0.408812
1.260	1.931039	-0.695066	717.323664	2.861318	2.892771	0.598639	-0.403273	0.398888
1.270	1.873828	-0.733032	716.987302	2.775950	2.963660	0.601265	-0.413349	0.387169
1.280	1.801081	-0.775996	716.734506	2.683348	3.044838	0.600115	-0.424821	0.374385
1.290	1.715057	-0.822183	716.585638	2.587380	3.135999	0.595431	-0.437631	0.361071
1.300	1.620699	-0.871662	716.533131	2.489611	3.236085	0.588188	-0.451631	0.347452
1.310	1.522205	-0.924665	716.550485	2.389026	3.344654	0.579873	-0.466772	0.333407
1.320	1.420846	-0.980678	716.605739	2.282158	3.462900	0.572070	-0.483236	0.318468
1.330	1.315111	-1.039036	716.674880	2.163564	3.593746	0.566009	-0.501447	0.301889
1.340	1.202665	-1.100615	716.750802	2.026749	3.740678	0.562365	-0.521894	0.282769
1.350	1.082804	-1.169513	716.844656	1.865556	3.905585	0.561382	-0.544830	0.260246
1.360	0.958258	-1.253507	716.978839	1.675829	4.086507	0.563183	-0.569962	0.233735
1.370	0.835832	-1.362644	717.174393	1.456907	4.276449	0.567936	-0.596291	0.203145
1.380	0.725797	-1.506145	717.438278	1.212443	4.463943	0.575671	-0.622206	0.168996
1.390	0.640038	-1.688610	717.755984	0.950246	4.635316	0.585831	-0.645807	0.132391
1.400	0.588924	-1.906911	718.091965	0.681153	4.777962	0.596921	-0.665369	0.094856
1.410	0.577549	-2.149080	718.396948	0.417189	4.883548	0.606609	-0.679784	0.058072
1.420	0.603085	-2.395884	718.619141	0.169447	4.949986	0.612296	-0.688819	0.023580
1.430	0.655299	-2.624857	718.715787	-0.053799	4.981536	0.611881	-0.693116	-0.007485
1.440	0.720569	-2.815749	718.661817	-0.248261	4.987145	0.604450	-0.693949	-0.034545
1.450	0.787187	-2.955895	718.453665	-0.413793	4.977816	0.590696	-0.692851	-0.057595
1.460	0.848750	-3.043846	718.108654	-0.553520	4.963989	0.572950	-0.691259	-0.077080
1.470	0.904107	-3.089916	717.662454	-0.672226	4.953687	0.554704	-0.690253	-0.093669
1.480	0.954682	-3.113183	717.166716	-0.774519	4.951825	0.539600	-0.690470	-0.107997
1.490	1.001312	-3.135885	716.686071	-0.863275	4.960641	0.530224	-0.692164	-0.120454
1.500	1.042253	-3.177063	716.291139	-0.938761	4.980769	0.527233	-0.695355	-0.131059
1.510	1.072995	-3.247221	716.045528	-0.998547	5.012249	0.529278	-0.699990	-0.139453
1.520	1.087735	-3.345108	715.989378	-1.038127	5.054902	0.533732	-0.706002	-0.144992
1.530	1.082054	-3.457368	716.125984	-1.052157	5.107993	0.537804	-0.713281	-0.146923
1.540	1.055975	-3.561562	716.418366	-1.036214	5.169596	0.539467	-0.721589	-0.144638
1.550	1.016079	-3.632098	716.799027	-0.988739	5.236249	0.537802	-0.730504	-0.137938
1.560	0.975288	-3.647268	717.190026	-0.912442	5.303241	0.532787	-0.739447	-0.127225
1.570	0.949779	-3.595014	717.525006	-0.814372	5.365583	0.524875	-0.747790	-0.113497
1.580	0.953729	-3.475800	717.763905	-0.704334	5.419401	0.514769	-0.755039	-0.098129
1.590	0.993583	-3.302374	717.895837	-0.592215	5.463332	0.503450	-0.761020	-0.082493
1.600	1.063868	-3.096922	717.932328	-0.485350	5.499404	0.492244	-0.766006	-0.067604
1.610	1.146594	-2.886239	717.896642	-0.387075	5.532902	0.482619	-0.770710	-0.053918
1.620	1.215396	-2.695694	717.814203	-0.296946	5.571091	0.475673	-0.776119	-0.041368
1.630	1.243537	-2.543300	717.706675	-0.212175	5.621180	0.471574	-0.783214	-0.029563
1.640	1.212540	-2.435649	717.590367	-0.129311	5.688423	0.469303	-0.792712	-0.018020
1.650	1.117525	-2.367085	717.478011	-0.045328	5.775154	0.466926	-0.804924	-0.006318
1.660	0.967007	-2.322504	717.381582	0.042051	5.880974	0.462323	-0.819783	0.005862
1.670	0.777948	-2.282776	717.313439	0.134480	6.003573	0.454115	-0.836953	0.018748
1.680	0.569061	-2.230852	717.284522	0.233104	6.139454	0.442331	-0.855930	0.032498
1.690	0.355741	-2.156565	717.300310	0.338436	6.284215	0.428495	-0.876093	0.047182
1.700	0.148620	-2.058805	717.356625	0.449993	6.432595	0.415031	-0.896708	0.062729
1.710	-0.044536	-1.944868	717.437844	0.565903	6.578715	0.404278	-0.916974	0.078878
1.720	-0.215827	-1.827625	717.519419	0.682738	6.716703	0.397613	-0.936101	0.095152
1.730	-0.355932	-1.721485	717.574632	0.795749	6.841584	0.395089	-0.953432	0.110894
1.740	-0.456113	-1.638238	717.583059	0.899528	6.950148	0.395680	-0.968550	0.125355
1.750	-0.512707	-1.583849	717.537372	0.988938	7.041486	0.397878	-0.981341	0.137824
1.760	-0.531213	-1.557071	717.446383	1.060161	7.117044	0.400250	-0.991997	0.147769
1.770	-0.526833	-1.550169	717.333895	1.111605	7.180219	0.401722	-1.000959	0.154963
1.780	-0.520077	-1.551395	717.233739	1.144312	7.235538	0.401658	-1.008812	0.159545
1.790	-0.528905	-1.548503	717.181790	1.161579	7.287427	0.399904	-1.016120	0.161964
1.800	-0.561010	-1.532284	717.206282	1.167847	7.338624	0.396891	-1.023224	0.162833
1.810	-0.610020	-1.499009	717.318478	1.167357	7.388571	0.393718	-1.030027	0.162739
1.820	-0.657545	-1.451071	717.506285	1.163273	7.432577	0.392051	-1.035890	0.162127
1.830	-0.680237	-1.395856	717.733380	1.157686	7.462624	0.393757	-1.039749	0.161298
1.840	-0.659042	-1.343362	717.945622	1.152445	7.470075	0.400361	-1.040479	0.160520
1.850	-0.587134	-1.303292	718.084738	1.150263	7.449403	0.412479	-1.037399	0.160185
1.860	-0.473552	-1.282343	718.106478	1.155300	7.401146	0.429411	-1.030647	0.160881
1.870	-0.341035	-1.282288	717.997356	1.172556	7.332481	0.449074	-1.021241	0.163309
1.880	-0.218690	-1.299259	717.782548	1.206053	7.254936	0.468373	-1.010743	0.168025
1.890	-0.132247	-1.324523	717.519560	1.256510	7.180234	0.484010	-1.000702	0.175119
1.900	-0.095599	-1.346983	717.278483	1.319699	7.116242	0.493509	-0.992117	0.183987
1.910	-0.106481	-1.357238	717.116907	1.386533	7.064889	0.496095	-0.985180	0.193348
1.920	-0.147421	-1.352092	717.060705	1.445189	7.022787	0.493013	-0.979385	0.201543
1.930	-0.191457	-1.337560	717.098611	1.484582	6.983888	0.487112	-0.973909	0.207026
1.940	-0.210945	-1.328390	717.191577	1.497761	6.942723	0.481816	-0.968043	0.208837
1.950	-0.186885	-1.343222	717.291604	1.483850	6.896787	0.479865	-0.961504	0.206868
1.960	-0.115680	-1.396600	717.361475	1.447935	6.847318	0.482362	-0.954514	0.201842
1.970	-0.010728	-1.491080	717.387254	1.399214	6.798453	0.488479	-0.947668	0.195043
1.980	0.101987	-1.613383	717.379630	1.348336	6.755449	0.495955	-0.941684	0.187953
1.990	0.192821	-1.737081	717.365828	1.304864	6.722775	0.502126	-0.937147	0.181897
2.000	0.238714	-1.831301	717.377375	1.275528	6.702585	0.505006	-0.934318	0.177804
2.010	0.231282	-1.872041	717.438585	1.263425	6.693752	0.504002	-0.933007	0.176102
2.020	0.180125	-1.851406	717.558134	1.268066	6.691629	0.500047	-0.932556	0.176720
2.030	0.110211	-1.781040	717.724804	1.286017	6.688787	0.495201	-0.931943	0.179180
2.040	0.054038	-1.688405	717.908576	1.311876	6.676862	0.491916	-0.930043	0.182736
2.050	0.041143	-1.607389	718.067675	1.339292	6.649080	0.492244	-0.925968	0.186513
2.060	0.088533	-1.566961	718.160166	1.361813	6.602558	0.497200	-0.919371	0.189625
2.070	0.195285	-1.582272	718.156723	1.373609	6.539413	0.506508	-0.910583	0.191269
2.080	0.342879	-1.651396	718.050656	1.370299	6.466268	0.518779	-0.900531	0.190836
2.090	0.500698	-1.758222	717.861934	1.349908	6.392414	0.532014	-0.890480	0.188046
2.100	0.634427	-1.879466	717.633447	1.313688	6.327248	0.544193	-0.881682	0.183058
2.110	0.714723	-1.992551	717.419833	1.266372	6.277724	0.553786	-0.875042	0.176518
2.120	0.724317	-2.081521	717.271536	1.215626	6.246487	0.560051	-0.870868	0.169479
2.130	0.662490	-2.139510	717.219098	1.170683	6.231189	0.563089	-0.868799	0.163225
2.140	0.545933	-2.167854	717.263851	1.140334	6.225089	0.563647	-0.867894	0.158984
2.150	0.405180	-2.173162	717.379459	1.130665	6.218650	0.562755	-0.866856	0.157610
2.160	0.276989	-2.163985	717.524202	1.143229	6.201629	0.561368	-0.864309	0.159330
2.170	0.194742	-2.148307	717.658995	1.174419	6.165266	0.560162	-0.859080	0.163646
2.180	0.179943	-2.132334	717.763467	1.216471	6.104237	0.559513	-0.850452	0.169481
2.190	0.237300	-2.120594	717.843411	1.259924	6.018027	0.559597	-0.838348	0.175515
2.200	0.354547	-2.117035	717.926682	1.296707	5.911327	0.560466	-0.823389	0.180618
2.210	0.506787	-2.126083	718.049224	1.322695	5.793092	0.562099	-0.806782	0.184207
2.220	0.664147	-2.152232	718.236244	1.338769	5.674261	0.564401	-0.790027	0.186397
2.230	0.800565	-2.197419	718.485086	1.350104	5.564681	0.567148	-0.774502	0.187910
2.240	0.900760	-2.257199	718.756459	1.364133	5.470327	0.569858	-0.761082	0.189791
2.250	0.962762	-2.318200	718.979386	1.388004	5.391941	0.571674	-0.749944	0.193052
2.260	0.995200	-2.359358	719.071113	1.426456	5.325570	0.571435	-0.740618	0.198375
2.270	1.011067	-2.357774	718.965993	1.480844	5.264631	0.568075	-0.732250	0.205969
2.280	1.021391	-2.297566	718.640926	1.549591	5.202545	0.561271	-0.723942	0.215628
2.290	1.032011	-2.177852	718.125267	1.629800	5.134874	0.551997	-0.715039	0.226952
2.300	1.044499	-2.015557	717.491388	1.719220	5.060328	0.542534	-0.705281	0.239615
2.310	1.059606	-1.840735	716.832384	1.817678	4.980501	0.535750	-0.694793	0.253571
2.320	1.080341	-1.685840	716.238336	1.927338	4.898629	0.533904	-0.683938	0.269092
2.330	1.112473	-1.573661	715.780064	2.051682	4.817945	0.537568	-0.673104	0.286636
2.340	1.162212	-1.509422	715.503185	2.193658	4.740315	0.545272	-0.662515	0.306590
2.350	1.232527	-1.480436	715.429632	2.353723	4.665785	0.554075	-0.652166	0.328994
2.360	1.320260	-1.463144	715.561191	2.528551	4.593159	0.560805	-0.641896	0.353366
2.370	1.415720	-1.434107	715.880876	2.711005	4.521144	0.563355	-0.631550	0.378695
2.380	1.505295	-1.379806	716.351602	2.891497	4.449294	0.561391	-0.621105	0.403642
2.390	1.576186	-1.300954	716.915131	3.060231	4.378203	0.556151	-0.610700	0.426861
2.400	1.621388	-1.209983	717.495363	3.209440	4.308891	0.549489	-0.600546	0.447312
2.410	1.642845	-1.123870	718.008253	3.334883	4.241832	0.542760	-0.590778	0.464463
2.420	1.651415	-1.056276	718.377067	3.436363	4.176188	0.536136	-0.581337	0.478351
