Time[s]	Fx[N]	Fy[N]	Fz[N]	Mx[Nm]	My[Nm]	Mz[Nm]	COPx[cm]	COPy[cm]
0.010	1.290457	-2.056089	608.874204	4.246677	25.098191	-0.052411	-4.122065	0.697464
0.020	1.424164	-2.139747	608.629529	4.260192	25.029586	-0.053698	-4.112450	0.699965
0.030	1.550712	-2.213102	608.395215	4.275450	24.961524	-0.054828	-4.102847	0.702742
0.040	1.664999	-2.268025	608.183483	4.294294	24.894325	-0.055607	-4.093226	0.706085
0.050	1.766577	-2.299737	608.007275	4.318561	24.828125	-0.055836	-4.083524	0.710281
0.060	1.859913	-2.306291	607.876331	4.349604	24.762993	-0.055407	-4.073689	0.715541
0.070	1.952292	-2.287720	607.793107	4.387685	24.699013	-0.054449	-4.063720	0.721904
0.080	2.050200	-2.246110	607.751641	4.431571	24.636201	-0.053431	-4.053663	0.729175
0.090	2.156141	-2.186595	607.739506	4.478639	24.574371	-0.053122	-4.043570	0.736934
0.100	2.267519	-2.118049	607.740534	4.525615	24.513154	-0.054377	-4.033490	0.744662
0.110	2.377868	-2.052086	607.737130	4.569796	24.452271	-0.057788	-4.023495	0.751936
0.120	2.479496	-2.000175	607.713431	4.610368	24.391952	-0.063335	-4.013726	0.758642
0.130	2.566150	-1.969981	607.660194	4.649217	24.333220	-0.070232	-4.004412	0.765102
0.140	2.634576	-1.962553	607.579431	4.690741	24.277830	-0.077092	-3.995828	0.772038
0.150	2.684577	-1.971410	607.485435	4.740586	24.227746	-0.082418	-3.988202	0.780362
0.160	2.718013	-1.983780	607.400668	4.803839	24.184286	-0.085197	-3.981603	0.790885
0.170	2.737732	-1.983457	607.348206	4.883506	24.147301	-0.085304	-3.975858	0.804070
0.180	2.747030	-1.954489	607.344534	4.979887	24.114888	-0.083491	-3.970545	0.819944
0.190	2.749461	-1.885038	607.396290	5.090895	24.083892	-0.081025	-3.965104	0.838151
0.200	2.748443	-1.770876	607.501776	5.212941	24.051063	-0.079193	-3.959011	0.858095
0.210	2.746463	-1.617700	607.654327	5.341833	24.014376	-0.078918	-3.951980	0.879091
0.220	2.744303	-1.441090	607.843342	5.473315	23.973882	-0.080601	-3.944089	0.900448
0.230	2.740855	-1.263164	608.051954	5.603268	23.931687	-0.084161	-3.935796	0.921511
0.240	2.733709	-1.106320	608.255058	5.727955	23.891104	-0.089194	-3.927810	0.941703
0.250	2.720171	-0.986315	608.422316	5.844561	23.855481	-0.095159	-3.920875	0.960609
0.260	2.698208	-0.907747	608.526853	5.951888	23.827294	-0.101576	-3.915570	0.978081
0.270	2.666940	-0.863936	608.555152	6.050780	23.807844	-0.108193	-3.912192	0.994286
0.280	2.626713	-0.840719	608.511979	6.143970	23.797426	-0.115062	-3.910757	1.009671
0.290	2.578999	-0.821757	608.417393	6.235327	23.795630	-0.122464	-3.911070	1.024844
0.300	2.526293	-0.792905	608.298183	6.328775	23.801484	-0.130719	-3.912799	1.040407
0.310	2.471951	-0.744548	608.178862	6.427275	23.813409	-0.139976	-3.915527	1.056807
0.320	2.419777	-0.672326	608.076270	6.532176	23.829228	-0.150155	-3.918789	1.074236
0.330	2.373383	-0.577058	607.998879	6.643043	23.846421	-0.161081	-3.922116	1.092608
0.340	2.335429	-0.464262	607.949352	6.757859	23.862610	-0.172738	-3.925098	1.111583
0.350	2.306830	-0.343063	607.927684	6.873350	23.876017	-0.185402	-3.927444	1.130620
0.360	2.286107	-0.224320	607.932647	6.985245	23.885636	-0.199492	-3.928994	1.149016
0.370	2.269184	-0.118323	607.961225	7.088496	23.891028	-0.215160	-3.929696	1.165945
0.380	2.249918	-0.032839	608.007476	7.177730	23.891830	-0.231898	-3.929529	1.180533
0.390	2.221521	0.027895	608.062199	7.248142	23.887225	-0.248495	-3.928418	1.192007
0.400	2.178728	0.063121	608.113716	7.296661	23.875667	-0.263445	-3.926185	1.199884
0.410	2.120156	0.074739	608.149953	7.322996	23.855086	-0.275584	-3.922566	1.204143
0.420	2.049898	0.066204	608.162136	7.330161	23.823484	-0.284598	-3.917291	1.205297
0.430	1.977486	0.041620	608.149325	7.324221	23.779609	-0.291129	-3.910160	1.204346
0.440	1.915907	0.005266	608.121259	7.313097	23.723401	-0.296470	-3.901097	1.202572
0.450	1.878159	-0.038494	608.096802	7.304552	23.656017	-0.302002	-3.890173	1.201215
0.460	1.873509	-0.085198	608.097231	7.303918	23.579476	-0.308642	-3.877583	1.201110
0.470	1.904814	-0.130443	608.136764	7.312526	23.496118	-0.316515	-3.863624	1.202448
0.480	1.967823	-0.170380	608.214922	7.327566	23.408165	-0.324948	-3.848667	1.204766
0.490	2.052681	-0.202389	608.314648	7.343460	23.317566	-0.332769	-3.833142	1.207181
0.500	2.147115	-0.225594	608.406560	7.354106	23.226057	-0.338753	-3.817522	1.208749
0.510	2.240150	-0.240894	608.456654	7.355037	23.135156	-0.342040	-3.802269	1.208802
0.520	2.324979	-0.250581	608.434420	7.344708	23.045905	-0.342414	-3.787738	1.207149
0.530	2.399985	-0.257807	608.319735	7.324623	22.958460	-0.340366	-3.774078	1.204075
0.540	2.467863	-0.266049	608.107906	7.298394	22.871922	-0.336941	-3.761162	1.200181
0.550	2.533510	-0.278529	607.812420	7.270179	22.784717	-0.333389	-3.748643	1.196122
0.560	2.601667	-0.297515	607.464960	7.243118	22.695488	-0.330733	-3.736098	1.192352
0.570	2.675217	-0.323684	607.112030	7.218405	22.604076	-0.329405	-3.723213	1.188974
0.580	2.754628	-0.355870	606.807496	7.195382	22.512074	-0.329121	-3.709920	1.185777
0.590	2.838405	-0.391371	606.601246	7.172500	22.422655	-0.329037	-3.696441	1.182408
0.600	2.923807	-0.426808	606.526457	7.148600	22.339783	-0.328090	-3.683233	1.178613
0.610	3.007121	-0.459439	606.590243	7.123874	22.267153	-0.325320	-3.670872	1.174413
0.620	3.083430	-0.488597	606.772494	7.100096	22.207379	-0.320043	-3.659918	1.170141
0.630	3.146554	-0.516454	607.034263	7.080045	22.161680	-0.311881	-3.650812	1.166334
0.640	3.189943	-0.547264	607.331921	7.066415	22.129992	-0.300768	-3.643805	1.163518
0.650	3.208757	-0.585009	607.630054	7.060682	22.111119	-0.287022	-3.638911	1.162003
0.660	3.202478	-0.630586	607.907098	7.062400	22.102633	-0.271434	-3.635857	1.161756
0.670	3.176670	-0.680260	608.152386	7.069216	22.100584	-0.255258	-3.634054	1.162409
0.680	3.142528	-0.726484	608.358669	7.077644	22.099430	-0.240004	-3.632632	1.163400
0.690	3.113826	-0.760847	608.516347	7.084370	22.092712	-0.227099	-3.630586	1.164204
0.700	3.102288	-0.777770	608.613097	7.087606	22.074634	-0.217555	-3.627039	1.164550
0.710	3.113460	-0.777125	608.637873	7.087898	22.042043	-0.211735	-3.621537	1.164551
0.720	3.145143	-0.764376	608.585969	7.087982	21.995783	-0.209265	-3.614244	1.164664
0.730	3.189230	-0.748047	608.462678	7.091775	21.940539	-0.209137	-3.605897	1.165523
0.740	3.236030	-0.735755	608.284662	7.102969	21.883124	-0.210020	-3.597514	1.167705
0.750	3.278761	-0.730851	608.078852	7.123784	21.830002	-0.210778	-3.589995	1.171523
0.760	3.315851	-0.731265	607.878839	7.154254	21.785202	-0.210949	-3.583807	1.176921
0.770	3.349994	-0.730961	607.718909	7.192229	21.749408	-0.210936	-3.578860	1.183480
0.780	3.384896	-0.723113	607.626339	7.234054	21.720441	-0.211721	-3.574638	1.190543
0.790	3.421981	-0.703486	607.613640	7.275709	21.694766	-0.214244	-3.570487	1.197424
0.800	3.459105	-0.672579	607.673652	7.314063	21.669303	-0.218785	-3.565944	1.203617
0.810	3.491877	-0.635741	607.780237	7.347766	21.642700	-0.224688	-3.560942	1.208951
0.820	3.516550	-0.601276	607.895299	7.377437	21.615462	-0.230557	-3.555787	1.213603
0.830	3.532647	-0.577301	607.979977	7.405074	21.588965	-0.234780	-3.550933	1.217980
0.840	3.543717	-0.568570	608.006108	7.433044	21.564093	-0.236124	-3.546690	1.222528
0.850	3.555812	-0.574499	607.964088	7.463180	21.540484	-0.234158	-3.543052	1.227569
0.860	3.574560	-0.589197	607.864779	7.496410	21.516841	-0.229381	-3.539741	1.233236
0.870	3.602439	-0.603446	607.735398	7.532958	21.492001	-0.223039	-3.536408	1.239513
0.880	3.637523	-0.607701	607.611447	7.572786	21.465979	-0.216745	-3.532846	1.246320
0.890	3.674058	-0.594834	607.527441	7.615890	21.440374	-0.212073	-3.529120	1.253588
0.900	3.704370	-0.561674	607.508471	7.662207	21.417923	-0.210224	-3.525535	1.261251
0.910	3.721232	-0.509007	607.563915	7.711231	21.401488	-0.211797	-3.522508	1.269205
0.920	3.719797	-0.440410	607.684499	7.761654	21.392952	-0.216645	-3.520404	1.277251
0.930	3.698497	-0.360797	607.844144	7.811401	21.392549	-0.223826	-3.519414	1.285099
0.940	3.658864	-0.275515	608.007426	7.858183	21.398882	-0.231718	-3.519510	1.292449
0.950	3.604661	-0.190249	608.141198	7.900352	21.409527	-0.238389	-3.520486	1.299098
0.960	3.540844	-0.111137	608.225758	7.937559	21.421890	-0.242236	-3.522029	1.305035
0.970	3.472710	-0.044167	608.259846	7.970726	21.433924	-0.242640	-3.523810	1.310415
0.980	3.405322	0.006358	608.256509	8.001229	21.444489	-0.240261	-3.525567	1.315437
0.990	3.343163	0.039332	608.232556	8.029738	21.453330	-0.236722	-3.527159	1.320176
1.000	3.289986	0.057166	608.198434	8.055412	21.460815	-0.233833	-3.528588	1.324471
1.010	3.248713	0.064600	608.154637	8.075932	21.467595	-0.232753	-3.529957	1.327940
1.020	3.221177	0.066795	608.095784	8.088339	21.474265	-0.233580	-3.531395	1.330109
1.030	3.207663	0.067925	608.018670	8.090274	21.481042	-0.235538	-3.532958	1.330596
1.040	3.206683	0.070953	607.928831	8.081060	21.487594	-0.237600	-3.534557	1.329277
1.050	3.215372	0.078236	607.841766	8.062141	21.493211	-0.239151	-3.535988	1.326355
1.060	3.230421	0.091830	607.778343	8.036586	21.497322	-0.240340	-3.537033	1.322289
1.070	3.248937	0.112653	607.757026	8.007801	21.500044	-0.241971	-3.537605	1.317599
1.080	3.268859	0.138843	607.786349	7.978045	21.502353	-0.245032	-3.537814	1.312640
1.090	3.289056	0.164683	607.860013	7.947510	21.505653	-0.250112	-3.537929	1.307457
1.100	3.309468	0.181431	607.956325	7.914343	21.510958	-0.257004	-3.538241	1.301795
1.110	3.331198	0.180259	608.043455	7.875435	21.518227	-0.264690	-3.538929	1.295209
1.120	3.356027	0.156051	608.090089	7.827471	21.526312	-0.271696	-3.539987	1.287222
1.130	3.385161	0.109966	608.077449	7.767885	21.533608	-0.276684	-3.541261	1.277450
1.140	3.417838	0.049104	608.006649	7.695551	21.539022	-0.279008	-3.542564	1.265702
1.150	3.450870	-0.017005	607.897377	7.611146	21.542730	-0.278996	-3.543810	1.252045
1.160	3.479576	-0.081410	607.778636	7.517060	21.546251	-0.277774	-3.545082	1.236809
1.170	3.499683	-0.143416	607.676249	7.416846	21.551773	-0.276707	-3.546588	1.220526
1.180	3.509254	-0.208766	607.603187	7.314389	21.561086	-0.276761	-3.548547	1.203810
1.190	3.509837	-0.286396	607.557390	7.213039	21.574731	-0.278124	-3.551061	1.187219
1.200	3.506277	-0.383765	607.527813	7.114905	21.591841	-0.280257	-3.554050	1.171124
1.210	3.505155	-0.503138	607.504626	7.020463	21.610764	-0.282296	-3.557300	1.155623
1.220	3.512325	-0.640112	607.487298	6.928621	21.630149	-0.283500	-3.560593	1.140538
1.230	3.530438	-0.784402	607.486375	6.837316	21.649935	-0.283492	-3.563855	1.125509
1.240	3.557280	-0.922262	607.518990	6.744396	21.671778	-0.282218	-3.567259	1.110154
1.250	3.585651	-1.039928	607.600896	6.648347	21.698791	-0.279769	-3.571224	1.094196
1.260	3.605099	-1.127395	607.738402	6.548596	21.734781	-0.276239	-3.576338	1.077535
1.270	3.605087	-1.181534	607.923230	6.445484	21.783202	-0.271674	-3.583216	1.060246
1.280	3.578481	-1.207453	608.132749	6.340183	21.845973	-0.266109	-3.592303	1.042566
1.290	3.524011	-1.217407	608.336200	6.234672	21.922388	-0.259622	-3.603663	1.024873
1.300	3.446845	-1.227316	608.504432	6.131683	22.008592	-0.252382	-3.616833	1.007664
1.310	3.357201	-1.251819	608.618120	6.034455	22.098117	-0.244660	-3.630867	0.991501
1.320	3.267782	-1.299501	608.670251	5.946241	22.183504	-0.236805	-3.644585	0.976923
1.330	3.191078	-1.370153	608.662601	5.869613	22.258407	-0.229172	-3.656937	0.964346
1.340	3.137110	-1.455263	608.599745	5.805773	22.319329	-0.222013	-3.667325	0.953956
1.350	3.111665	-1.541633	608.484769	5.754115	22.366375	-0.215335	-3.675749	0.945646
1.360	3.115056	-1.616625	608.318852	5.712229	22.402941	-0.208807	-3.682763	0.939019
1.370	3.141794	-1.672863	608.104584	5.676419	22.434598	-0.201810	-3.689266	0.933461
1.380	3.181561	-1.710434	607.851253	5.642607	22.467584	-0.193690	-3.696231	0.928287
1.390	3.221435	-1.735828	607.579217	5.607476	22.507381	-0.184135	-3.704436	0.922921
1.400	3.248784	-1.758444	607.320166	5.569463	22.557758	-0.173467	-3.714311	0.917056
1.410	3.253937	-1.786596	607.111502	5.529147	22.620456	-0.162623	-3.725915	0.910730
1.420	3.231784	-1.824836	606.986117	5.488764	22.695416	-0.152829	-3.739034	0.904265
1.430	3.182003	-1.873351	606.962079	5.451102	22.781373	-0.145098	-3.753344	0.898096
1.440	3.108292	-1.928999	607.037493	5.418396	22.876607	-0.139824	-3.768566	0.892597
1.450	3.017057	-1.987113	607.193037	5.391829	22.979626	-0.136667	-3.784567	0.887992
1.460	2.915733	-2.043356	607.400171	5.371741	23.089459	-0.134788	-3.801359	0.884382
1.470	2.810907	-2.095167	607.630130	5.358215	23.205411	-0.133288	-3.819003	0.881822
1.480	2.706886	-2.142436	607.859356	5.351463	23.326426	-0.131604	-3.837471	0.880378
1.490	2.605599	-2.187085	608.070075	5.351705	23.450491	-0.129665	-3.856544	0.880113
1.500	2.508107	-2.231556	608.247960	5.358650	23.574560	-0.127813	-3.875814	0.880998
1.510	2.416698	-2.276798	608.380161	5.371032	23.695129	-0.126605	-3.894790	0.882841
1.520	2.335781	-2.320759	608.455720	5.386695	23.809189	-0.126566	-3.913052	0.885306
1.530	2.270537	-2.358154	608.467975	5.403365	23.915110	-0.127953	-3.930381	0.888028
1.540	2.224017	-2.381539	608.417276	5.419684	24.013119	-0.130547	-3.946817	0.890784
1.550	2.194617	-2.383060	608.312770	5.435848	24.105242	-0.133606	-3.962639	0.893594
1.560	2.175675	-2.356290	608.172584	5.453504	24.194753	-0.136069	-3.978271	0.896703
1.570	2.157552	-2.297925	608.021691	5.475168	24.285270	-0.136989	-3.994145	0.900489
1.580	2.131093	-2.209203	607.887259	5.503746	24.379681	-0.135954	-4.010560	0.905389
1.590	2.090649	-2.096455	607.792747	5.542406	24.479136	-0.133271	-4.027547	0.911891
1.600	2.035412	-1.969932	607.753134	5.594502	24.582463	-0.129786	-4.044811	0.920522
1.610	1.968907	-1.840782	607.772805	5.663141	24.686344	-0.126489	-4.061772	0.931786
1.620	1.897274	-1.717348	607.845665	5.750321	24.786373	-0.124135	-4.077741	0.946017
1.630	1.827193	-1.602586	607.956190	5.856009	24.878633	-0.123048	-4.092175	0.963229
1.640	1.764088	-1.493836	608.081303	5.977588	24.961137	-0.123127	-4.104901	0.983025
1.650	1.710971	-1.384957	608.193941	6.109849	25.034473	-0.123990	-4.116199	1.004589
1.660	1.668026	-1.269785	608.268607	6.245584	25.101404	-0.125166	-4.126697	1.026781
1.670	1.632974	-1.145547	608.287886	6.376877	25.165652	-0.126280	-4.137129	1.048332
1.680	1.602122	-1.015050	608.248215	6.496942	25.230438	-0.127155	-4.148050	1.068140
1.690	1.571699	-0.886843	608.162834	6.601934	25.297480	-0.127760	-4.159656	1.085554
1.700	1.538948	-0.772996	608.060076	6.691950	25.366864	-0.128046	-4.171769	1.100541
1.710	1.502639	-0.684870	607.976442	6.770766	25.437755	-0.127802	-4.184003	1.113656
1.720	1.462905	-0.628341	607.945898	6.844442	25.509446	-0.126647	-4.196006	1.125831
1.730	1.420552	-0.600671	607.988108	6.919363	25.582059	-0.124157	-4.207658	1.138075
1.740	1.376155	-0.590711	608.099157	7.000331	25.656530	-0.120049	-4.219136	1.151182
1.750	1.329484	-0.582394	608.249005	7.089165	25.733974	-0.114316	-4.230829	1.165504
1.760	1.279571	-0.559716	608.388885	7.184166	25.814893	-0.107272	-4.243157	1.180851
1.770	1.225304	-0.511008	608.467708	7.280666	25.898653	-0.099469	-4.256373	1.196558
1.780	1.166096	-0.431190	608.451337	7.372584	25.983378	-0.091537	-4.270412	1.211697
1.790	1.102307	-0.321923	608.336405	7.454469	26.066147	-0.083995	-4.284825	1.225386
1.800	1.035308	-0.190252	608.152726	7.523282	26.143379	-0.077103	-4.298818	1.237071
1.810	0.967189	-0.046439	607.953563	7.579245	26.211345	-0.070812	-4.311406	1.246682
1.820	0.900137	0.098337	607.797695	7.625451	26.266820	-0.064860	-4.321639	1.254603
1.830	0.835634	0.233802	607.729558	7.666382	26.307758	-0.058937	-4.328859	1.261479
1.840	0.773871	0.351475	607.763846	7.705893	26.333757	-0.052841	-4.332893	1.267909
1.850	0.713808	0.444674	607.879794	7.745545	26.346060	-0.046565	-4.334090	1.274190
1.860	0.654125	0.508165	608.028048	7.784104	26.346996	-0.040381	-4.333188	1.280221
1.870	0.594846	0.538112	608.148972	7.818458	26.339087	-0.034902	-4.331026	1.285616
1.880	0.538852	0.532545	608.196155	7.845350	26.324201	-0.031099	-4.328242	1.289937
1.890	0.492299	0.491954	608.155277	7.862919	26.303053	-0.030183	-4.325055	1.292913
1.900	0.463371	0.419495	608.049264	7.871200	26.275137	-0.033343	-4.321218	1.294500
1.910	0.459775	0.320838	607.926930	7.871459	26.238998	-0.041393	-4.316143	1.294803
1.920	0.486319	0.204055	607.841127	7.864880	26.192668	-0.054439	-4.309131	1.293904
1.930	0.543919	0.079536	607.827934	7.851414	26.134065	-0.071743	-4.299583	1.291717
1.940	0.630373	-0.040779	607.896243	7.829393	26.061316	-0.091891	-4.287132	1.287949
1.950	0.741947	-0.145624	608.029320	7.796044	25.973178	-0.113252	-4.271698	1.282182
1.960	0.874462	-0.227887	608.193478	7.748509	25.869672	-0.134509	-4.253527	1.274020
1.970	1.023327	-0.287918	608.348291	7.684715	25.752691	-0.155018	-4.233215	1.263210
1.980	1.183087	-0.334637	608.455672	7.603717	25.626071	-0.174821	-4.211658	1.249675
1.990	1.347406	-0.383283	608.487211	7.505629	25.494840	-0.194306	-4.189873	1.233490
2.000	1.509963	-0.450415	608.429448	7.391595	25.363872	-0.213695	-4.168745	1.214865
2.010	1.665938	-0.548284	608.286787	7.264038	25.236587	-0.232647	-4.148798	1.194180
2.020	1.813201	-0.680913	608.081686	7.127041	25.114290	-0.250228	-4.130085	1.172053
2.030	1.952440	-0.843154	607.851256	6.986415	24.996378	-0.265312	-4.112252	1.149363
2.040	2.086172	-1.022505	607.639442	6.849120	24.881288	-0.277227	-4.094745	1.127168
2.050	2.217318	-1.202576	607.485776	6.722019	24.767743	-0.286248	-4.077090	1.106531
2.060	2.348081	-1.367098	607.414360	6.610329	24.655725	-0.293588	-4.059128	1.088273
2.070	2.479296	-1.503761	607.427657	6.516354	24.546685	-0.300809	-4.041088	1.072779
2.080	2.610149	-1.606983	607.507835	6.439047	24.442950	-0.308975	-4.023479	1.059912
2.090	2.738333	-1.678632	607.625387	6.374565	24.346676	-0.318016	-4.006856	1.049095
2.100	2.860843	-1.726445	607.751874	6.317578	24.258924	-0.326715	-3.991584	1.039499
2.110	2.975242	-1.761084	607.871267	6.262891	24.179300	-0.333345	-3.977701	1.030299
2.120	3.080666	-1.793169	607.983810	6.206850	24.106246	-0.336613	-3.964949	1.020891
2.130	3.177815	-1.831086	608.099673	6.148015	24.037711	-0.336419	-3.952923	1.011021
2.140	3.267870	-1.879569	608.225967	6.086935	23.971885	-0.334003	-3.941280	1.000769
2.150	3.351036	-1.938943	608.355267	6.025336	23.907744	-0.331414	-3.929898	0.990430
2.160	3.425714	-2.005116	608.463025	5.965309	23.845226	-0.330573	-3.918928	0.980390
2.170	3.488783	-2.070720	608.515733	5.908874	23.784966	-0.332411	-3.908685	0.971031
2.180	3.536775	-2.127383	608.485174	5.857827	23.727708	-0.336489	-3.899472	0.962690
2.190	3.567239	-2.168380	608.360876	5.813624	23.673804	-0.341225	-3.891408	0.955621
2.200	3.579710	-2.190525	608.154868	5.777258	23.623194	-0.344581	-3.884404	0.949965
2.210	3.576005	-2.194666	607.898070	5.749299	23.575921	-0.344815	-3.878269	0.945767
2.220	3.559795	-2.184946	607.631632	5.730169	23.532804	-0.341011	-3.872873	0.943033
2.230	3.535568	-2.167350	607.397081	5.720464	23.495731	-0.333188	-3.868265	0.941800
2.240	3.507408	-2.147915	607.227739	5.721051	23.467232	-0.322050	-3.864651	0.942159
2.250	3.478198	-2.131056	607.143020	5.732777	23.449517	-0.308526	-3.862272	0.944222
2.260	3.449645	-2.118590	607.146952	5.755951	23.443452	-0.293378	-3.861248	0.948033
2.270	3.422969	-2.109773	607.231248	5.789972	23.447979	-0.277015	-3.861458	0.953504
2.280	3.399754	-2.102005	607.381137	5.833501	23.460249	-0.259564	-3.862525	0.960435
2.290	3.382532	-2.091547	607.580752	5.885210	23.476415	-0.241057	-3.863917	0.968630
2.300	3.374807	-2.074003	607.815464	5.944668	23.492761	-0.221622	-3.865114	0.978038
2.310	3.380178	-2.044786	608.070574	6.012785	23.506711	-0.201560	-3.865787	0.988830
2.320	3.400483	-1.999732	608.328112	6.091520	23.517314	-0.181301	-3.865893	1.001354
2.330	3.433763	-1.935682	608.564682	6.183019	23.525084	-0.161252	-3.865667	1.016000
2.340	3.473566	-1.850719	608.752637	6.288611	23.531402	-0.141687	-3.865511	1.033032
2.350	3.510646	-1.744059	608.864688	6.408134	23.537892	-0.122808	-3.865866	1.052473
2.360	3.536487	-1.615936	608.880487	6.539820	23.546094	-0.104977	-3.867113	1.074073
2.370	3.546617	-1.467834	608.793384	6.680720	23.557463	-0.088926	-3.869533	1.097371
