Time[s]	Fx[N]	Fy[N]	Fz[N]	Mx[Nm]	My[Nm]	Mz[Nm]	COPx[cm]	COPy[cm]
0.010	6.353353	-3.419412	561.816459	4.866610	-1.213624	0.269515	0.216018	0.866228
0.020	6.236226	-3.488190	561.667436	4.782698	-1.120872	0.274366	0.199562	0.851518
0.030	6.123474	-3.562517	561.413008	4.696457	-1.024952	0.279597	0.182566	0.836542
0.040	6.017790	-3.647599	560.993606	4.606834	-0.921386	0.285613	0.164242	0.821192
0.050	5.919274	-3.746402	560.420626	4.514928	-0.804480	0.292847	0.143549	0.805632
0.060	5.825070	-3.857981	559.775719	4.424809	-0.668765	0.301275	0.119470	0.790461
0.070	5.730105	-3.976302	559.185174	4.343573	-0.511109	0.309985	0.091402	0.776768
0.080	5.629057	-4.090326	558.779595	4.280101	-0.332334	0.317206	0.059475	0.765973
0.090	5.518947	-4.185663	558.651929	4.242578	-0.137394	0.320809	0.024594	0.759431
0.100	5.401024	-4.247522	558.826603	4.235642	0.066062	0.319072	-0.011822	0.757953
0.110	5.280722	-4.264241	559.249927	4.258443	0.270142	0.311397	-0.048304	0.761456
0.120	5.165451	-4.230634	559.805952	4.304591	0.469139	0.298758	-0.083804	0.768943
0.130	5.061217	-4.150332	560.353099	4.364030	0.661091	0.283652	-0.117978	0.778800
0.140	4.969725	-4.036279	560.768241	4.426027	0.848108	0.269475	-0.151240	0.789279
0.150	4.887292	-3.908685	560.981167	4.482083	1.035524	0.259471	-0.184592	0.798972
0.160	4.806086	-3.790362	560.986863	4.527701	1.230171	0.255617	-0.219287	0.807096
0.170	4.717262	-3.700572	560.834201	4.562537	1.438220	0.257930	-0.256443	0.813527
0.180	4.614748	-3.649616	560.600231	4.589150	1.663146	0.264480	-0.296672	0.818614
0.190	4.497958	-3.636491	560.362518	4.611083	1.904527	0.272136	-0.339874	0.822875
0.200	4.372001	-3.650693	560.177928	4.631093	2.158232	0.277722	-0.385276	0.826718
0.210	4.245010	-3.677259	560.071215	4.650017	2.418121	0.279145	-0.431752	0.830255
0.220	4.123752	-3.702750	560.034345	4.666404	2.678714	0.276122	-0.478312	0.833235
0.230	4.009460	-3.719584	560.036155	4.676854	2.937800	0.270246	-0.524573	0.835099
0.240	3.895744	-3.727360	560.038905	4.676950	3.197929	0.264410	-0.571019	0.835112
0.250	3.769543	-3.731530	560.014937	4.662514	3.466243	0.261827	-0.618955	0.832570
0.260	3.614706	-3.740942	559.956351	4.630745	3.752931	0.265040	-0.670218	0.826983
0.270	3.416566	-3.765494	559.874198	4.580883	4.069074	0.275249	-0.726784	0.818199
0.280	3.165618	-3.814159	559.788835	4.514230	4.424696	0.292090	-0.790422	0.806417
0.290	2.859313	-3.893204	559.717220	4.433658	4.827440	0.313795	-0.862478	0.792125
0.300	2.501970	-4.004578	559.664378	4.342786	5.281933	0.337556	-0.943768	0.775963
0.310	2.103116	-4.144791	559.624246	4.245056	5.789581	0.360025	-1.034548	0.758555
0.320	1.674593	-4.304807	559.589282	4.142984	6.348380	0.377912	-1.134471	0.740362
0.330	1.227158	-4.471374	559.561550	4.037882	6.952497	0.388630	-1.242490	0.721615
0.340	0.767983	-4.629751	559.556098	3.930217	7.591775	0.390859	-1.356750	0.702381
0.350	0.300585	-4.767059	559.592727	3.820494	8.251664	0.384778	-1.474584	0.682728
0.360	-0.172245	-4.875065	559.680928	3.710249	8.914095	0.371830	-1.592710	0.662922
0.370	-0.643842	-4.951516	559.808103	3.602556	9.559343	0.354075	-1.707611	0.643534
0.380	-1.100271	-4.999811	559.939470	3.501692	10.168488	0.333457	-1.815998	0.625370
0.390	-1.520785	-5.027354	560.030737	3.411981	10.725909	0.311390	-1.915236	0.609249
0.400	-1.882758	-5.043069	560.046922	3.336344	11.221270	0.288769	-2.003630	0.595726
0.410	-2.169254	-5.054803	559.977472	3.275221	11.650653	0.266229	-2.080557	0.584884
0.420	-2.375915	-5.067652	559.840680	3.226434	12.016636	0.244384	-2.146438	0.576313
0.430	-2.514144	-5.084023	559.676654	3.186019	12.327410	0.223873	-2.202595	0.569261
0.440	-2.609179	-5.105126	559.533396	3.149591	12.595243	0.205266	-2.251026	0.562896
0.450	-2.693821	-5.132461	559.452253	3.113600	12.834611	0.188899	-2.294139	0.556544
0.460	-2.800024	-5.167987	559.457333	3.076069	13.060130	0.174761	-2.334428	0.549831
0.470	-2.950974	-5.212779	559.550822	3.036739	13.284306	0.162502	-2.374102	0.542710
0.480	-3.155672	-5.265212	559.714149	2.996851	13.515222	0.151613	-2.414665	0.535425
0.490	-3.406941	-5.320038	559.913567	2.958846	13.754526	0.141723	-2.456544	0.528447
0.500	-3.682891	-5.369032	560.107951	2.926133	13.996252	0.132823	-2.498849	0.522423
0.510	-3.951407	-5.402856	560.256749	2.902901	14.227097	0.125279	-2.539389	0.518138
0.520	-4.176985	-5.413299	560.327316	2.893864	14.428654	0.119568	-2.575040	0.516460
0.530	-4.328706	-5.395107	560.301607	2.903782	14.581534	0.115895	-2.602444	0.518253
0.540	-4.387320	-5.346939	560.181314	2.936727	14.670354	0.113853	-2.618858	0.524246
0.550	-4.349305	-5.271337	559.989177	2.995155	14.687780	0.112337	-2.622869	0.534859
0.560	-4.226602	-5.173944	559.765138	3.079023	14.635946	0.109791	-2.614658	0.550056
0.570	-4.042228	-5.062388	559.558675	3.185254	14.524649	0.104728	-2.595733	0.569244
0.580	-3.823189	-4.944990	559.420070	3.307808	14.367093	0.096307	-2.568212	0.591292
0.590	-3.592725	-4.829341	559.391776	3.438595	14.174905	0.084735	-2.533985	0.614702
0.600	-3.364026	-4.721013	559.498778	3.569285	13.954279	0.071335	-2.494068	0.637943
0.610	-3.137252	-4.622968	559.737665	3.693654	13.704386	0.058276	-2.448359	0.659890
0.620	-2.900779	-4.535903	560.068363	3.809484	13.418114	0.048025	-2.395799	0.680182
0.630	-2.636133	-4.459036	560.415828	3.919059	13.084523	0.042657	-2.334788	0.699313
0.640	-2.324753	-4.390503	560.686750	4.027859	12.692157	0.043211	-2.263681	0.718380
0.650	-1.954110	-4.327087	560.798605	4.142024	12.232406	0.049327	-2.181248	0.738594
0.660	-1.521119	-4.263845	560.710604	4.265765	11.702032	0.059333	-2.087000	0.760778
0.670	-1.031983	-4.194540	560.443043	4.399810	11.104134	0.070750	-1.981314	0.785059
0.680	-0.499065	-4.113300	560.074749	4.541310	10.447340	0.081025	-1.865347	0.810840
0.690	0.063343	-4.017095	559.716998	4.684941	9.743779	0.088202	-1.740840	0.837020
0.700	0.642157	-3.907837	559.473408	4.824488	9.006921	0.091321	-1.609893	0.862327
0.710	1.226162	-3.792880	559.402928	4.954302	8.250253	0.090490	-1.474832	0.885641
0.720	1.804421	-3.683417	559.501762	5.070189	7.487174	0.086717	-1.338186	0.906197
0.730	2.364012	-3.591289	559.710645	5.169710	6.731671	0.081663	-1.202706	0.923640
0.740	2.889150	-3.525440	559.942314	5.252147	5.998768	0.077336	-1.071319	0.937980
0.750	3.362960	-3.489264	560.116348	5.318381	5.303769	0.075734	-0.946905	0.949514
0.760	3.771789	-3.479679	560.187423	5.370662	4.659958	0.078449	-0.831857	0.958726
0.770	4.110488	-3.488061	560.157591	5.412046	4.075413	0.086283	-0.727548	0.966165
0.780	4.386090	-3.502627	560.069796	5.445384	3.550387	0.098986	-0.633919	0.972269
0.790	4.617315	-3.511518	559.985990	5.472218	3.076770	0.115222	-0.549437	0.977206
0.800	4.828924	-3.505690	559.958537	5.492212	2.640395	0.132830	-0.471534	0.980825
0.810	5.042725	-3.480906	560.007048	5.503558	2.225691	0.149388	-0.397440	0.982766
0.820	5.269314	-3.438464	560.111123	5.504186	1.821024	0.162941	-0.325118	0.982695
0.830	5.504663	-3.384646	560.221704	5.493122	1.422750	0.172638	-0.253962	0.980526
0.840	5.733110	-3.329114	560.284149	5.471297	1.036542	0.179046	-0.185003	0.976522
0.850	5.934818	-3.282645	560.261111	5.441483	0.675803	0.184028	-0.120623	0.971241
0.860	6.093700	-3.254787	560.145602	5.407419	0.358017	0.190226	-0.063915	0.965360
0.870	6.202125	-3.251989	559.961153	5.372557	0.100366	0.200311	-0.017924	0.959452
0.880	6.260854	-3.276514	559.751788	5.338986	-0.084161	0.216158	0.015035	0.953813
0.890	6.275305	-3.326224	559.567014	5.306951	-0.189302	0.238185	0.033830	0.948403
0.900	6.251022	-3.395312	559.447095	5.274944	-0.216273	0.265059	0.038658	0.942885
0.910	6.191122	-3.475920	559.412497	5.240105	-0.172827	0.293968	0.030894	0.936716
0.920	6.096933	-3.560341	559.459790	5.198718	-0.071227	0.321409	0.012731	0.929239
0.930	5.970988	-3.643093	559.564934	5.146937	0.073941	0.344159	-0.013214	0.919810
0.940	5.820275	-3.722032	559.693329	5.081917	0.247325	0.360019	-0.044189	0.907982
0.950	5.657615	-3.797900	559.813346	5.003231	0.433509	0.368087	-0.077438	0.893732
0.960	5.500280	-3.872486	559.907609	4.913920	0.617316	0.368585	-0.110253	0.877631
0.970	5.366500	-3.946407	559.976644	4.820443	0.784320	0.362514	-0.140063	0.860829
0.980	5.271398	-4.017912	560.033406	4.731266	0.921839	0.351346	-0.164604	0.844819
0.990	5.223841	-4.083354	560.092476	4.654660	1.020200	0.336857	-0.182149	0.831052
1.000	5.225087	-4.138696	560.160765	4.596684	1.073930	0.321013	-0.191718	0.820601
1.010	5.269523	-4.180698	560.235073	4.560192	1.082531	0.305801	-0.193228	0.813978
1.020	5.347161	-4.207000	560.306824	4.545095	1.050458	0.292940	-0.187479	0.811180
1.030	5.447047	-4.215485	560.369125	4.549557	0.985978	0.283528	-0.175952	0.811886
1.040	5.560370	-4.203952	560.420107	4.571434	0.899010	0.277736	-0.160417	0.815716
1.050	5.682047	-4.170674	560.460055	4.609271	0.798731	0.274735	-0.142513	0.822409
1.060	5.810126	-4.115582	560.485376	4.662464	0.692052	0.272969	-0.123474	0.831862
1.070	5.943424	-4.041343	560.485108	4.730639	0.583726	0.270749	-0.104147	0.844026
1.080	6.078818	-3.953705	560.443641	4.812681	0.477922	0.266896	-0.085276	0.858727
1.090	6.209737	-3.860867	560.348492	4.905876	0.380227	0.261132	-0.067855	0.875504
1.100	6.326510	-3.772017	560.198598	5.005479	0.298809	0.254063	-0.053340	0.893519
1.110	6.418170	-3.695506	560.008495	5.104919	0.243985	0.246863	-0.043568	0.911579
1.120	6.474686	-3.637225	559.806338	5.196665	0.226331	0.240873	-0.040430	0.928297
1.130	6.488748	-3.599738	559.626566	5.273578	0.254187	0.237292	-0.045421	0.942339
1.140	6.456785	-3.582480	559.500074	5.330311	0.331652	0.237012	-0.059276	0.952692
1.150	6.379515	-3.582881	559.445814	5.364259	0.457879	0.240537	-0.081845	0.958852
1.160	6.262392	-3.597787	559.467074	5.375799	0.627857	0.247946	-0.112224	0.960879
1.170	6.115733	-3.624315	559.553439	5.367805	0.834191	0.258850	-0.149082	0.959302
1.180	5.953642	-3.659807	559.686710	5.344618	1.069165	0.272373	-0.191029	0.954930
1.190	5.791114	-3.701442	559.847581	5.310773	1.326432	0.287115	-0.236927	0.948611
1.200	5.639862	-3.746347	560.020324	5.269906	1.602050	0.301180	-0.286070	0.941020
1.210	5.504541	-3.792441	560.194429	5.224276	1.894867	0.312364	-0.338252	0.932583
1.220	5.380962	-3.839334	560.363244	5.175066	2.206435	0.318628	-0.393751	0.923520
1.230	5.256771	-3.888462	560.519506	5.123118	2.540627	0.318737	-0.453263	0.913995
1.240	5.113972	-3.942313	560.648708	5.069458	2.903051	0.312770	-0.517802	0.904213
1.250	4.932402	-4.003245	560.724442	5.015227	3.300323	0.302198	-0.588582	0.894419
1.260	4.693531	-4.072494	560.711774	4.961232	3.739294	0.289446	-0.666883	0.884810
1.270	4.383998	-4.149641	560.581066	4.907725	4.226317	0.277163	-0.753917	0.875471
1.280	3.997881	-4.232459	560.326520	4.854824	4.766644	0.267503	-0.850690	0.866428
1.290	3.536636	-4.316783	559.977810	4.803353	5.363890	0.261658	-0.957875	0.857776
1.300	3.006475	-4.396332	559.595553	4.755403	6.019452	0.259755	-1.075679	0.849793
1.310	2.414662	-4.462970	559.251324	4.714051	6.731747	0.261113	-1.203707	0.842922
1.320	1.767269	-4.508264	559.002561	4.682291	7.495205	0.264706	-1.340818	0.837615
1.330	1.070379	-4.526365	558.874884	4.661690	8.299170	0.269599	-1.484978	0.834121
1.340	0.334432	-4.517014	558.858917	4.651420	9.127143	0.275116	-1.633175	0.832307
1.350	-0.420928	-4.486906	558.920523	4.648082	9.956916	0.280692	-1.781455	0.831618
1.360	-1.164972	-4.448360	559.017579	4.646433	10.761993	0.285574	-1.925162	0.831178
1.370	-1.859135	-4.415633	559.115307	4.640811	11.514313	0.288623	-2.059381	0.830027
1.380	-2.465061	-4.400501	559.194904	4.626783	12.187918	0.288405	-2.179547	0.827401
1.390	-2.954814	-4.409040	559.254413	4.602380	12.762944	0.283612	-2.282136	0.822949
1.400	-3.319448	-4.440762	559.304014	4.568340	13.229003	0.273659	-2.365262	0.816790
1.410	-3.572278	-4.489784	559.359102	4.527291	13.586850	0.259142	-2.429003	0.809371
1.420	-3.744524	-4.546890	559.434089	4.482324	13.847457	0.241823	-2.475262	0.801225
1.430	-3.874034	-4.601655	559.538608	4.435821	14.028479	0.224059	-2.507151	0.792764
1.440	-3.991347	-4.644427	559.675884	4.389187	14.149231	0.207912	-2.528112	0.784237
1.450	-4.109236	-4.667962	559.841809	4.343488	14.226043	0.194407	-2.541083	0.775842
1.460	-4.220303	-4.668204	560.023815	4.300348	14.269698	0.183293	-2.548052	0.767887
1.470	-4.303211	-4.644012	560.200503	4.262397	14.285620	0.173349	-2.550090	0.760870
1.480	-4.334163	-4.596375	560.343866	4.232927	14.276222	0.163041	-2.547761	0.755416
1.490	-4.298498	-4.527932	560.425037	4.214913	14.243973	0.151194	-2.541638	0.752092
1.500	-4.197905	-4.443135	560.422351	4.209889	14.193669	0.137432	-2.532674	0.751199
1.510	-4.050943	-4.348665	560.329053	4.217230	14.132975	0.122255	-2.522264	0.752635
1.520	-3.887119	-4.253361	560.158015	4.234197	14.071037	0.106798	-2.511976	0.755893
1.530	-3.736916	-4.167268	559.941643	4.256694	14.015553	0.092450	-2.503038	0.760203
1.540	-3.621253	-4.099881	559.725842	4.280310	13.969201	0.080479	-2.495722	0.764715
1.550	-3.543825	-4.058049	559.558529	4.301164	13.926636	0.071787	-2.488861	0.768671
1.560	-3.488743	-4.044156	559.475960	4.316310	13.873339	0.066781	-2.479702	0.771492
1.570	-3.424285	-4.055295	559.492477	4.323861	13.787173	0.065380	-2.464228	0.772818
1.580	-3.311799	-4.083976	559.598296	4.323016	13.642663	0.067148	-2.437939	0.772521
1.590	-3.117008	-4.120444	559.766125	4.313976	13.416942	0.071508	-2.396884	0.770675
1.600	-2.819830	-4.155990	559.963305	4.297499	13.095357	0.077948	-2.338610	0.767461
1.610	-2.419055	-4.186160	560.163840	4.274067	12.674595	0.086073	-2.262659	0.763003
1.620	-1.930041	-4.212601	560.355061	4.242950	12.162075	0.095519	-2.170423	0.757190
1.630	-1.376410	-4.242747	560.536514	4.201717	11.572031	0.105862	-2.064456	0.749589
1.640	-0.779434	-4.287236	560.712706	4.146690	10.920122	0.116678	-1.947543	0.739539
1.650	-0.149973	-4.355717	560.884098	4.074423	10.218892	0.127709	-1.821926	0.726429
1.660	0.513106	-4.452364	561.040639	3.983728	9.475873	0.138931	-1.688982	0.710060
1.670	1.217040	-4.572836	561.160223	3.877341	8.694951	0.150403	-1.549460	0.690951
1.680	1.964646	-4.704290	561.212491	3.762353	7.880196	0.162045	-1.404138	0.670397
1.690	2.744613	-4.828939	561.167031	3.649028	7.040321	0.173625	-1.254586	0.650257
1.700	3.527844	-4.929762	561.003814	3.548467	6.191615	0.185050	-1.103667	0.632521
1.710	4.271990	-4.995745	560.722432	3.470254	5.357796	0.196730	-0.955517	0.618890
1.720	4.932265	-5.024180	560.346579	3.421213	4.566639	0.209682	-0.814967	0.610553
1.730	5.473904	-5.019248	559.921976	3.405608	3.844589	0.225197	-0.686629	0.608229
1.740	5.881392	-4.987915	559.508380	3.426078	3.211317	0.244132	-0.573953	0.612337
1.750	6.161525	-4.935498	559.167858	3.484220	2.676067	0.266166	-0.478580	0.623108
1.760	6.339904	-4.863321	558.951990	3.580144	2.236965	0.289406	-0.400207	0.640510
1.770	6.452357	-4.769759	558.890519	3.711256	1.883470	0.310632	-0.337002	0.664040
1.780	6.534083	-4.653983	558.983552	3.871147	1.600976	0.326218	-0.286408	0.692533
1.790	6.610080	-4.519990	559.199401	4.049511	1.375710	0.333437	-0.246014	0.724162
1.800	6.690106	-4.378318	559.480717	4.233472	1.197901	0.331569	-0.214109	0.756679
1.810	6.769777	-4.244287	559.760310	4.409963	1.062181	0.322265	-0.189756	0.787831
1.820	6.836738	-4.133700	559.983160	4.568154	0.965624	0.308976	-0.172438	0.815766
1.830	6.878811	-4.058240	560.125644	4.700975	0.904896	0.295708	-0.161552	0.839272
1.840	6.890570	-4.022498	560.202116	4.805272	0.874136	0.285739	-0.156039	0.857775
1.850	6.876023	-4.023355	560.254419	4.880907	0.864541	0.280796	-0.154312	0.871195
1.860	6.847055	-4.051351	560.328340	4.929501	0.865613	0.280954	-0.154483	0.879752
1.870	6.818995	-4.093444	560.447816	4.953468	0.867292	0.285073	-0.154750	0.883841
1.880	6.805562	-4.136538	560.599670	4.955670	0.861980	0.291477	-0.153760	0.883994
1.890	6.815161	-4.171008	560.737158	4.939658	0.845754	0.298522	-0.150829	0.880922
1.900	6.849538	-4.192990	560.801323	4.910129	0.818633	0.304916	-0.145976	0.875556
1.910	6.904569	-4.204300	560.749692	4.873167	0.784154	0.309794	-0.139840	0.869045
1.920	6.972309	-4.209679	560.577628	4.835866	0.748560	0.312653	-0.133534	0.862658
1.930	7.043354	-4.212471	560.321463	4.805163	0.719798	0.313238	-0.128462	0.857573
1.940	7.108834	-4.210928	560.042697	4.786094	0.706342	0.311425	-0.126123	0.854594
1.950	7.161632	-4.197486	559.802969	4.780219	0.715967	0.307151	-0.127896	0.853911
1.960	7.196842	-4.161994	559.642956	4.785175	0.754755	0.300457	-0.134864	0.855041
1.970	7.211758	-4.097557	559.573475	4.795765	0.826606	0.291676	-0.147721	0.857039
1.980	7.205648	-4.005845	559.579249	4.806158	0.933367	0.281677	-0.166798	0.858888
1.990	7.179256	-3.898690	559.630636	4.812174	1.075487	0.271958	-0.192178	0.859884
2.000	7.133870	-3.794684	559.697123	4.812731	1.252944	0.264399	-0.223861	0.859881
2.010	7.070096	-3.712250	559.757317	4.809970	1.466182	0.260712	-0.261932	0.859296
2.020	6.986681	-3.662629	559.802888	4.808080	1.716798	0.261820	-0.306679	0.858888
2.030	6.879559	-3.646220	559.836997	4.811357	2.007710	0.267471	-0.358624	0.859421
2.040	6.741231	-3.653803	559.869395	4.822346	2.342728	0.276242	-0.418442	0.861334
2.050	6.560665	-3.671589	559.910305	4.840798	2.725625	0.285897	-0.486797	0.864567
2.060	6.324011	-3.687440	559.964833	4.863723	3.159001	0.293902	-0.564143	0.868576
2.070	6.016326	-3.695397	560.029589	4.886344	3.643251	0.297917	-0.650546	0.872515
2.080	5.624506	-3.696720	560.092843	4.903563	4.175899	0.296159	-0.745573	0.875491
2.090	5.141334	-3.697392	560.138349	4.911463	4.751460	0.287664	-0.848265	0.876830
2.100	4.569809	-3.703762	560.151396	4.908357	5.361904	0.272473	-0.957224	0.876255
2.110	3.925901	-3.718751	560.124811	4.894989	5.997681	0.251742	-1.070776	0.873910
2.120	3.237616	-3.740427	560.062614	4.873816	6.649132	0.227698	-1.187212	0.870227
2.130	2.539212	-3.763303	559.979144	4.847731	7.307989	0.203349	-1.305047	0.865698
2.140	1.861722	-3.781436	559.892153	4.818835	7.968546	0.181953	-1.423229	0.860672
2.150	1.223327	-3.791701	559.811690	4.787795	8.628103	0.166341	-1.541251	0.855251
2.160	0.624159	-3.795700	559.731438	4.753909	9.286493	0.158334	-1.659098	0.849320
2.170	0.048708	-3.799396	559.630272	4.715683	9.944658	0.158404	-1.777005	0.842643
2.180	-0.524424	-3.810736	559.485802	4.671543	10.602414	0.165653	-1.895028	0.834971
2.190	-1.109364	-3.836469	559.292887	4.620454	11.255873	0.178060	-2.012518	0.826124
2.200	-1.702215	-3.879609	559.076070	4.562354	11.895317	0.192931	-2.127674	0.816053
2.210	-2.277708	-3.938374	558.888011	4.498424	12.504538	0.207465	-2.237396	0.804888
2.220	-2.795118	-4.006735	558.793270	4.431267	13.062362	0.219344	-2.337602	0.793007
2.230	-3.211292	-4.076160	558.843738	4.364993	13.546458	0.227192	-2.424015	0.781076
2.240	-3.495435	-4.137831	559.056227	4.304901	13.938533	0.230761	-2.493226	0.770030
2.250	-3.639550	-4.184644	559.402253	4.256459	14.229242	0.230782	-2.543651	0.760894
2.260	-3.660521	-4.212495	559.814556	4.223762	14.420909	0.228561	-2.576015	0.754493
2.270	-3.593583	-4.220617	560.207105	4.208169	14.526806	0.225450	-2.593114	0.751181
2.280	-3.480352	-4.211048	560.500201	4.207884	14.567076	0.222317	-2.598942	0.750737
2.290	-3.356182	-4.187662	560.642076	4.218617	14.562844	0.219156	-2.597530	0.752462
2.300	-3.241181	-4.155453	560.621338	4.234845	14.530830	0.214988	-2.591915	0.755384
2.310	-3.137548	-4.120395	560.467357	4.250961	14.480444	0.208176	-2.583637	0.758467
2.320	-3.033548	-4.089493	560.238290	4.261948	14.414184	0.197106	-2.572867	0.760738
2.330	-2.912162	-4.070315	560.000325	4.263662	14.330748	0.180969	-2.559061	0.761368
2.340	-2.760819	-4.069641	559.806035	4.253027	14.229235	0.160294	-2.541815	0.759732
2.350	-2.578449	-4.091627	559.680795	4.228193	14.112486	0.136971	-2.521524	0.755465
2.360	-2.377314	-4.136363	559.621761	4.188514	13.988103	0.113732	-2.499564	0.748454
2.370	-2.179020	-4.199582	559.607222	4.134334	13.866818	0.093324	-2.477956	0.738792
2.380	-2.006296	-4.273674	559.609759	4.066876	13.759039	0.077679	-2.458685	0.726734
2.390	-1.873919	-4.349535	559.606675	3.988420	13.671195	0.067371	-2.443001	0.712718
2.400	-1.782802	-4.418652	559.584304	3.902569	13.603623	0.061518	-2.431023	0.697405
2.410	-1.720205	-4.475021	559.536839	3.814139	13.551091	0.058178	-2.421841	0.681660
